3596
4000.36533379555
650.420452594757
1
2
2
0.0661436437865161
0.0677814783204099
0.0695806639954457
0.0695798563427138
0.0672754067592707
0.072209644062587
0.066097885252402
0.0672669417906378
0.0725556562922386
0.0752655412915094
0.0711115944001107
0.0766638409670683
0.0703511010321368
0.0660515415715923
0.0659343535451766
0.065356083785183
0.0624481900759732
0.0666583630524153
0.0677123363804586
0.069380901740633
0.0677914309876316
0.0664959406085608
0.0642850048369523
0.0689912260779748
0.0695821117541603
0.0676209045531092
0.06753807944386
0.0735501997803473
0.0655744773197236
0.0638722273828442
0.0662423502487525
0.0666742627691159
0.0685812203263923
0.0712151198743186
0.0651717933490218
0.073413874786885
0.0693261499989325
0.0742555194485694
0.0618942471907826
0.0702948371096301
0.0792878118691493
0.0690534878830256
0.0678435366912234
0.076418919143283
0.072765544270321
0.0687560297143462
0.0700649887676862
0.0719108043360195
0.073020641100931
0.0700457871035034
0.0613442237805379
0.0634124267711792
0.0715780943216059
0.0736140441715659
0.0696869304760951
0.0901818961931858
0.0707654801141266
0.0737054486586563
0.0739887901245698
0.0645085383921784
0.0947705402276633
0.0915343203241742
0.0678013204247117
0.0653183665208864
0.0577341243787812
0.0700309077869415
0.0688366148947039
0.0597239597578658
0.0619596578278363
0.0659529343010973
0.065608994600639
0.0859849900595932
0.08183484611046
0.0738033075361399
0.0847194047515498
0.0737992243972134
0.0569320830564624
0.0618135113756883
0.0614037068598239
0.0816799639330939
0.0842453941683309
0.0717996939050639
0.0663408757760268
0.0621595510217602
0.0724299156894598
0.0829658680992678
0.0584886411271335
0.072251470546036
0.0868220862033415
0.0804406816015311
0.0645577435486489
0.0652923581843428
0.0627060020629572
0.0655991932336307
0.0625016262993315
0.0633298090904157
0.0558240553871306
0.0718945255314382
0.0634123785522603
0.0810649148965909
0.0602238011944385
0.103656208047242
0.0942471928431347
0.0793698143159413
0.115251561406007
0.080870342433202
0.0755079651545249
0.109570798075691
0.092226062758562
0.0690591126592509
0.0631019554066559
0.0624838356133393
0.0694307166050688
0.0635662432367037
0.0588753566737125
0.10264614848347
0.0934489799172485
0.0694203317594266
0.0666983424486638
0.0671986488779764
0.0389738520586201
0.109093171754501
0.0971744550762146
0.0727620149983492
0.0746711638642108
0.0689621555472335
0.056462225956071
0.112567400123249
0.0853099803026946
0.0687873788475145
0.0593256782218399
0.0663285891484878
0.0468437405674902
0.0849482039226673
0.0991255037414563
0.0770271431013773
0.0608321136865911
0.071275284241833
0.106891706935047
0.119223945624001
0.080669358811984
0.0713418434776761
0.0473605709824997
0.0867197116620186
0.0959164100758248
0.0749154225664846
0.0668943117106988
0.0922041272519214
0.0650872820943295
0.0657111820009151
0.0602400866730814
0.0661373062873091
0.081305875472412
0.0747484017909264
0.029342019360305
0.143305162066067
0.106919143484093
0.132627134384303
0.1088808984463
0.0803155500404653
0.0650784808745943
0.0809534984442993
0.057704825140539
0.0569700284201792
0.0615712783573242
0.0592055129369551
0.0813797360290664
0.0828407362780877
0.056385074348874
0.0760356277671231
0.104689919459025
0.079380442694123
0.0721726143351553
0.144032053120614
0.071725841385478
0.0692088585649198
0.0924691876698265
0.0790638747158984
0.0446870249832884
0.0950076227986719
0.075737786224398
0.0681600334936774
0.0590115783900884
0.0608900314740121
0.0661009392840493
0.0863174149570212
0.0698666179893608
0.0741225688006313
0.0552988743388131
0.0663763877156515
0.0766336627552163
0.141708975605618
0.0861258188367423
0.0783125616383846
0.0604394691693544
0.0581901616264304
0.0961763108933796
0.102333594489673
0.0638398102370129
0.069234417908505
0.0527130040870763
0.064693065122186
0.0556695226406046
0.0740483176233939
0.041033211854659
0.0509163543521041
0.101015267775674
0.0868079420032705
0.0572183767139953
0.0652646661366424
0.0659185223387657
0.0706370625254868
0.124066708757664
0.0936008312450073
0.0701675863750331
0.0657290427870331
0.0593427224335026
0.0870970819379426
0.0724807790419408
0.0689018039770024
0.0603144431541399
0.0639071663221258
0.055573278271803
0.0584251484543493
0.0634408475018343
0.0614829408208087
0.0559981678500545
0.0657649634312834
0.0525059184406583
0.0685056776105939
0.076814407988465
0.0688125051067351
0.0625540634397666
0.0736183850370082
0.0512419339094781
0.0889621283218068
0.0728758885208562
0.0716417947651237
0.0566049573715398
0.0627732526712944
0.0522307905905895
0.0574527150951903
0.0535073469297737
0.0678850386496339
0.0429698212204806
0.0713689372305608
0.0842749873681207
0.0730835186161682
0.0551823295194904
0.055714792642123
0.0849517509706216
0.0842536016119263
0.0638625490359923
0.0587962430227527
0.0686204015052666
0.0513304739868683
0.0679418317992242
0.0918485962653833
0.0652010218231461
0.0681001955066312
0.0854654111968429
0.0662902084479803
0.0689568472126928
0.0531290376811069
0.0833512819620087
0.141409758489238
0.0715189245379701
0.0960002428360623
0.117678592387369
0.0809429564121631
0.082872831260815
0.0592024405513791
0.0565629425059023
0.19921931704676
0.118806526973797
0.0654852585737462
0.0775252246352648
0.0888651868528254
0.0575426107180052
0.0829722392148794
0.0572088685171963
0.0998932608255605
0.0817658537758174
0.159125515790639
0.10654936469838
0.0605897220956074
0.105406563986388
0.0799725752257433
0.0672537262150378
0.0609544178831692
0.0547023821843431
0.0619679420955062
0.0832333638520735
0.0823582594307261
0.0897130345336798
0.0630910596854918
0.0798636053731896
0.0980383182487538
0.0733680487111228
0.0630319109457516
0.0861629965055806
0.0717954754436039
0.0624217838827243
0.0662841522973788
0.0630677407289192
0.0846086005151792
0.04268358456549
0.0718410205458649
0.112414788947785
0.0720220700193593
0.0867395290156263
0.0991083468235604
0.0726035162215911
0.062938666859506
0.0668519092440317
0.0628963936784969
0.0602999899246874
0.0530698595536474
0.0688348397262628
0.0983566160357694
0.066051235476049
0.0732630658683488
0.0610584299022668
0.0612860732894013
0.0630145474951445
0.0691773833117588
0.0608601524048696
0.0694494065295811
0.0613219871591002
0.0555952974816862
0.0942441904809872
0.089788918130978
0.0452966191832571
0.126924325098557
0.0849981143824876
0.0834487721254374
0.0596663721435941
0.070156431505193
0.0587043730636706
0.0661461822758539
0.0600885541880558
0.0652690749374469
0.0659226809150077
0.0862330062891556
0.0682664007378969
0.070332528805251
0.0728470495797567
0.149617278002516
0.118151759377889
0.0950365188784113
0.0674146715482053
0.0546779926899215
0.116396688010694
0.0848109819314722
0.112423179374872
0.0948186058310369
0.0746680740328693
0.0704167979066852
0.0628915633003931
0.0732232979183644
0.0627221716679826
0.0740053342256969
0.0679390879957977
0.075333722513425
0.0650619137548599
0.0834557000466945
0.0536558254449899
0.0930587071733078
0.112021345531602
0.0795337554186036
0.0714050156086342
0.075989424998587
0.0539021319829155
0.114392124170017
0.0903870314172371
0.171999319327862
0.0873462539797587
0.138773069484632
0.112939039321487
0.101556661157923
0.0737086895032015
0.0813618376264545
0.0783233481370565
0.0979690195144348
0.0734160343519471
0.0892396788176907
0.0770619347482105
0.0938908565677132
0.080139923784978
0.0928577303421697
0.0766973050598727
0.0924715706761838
0.106314092138671
0.088428604692009
0.0881398285016485
0.0923067742743292
0.105623553209668
0.153567999936013
0.149435823810843
0.0979466241237322
0.112529003612733
0.0849885435941277
0.0887923363863354
0.0980279691308658
0.0985235307787515
0.106463449998293
0.101828785617929
0.138898631107488
0.103060612954897
0.140328371988045
0.107606536044852
0.098448789630194
0.136192851780739
0.106517323984456
0.118343006656697
0.141617659927803
0.115823522591673
0.106158768485519
0.150087738551499
0.117362635309812
0.130281083396976
0.126976898721347
0.114584825285047
0.118208646342279
0.1096686630054
0.122038786792408
0.11729873064908
0.138475234132559
0.127143621410916
0.134747231856423
0.129886438056462
0.135471690026726
0.124935834433054
0.15590133996458
0.130680856813467
0.146229236954229
0.137920281962748
0.143696653051137
0.133889735549444
0.126992932984616
0.176296173684466
0.144663215595682
0.160816568935399
0.17270238988989
0.134337483116482
0.150448338387087
0.149636970284485
0.154996359251512
0.138193738442891
0.15633272792886
0.162026204738343
0.155611569807344
0.146977200111855
0.171702545381976
0.15365318227592
0.17052936220499
0.163677119471477
0.165968248905312
0.161282840895743
0.177197846476362
0.17706489671908
0.164558006950141
0.200200540089522
0.204452147429721
0.211894129102649
0.204767214556357
0.186791460917515
0.186017064375935
0.181929484656755
0.193779367963701
0.186450401802627
0.213521454824156
0.193694156932898
0.196633983046288
0.200353549499615
0.208595957320034
0.186650056333972
0.2142563943391
0.203238115398819
0.243745272118397
0.205381247166462
0.223153670385985
0.207174999505776
0.228761834390069
0.215435217447578
0.246368232071778
0.228340463379262
0.259326037029368
0.21352953701912
0.251232689496664
0.2283370095971
0.238261728329526
0.21851840661057
0.24903537183958
0.224681375652945
0.260288229507825
0.254882286811502
0.26854936359354
0.240025768370429
0.265869810106504
0.248993776446021
0.26256687103829
0.249533770913913
0.268565095014654
0.266866162002701
0.285239437247657
0.269049654886343
0.306901048558998
0.269905879467773
0.293120109153978
0.267243725670375
0.314554623240045
0.282596756362259
0.291042228063399
0.284424332922015
0.298275831181021
0.287069674977887
0.323091569990705
0.294733710360413
0.32149220216981
0.290306386684244
0.317296944061698
0.308044597912542
0.332995969369759
0.302619119023235
0.33262298529727
0.32178333253875
0.347156767091298
0.315701682691246
0.346707985905576
0.318765915947565
0.344883780092589
0.331963644372048
0.362338358356842
0.348116454502711
0.36854165402914
0.345073312315077
0.378607950326291
0.333540636638898
0.401854486428089
0.354686712123159
0.379698059780493
0.330398939874364
0.378172417173849
0.360806421735717
0.395806651595329
0.361081407886216
0.399071691128209
0.373958066215528
0.396561407152129
0.356537026643134
0.427468466542866
0.386936231489876
0.406244886687045
0.390089026348791
0.412527297583682
0.373728194415047
0.415797524573678
0.393855991585005
0.429678008154729
0.413460154622462
0.421451105386546
0.40634318778125
0.441534146238905
0.408568670134861
0.429178894931181
0.406153789804233
0.450643175576717
0.407218032080904
0.444895519154156
0.434340048023678
0.438117316362364
0.447061646566456
0.460099589232005
0.43344941947711
0.469341236956862
0.424758662138761
0.468072438627793
0.439250439499728
0.444122443296087
0.449104146998138
0.475907343132815
0.448635499108073
0.482709822481068
0.459940683385096
0.502233781009266
0.479144635301601
0.509053283715148
0.454794529965841
0.506483052084802
0.482750145942704
0.501213348567076
0.485869221779319
0.533387403420259
0.480581393497086
0.513942369788762
0.490342781537148
0.510487620783647
0.490353644376631
0.522945303935827
0.476172317457791
0.519848111550684
0.498911678128914
0.52886440848927
0.49700603488006
0.54507184159901
0.492489494409432
0.535354501103826
0.514328177376597
0.550894214773436
0.527048311944588
0.536956462820565
0.517303629692292
0.535631285174983
0.531600448214242
0.534590181261549
0.516908325303033
0.544760690244324
0.530880210040985
0.546643647783581
0.537663363159181
0.571706732652668
0.53127690952152
0.555067490716511
0.564842269884609
0.572995575105054
0.537984356142504
0.581565602976776
0.541950089967865
0.558345603050607
0.542571340111758
0.565329749913164
0.5441136945207
0.575368040677177
0.561038494873621
0.568325376479208
0.553496706529779
0.601400874069694
0.539738042213225
0.596280174156811
0.555647533809085
0.592853986216449
0.547267989843908
0.589880628664169
0.56405688394721
0.594242034137581
0.584869829583432
0.587132836787566
0.559404687042768
0.577921967943963
0.577385430518727
0.615257077433441
0.594326896015904
0.601245737764154
0.598624405473075
0.593308786550963
0.570127760638674
0.601000301662278
0.595538445909936
0.602977273183166
0.597403803722569
0.632242775634294
0.574801959898327
0.618719952114658
0.588343518922046
0.631044193507383
0.571467395269301
0.629686036090587
0.591568197363166
0.635867987405703
0.57126169646939
0.608738002421806
0.598068459167453
0.640291436844433
0.592531790556488
0.585009253570773
0.581597139323006
0.621431769603043
0.604089068209916
0.615741239448859
0.629313749945299
0.641817049144625
0.600143685781277
0.643414321697366
0.609857825101966
0.642262122926538
0.583117857225627
0.622018620221787
0.585118919295624
0.651626917798594
0.598996239114263
0.639218756881326
0.615556044467121
0.638075358586875
0.592291762541655
0.630101894566438
0.61746942639155
0.613864640172042
0.607096574436619
0.634704565723761
0.621297887986932
0.628385222254101
0.604571193828288
0.623448016096698
0.599191456162858
0.615369374081317
0.6061931870199
0.640719224118901
0.60430490646314
0.619349708241846
0.609533792475053
0.618844426742226
0.607827588321575
0.623292680156864
0.616398553148192
0.631782067255619
0.627671667578748
0.625238871035343
0.583774657434729
0.609111313610769
0.587710601228363
0.617912350320217
0.593005954026113
0.634101463852297
0.594837050856705
0.624330671645285
0.615960159383738
0.614660663264569
0.601032604366449
0.613862175292497
0.603649729638575
0.624652553069394
0.608425711093365
0.624280794347647
0.595291572759151
0.614129149494521
0.590071250772316
0.615360768454844
0.57528207743674
0.613549716518274
0.58515027514971
0.595318132434303
0.5973670704439
0.601046843038463
0.587814579631745
0.61275543478976
0.58918914916324
0.609619446513709
0.576970933001045
0.610853186587733
0.579583870586336
0.6217428780476
0.573312395857243
0.591982525934703
0.572636956288393
0.579378411272803
0.572520017321779
0.58709412387456
0.577489304426529
0.600080962217489
0.569215714033532
0.585115839791959
0.553575652070969
0.602433674989782
0.556828444264852
0.594795904666625
0.542818264555302
0.59401084573039
0.572424284552828
0.590975413615094
0.562985277934591
0.578332077653849
0.563306424266101
0.563863996236285
0.556380326481754
0.562134649614927
0.542881647772493
0.560902188921986
0.551411756001892
0.552958774109935
0.545543385245547
0.575368453170403
0.538775696472597
0.561497609181669
0.546793309734015
0.578451648640293
0.558812074988256
0.552192203501848
0.54114832325196
0.555759573879599
0.534927780638427
0.553024787938443
0.547354197206543
0.528617568611008
0.528208064094156
0.541506298566101
0.536384533083041
0.526743630063708
0.506136822202352
0.54979368341074
0.50718341352527
0.535358494228946
0.518874432835597
0.527539394096101
0.51713829055387
0.519422200981568
0.511706403667159
0.514349328169199
0.510859210642834
0.503707414232253
0.500235325177947
0.509253821635726
0.49668156451289
0.523055986203122
0.49283807873675
0.494081484892989
0.475857226294674
0.497741938188951
0.485360284819195
0.503904549809799
0.477891009968833
0.491503872150753
0.500814463982854
0.493788331151379
0.479331568141161
0.503641776397369
0.471053655211295
0.493239302294685
0.474146781649939
0.473076354139486
0.470644116249626
0.483065373425697
0.464608884148582
0.480489580238273
0.458572498513762
0.483330070461868
0.467656933145421
0.473051343116034
0.454024292486398
0.464534120863427
0.448350318450724
0.459123364146872
0.44517786854629
0.458813819555474
0.442908627950886
0.455257169829803
0.442109519948294
0.452334411101746
0.442402033757501
0.451112481349106
0.419386241687574
0.439933657029747
0.435720876412111
0.43312907087469
0.418149804689989
0.429760514937958
0.419000918474058
0.425899656978762
0.424895445141926
0.431112996034559
0.421514459846916
0.420853301954733
0.405694310484558
0.420787906122497
0.405632754048633
0.406761538379856
0.410598370850479
0.413637874588968
0.399136514775816
0.397375545339727
0.398216787055563
0.402811533251442
0.38771894012193
0.396208906674369
0.391289375909766
0.400020706254285
0.398472313180267
0.391663309703936
0.382169193785361
0.383823485723295
0.369191328579809
0.375071040091985
0.380650674847667
0.384218417677055
0.373966636719868
0.374663451553099
0.362538564100817
0.375040615904586
0.360758802225716
0.360628960498708
0.366232149823763
0.365893944414432
0.353042862057691
0.36343779808046
0.345622303787208
0.354691110969521
0.351926647157899
0.353448464503731
0.350789366241712
0.363329010343499
0.33944437261515
0.34909435759357
0.3298178007405
0.35288449063138
0.333082246919021
0.333766719706485
0.336984670386378
0.342311116939038
0.326230372349975
0.333121769639505
0.322943752157588
0.326275078863865
0.314755174802701
0.320826769348731
0.311199784205381
0.323349639895515
0.310669096433313
0.318630486483812
0.314893200764782
0.309423046505105
0.299190588840801
0.30883936197457
0.300880734191239
0.307852159388537
0.304384524006729
0.302071763693254
0.291235420398273
0.306449444255378
0.299288527349245
0.299872418575038
0.291251218845491
0.296572873620973
0.290288219694113
0.289694125330373
0.28698496251794
0.286074535473569
0.278034808524238
0.283466177833985
0.272575415361672
0.275753950704316
0.281750972127352
0.285965047712289
0.273246865037496
0.274849998226137
0.270115460671803
0.271578728089362
0.261971792418646
0.269918736897531
0.266804474483659
0.270817404561005
0.267091839874804
0.265292173508762
0.262390332838404
0.264065084282902
0.259010146571962
0.258997448950409
0.251021306346296
0.262053665008739
0.254729335015002
0.253818855614776
0.250636482045021
0.251729860479652
0.249904212923123
0.263178530213544
0.242018088257721
0.240096607272017
0.24491571090328
0.244429853442701
0.235089687378268
0.240743450296431
0.243816775833436
0.243445328363699
0.23097340011
0.238166509086991
0.231055590651651
0.233332448335025
0.227648545168347
0.226418228622884
0.233672799493807
0.238830603476497
0.221949215396509
0.226621371026157
0.223718256617878
0.223172745654803
0.222796578302385
0.227506204172832
0.217130746240434
0.22377756192146
0.220048195541518
0.217753163784629
0.2138775619696
0.214310371693326
0.209005742644401
0.212982320995552
0.203798988453006
0.209989747049704
0.206163874721076
0.211122298090835
0.207855549390764
0.211465735816474
0.21028267326165
0.206427970270908
0.20360737645105
0.206223801574161
0.20232896318963
0.20242171212004
0.199898916250778
0.19800438986294
0.197767918014694
0.206121499774571
0.196136459656136
0.195321556694061
0.195715449780032
0.192317648551941
0.187979888997107
0.191876620643594
0.187350087475813
0.195856374240155
0.190006809611138
0.190309200848832
0.18845453208457
0.188800954374851
0.185161286331681
0.185789665460428
0.185166988331526
0.183869903048632
0.178262146657653
0.18646803864815
0.176492890128684
0.181983353841664
0.182263921549771
0.177640181898573
0.174703539863475
0.179832939375547
0.172307877132278
0.173881558980684
0.167169101239861
0.175964298316592
0.177678491301762
0.173359672698865
0.171691783123523
0.17074474036726
0.161709137200313
0.166926549211905
0.162810379374969
0.171311103948461
0.162813883303625
0.163774039319315
0.167422685871405
0.169767469820236
0.160572191584739
0.162547216372953
0.161004925367289
0.165131992553676
0.158704292150587
0.158080607184206
0.155399970463846
0.156125480092869
0.16243077392448
0.168378496578371
0.157619745992819
0.161969691935355
0.154719378475374
0.155037023727777
0.156301928164742
0.161271687159418
0.154331578118756
0.157427257606841
0.15490366088935
0.157630469020059
0.152970723982771
0.156118947034078
0.153611741181255
0.155219219807587
0.155307095235619
0.158277190393965
0.15463370872963
0.158743204874198
0.153624524293194
0.156271756622371
0.151982121441116
0.160724224533525
0.158074633908508
0.159498420893069
0.156179056252327
0.157763886198394
0.154449380175114
0.161834792099326
0.157080227657055
0.159993436840473
0.161085925326822
0.167027404602009
0.166296262785373
0.163811293186901
0.164107078228758
0.166019032380488
0.161077595412793
0.166962488246678
0.164952725103268
0.174948787032946
0.170375220116298
0.168366310447341
0.169308549504171
0.17130812030951
0.169918772135742
0.177925196152697
0.171546107950552
0.174032527363668
0.174344433207358
0.17576089205
0.177607961965373
0.177765189897489
0.1745094099157
0.178655997901175
0.180044295105562
0.179501086185895
0.179956355056481
0.189730658409123
0.189391220782306
0.187339552731788
0.185604878140911
0.189360400947664
0.18387095561362
0.190036712547128
0.192630968159741
0.1908018439634
0.194181890813829
0.198196219879863
0.195857688682212
0.201745100595746
0.206074189380261
0.204443072518628
0.202096392652962
0.204689759361087
0.203440886586856
0.21069019859968
0.204504056755615
0.211544645560477
0.219192503330312
0.215259026421181
0.212871814098829
0.219969533002682
0.213930471532903
0.213037374479164
0.217383652751238
0.213851768321131
0.218187658563256
0.222862915939439
0.212250568473304
0.220403109470507
0.221589277657655
0.223032801003258
0.217480614704036
0.218475282663146
0.223541992340118
0.227182170879477
0.218934980872266
0.218546460536893
0.216586971050836
0.214669065638676
0.209895811583935
0.222488099675924
0.214949361766369
0.212848110611909
0.218602874544264
0.217536226575907
0.216152374755425
0.218985513683226
0.213981599366814
0.215961888891224
0.215261795566092
0.219957990148049
0.216387816921397
0.217016346559653
0.215779912823127
0.211937989863383
0.21411530179621
0.217383742492295
0.214930014446876
0.211710119252927
0.215222148371532
0.214701326887281
0.209719720993739
0.216147936519942
0.216436000445558
0.215907055003548
0.208726471233559
0.215698154211284
0.215386741764193
0.211908536143851
0.213027834262642
0.21736815934681
0.215689401352607
0.210013943227847
0.21091558186085
0.21400708128723
0.210461189044307
0.211020211120053
0.208382438172777
0.212168355147674
0.21346311999188
0.211305604739578
0.204842047032236
0.206383215201381
0.208915298989814
0.21277068736822
0.208298543173653
0.206544604686507
0.20157066379273
0.203342405323448
0.20154722179413
0.19940362593691
0.196376650125674
0.199820036720064
0.201585004278772
0.198457395593297
0.194348790554619
0.191985047441873
0.185530901941792
0.191785826268332
0.188864211432972
0.186520089012056
0.188480700811783
0.18611113590361
0.181803560684021
0.182399676436871
0.180198342084295
0.176341548434675
0.170989100805448
0.17469062078363
0.177977429286647
0.171865214174877
0.167495852426666
0.166638192993776
0.163700369868748
0.165558784231985
0.159540841450356
0.160393290993599
0.165605300774268
0.164564217051578
0.160007566788764
0.158494721366362
0.152790425363671
0.155006889333462
0.152563448309286
0.154040075012341
0.151616049645762
0.154853962453202
0.153558429256149
0.151463327564516
0.14667303922609
0.148624109586611
0.146026402841187
0.147563553169926
0.148894399990805
0.146086717796848
0.142712097154786
0.144772463817975
0.147178507589089
0.146099721774693
0.138207840771289
0.144134965905282
0.141978559580282
0.135096648751098
0.141512704893654
0.138641511031314
0.135017364606014
0.136942802420646
0.132420620237584
0.135523061663935
0.135941037708867
0.139021942333656
0.135210906153482
0.132420966508765
0.132806280632229
0.133188942710778
0.127383032998458
0.128105531021544
0.126388049277854
0.12726892218904
0.129398128113553
0.12592655707665
0.12328001084107
0.123292003101306
0.123643780720477
0.123731263464904
0.123834774339834
0.126075434982579
0.126007364758081
0.126993753395713
0.118772436016621
0.120082762900674
0.121434318510013
0.121045759989946
0.123345013481477
0.121080411350286
0.114958918838361
0.112221539867776
0.112025760687293
0.114170670581243
0.11673583739666
0.121030636463563
0.11503472476384
0.119089443988377
0.113920703012897
0.117920355346991
0.113990941677035
0.115343711251974
0.117764119320384
0.116504371445165
0.114096416935052
0.113793270072716
0.113595155880563
0.115680665759022
0.111236121194712
0.11355959475268
0.112217647543599
0.112791654875397
0.11518319240319
0.113729400921011
0.110237092986144
0.109299828501848
0.110932809262685
0.111197623784261
0.11252694335973
0.112661592912341
0.112338557956191
0.11110559914207
0.112530713661403
0.109398031417051
0.107841851566898
0.109010506514428
0.109344208629565
0.108060915411711
0.106778193172813
0.107554496696062
0.105766881794462
0.107956977392364
0.102995934703279
0.102339252572337
0.102804643383612
0.107398454306228
0.104556941870607
0.106396426560098
0.10140782934706
0.101915907192128
0.104912554871355
0.102188034617396
0.100699418427047
0.105773159128359
0.103137125021468
0.103494145708782
0.104437407232234
0.10672126630325
0.100410113684173
0.102102967361629
0.103198923436548
0.102891236828304
0.100394274200752
0.100359403675328
0.101129359813832
0.10327718666678
0.105048311484265
0.100171037777767
0.100438799260923
0.101280667290687
0.0973310063749269
0.101051821689402
0.10064761320012
0.101109208889774
0.102987769290274
0.102000575327624
0.0982700321102691
0.101047646057413
0.102515355140512
0.0999692355976067
0.10015560566159
0.0975988436158185
0.100058156708699
0.0999738879443163
0.0960803396691887
0.0987996796515434
0.0997755264591089
0.0988173475354306
0.0992627381810246
0.0964770240484926
0.0981749456594785
0.095578855531306
0.0951967676571496
0.0977168720334516
0.0960862438320831
0.097338783733032
0.0987172348581943
0.0985178046810478
0.0941562075334873
0.0909287257288676
0.095574543008104
0.096852575801522
0.0934624672387929
0.0960272692944543
0.0948310015181198
0.0935248840893911
0.0940909919052942
0.0941475482250735
0.092400444165495
0.0903830892366505
0.0911675336565133
0.0940745322766502
0.0885466278672409
0.0913524676274082
0.0897442808166634
0.0900582309033957
0.0889644460710285
0.0927393783072922
0.0914003282580618
0.0898119943035143
0.0901524808693101
0.0857140214140789
0.0900548395735057
0.0910871935881646
0.0870081575615665
0.0905423783374414
0.0860556798911991
0.0886157199575416
0.0882486618384224
0.0864204392662038
0.0892927569757863
0.0885598081963939
0.0889064699217809
0.0866975674281033
0.0891099569641192
0.0900238332914548
0.0906535739227932
0.0836442394775893
0.086866318247688
0.0882047372528342
0.0897330414130487
0.0842934502627902
0.085122090315497
0.0867684026282955
0.0867076067333854
0.0848583148660506
0.0830742785859018
0.086014642532061
0.079368766995241
0.0797099785462247
0.0873674912758653
0.0816088710519427
0.0800616367970058
0.0825823664776681
0.0775554803382972
0.082865121256179
0.0818649705334137
0.0790421973945426
0.0797499421267311
0.079227949467942
0.0800571979104096
0.0787715416898318
0.0801198856516534
0.0806767626013751
0.0779371995393213
0.0779416935678479
0.0747547240579505
0.0787047892364224
0.0782896493547089
0.0735959746374671
0.0772634220548465
0.0761499271561391
0.0755426676580189
0.0740613373952204
0.0771269684290086
0.0712856792858966
0.072394305024863
0.0779089372554091
0.0736314231978745
0.0770330325730372
0.0733019955504484
0.0785682869654984
0.0738640449634039
0.0736430335067615
0.0774866864249677
0.0760433050991042
0.0731067688403468
0.070675700127877
0.0711135208268577
0.0751017847654669
0.0719834107714452
0.074648964061899
0.0721049897110637
0.0722360069473984
0.0721509459532761
0.0706110033749154
0.074778285230882
0.0700858196970976
0.069997914117683
0.0702731348310958
0.0713043606627524
0.0727721895019164
0.0694058985253929
0.0679288781584143
0.0703252519870919
0.0697424066568758
0.0698633788426176
0.0681098213346399
0.068620553703376
0.0704867490765291
0.0679536531740454
0.0678870833261261
0.067619402516346
0.0683317118328114
0.0715672203742065
0.0630577458093372
0.0617948768512169
0.0670614953011924
0.0638100223088655
0.0666756035550719
0.0657089159921552
0.0640933622155487
0.0645414798482269
0.0630582204957335
0.063079503824011
0.0654575742046421
0.062930271408354
0.0635490379144625
0.0653751848602847
0.0686924834596205
0.0666023595848207
0.0668399882056062
0.0681045418508525
0.0661952339739653
0.0638974793757796
0.0678982626009011
0.0620761593725222
0.0630624573523344
0.0626573529807727
0.0619857170404794
0.0638733391544121
0.062469879126037
0.0633330530010186
0.0634413877906848
0.0626413770084107
0.0607388527287537
0.0623555204293133
0.0588683107790554
0.0605099517552758
0.0589869496163657
0.0602134824439698
0.0627870534433054
0.0635668050224311
0.0642037973545673
0.0617480115119509
0.0626676028907629
0.0624634878218133
0.0615650913494156
0.0633631966923754
0.061942648194502
0.0643094661818945
0.0592055456941875
0.0604932172124373
0.0656202137737564
0.0610541283484592
0.0642993527439218
0.059126263006933
0.0616496572156329
0.0594340239617659
0.0589210446970321
0.0604709370774094
0.0624086889546999
0.062349267939509
0.0604328440174642
0.0587651606417346
0.0595986365578148
0.0605743976624486
0.0591856172872538
0.0585526067045028
0.0586211942790272
0.0577121464872253
0.0587481349072448
0.0575884111376158
0.0570326959629178
0.0580841734792679
0.0582121811948003
0.0561501528195281
0.0577686487482863
0.0590386087393186
0.056779962446003
0.0548736355054923
0.0545022335388605
0.0577169715104531
0.0575566882160975
0.0574351190421196
0.0576547001331841
0.0575832720870464
0.0565387835153518
0.0593849964671452
0.0586874645444816
0.0549038627339163
0.0555071770335278
0.0561927349543893
0.0566453062532946
0.0555378649419372
0.0576061005209879
0.05870844166728
0.055447488738201
0.0530989361295104
0.056750187383292
0.0572488989352482
0.0587970829636434
0.0566917897664983
0.0555719004867332
0.055140897646061
0.0543008665631276
0.0535988169501254
0.0546556390209608
0.0554513434993859
0.0563377573088693
0.0562436212605997
0.0553513321895353
0.0540010451516066
0.0553646796309977
0.0561941274798707
0.0544449886341779
0.0521961742558558
0.0514937864304628
0.0530888576122042
0.0547356817151127
0.0556887044539178
0.0518552437488188
0.0527041815217687
0.0571217533705582
0.0549053225028311
0.0535760770604563
0.0567479274623157
0.0532799714615889
0.0529498796899973
0.0561144120264645
0.0511133061547909
0.0526111173819178
0.05038519481822
0.0553155931199364
0.0512725159071881
0.0515329782212521
0.0510651958278314
0.0510713006665261
0.051189722892985
0.0495457541328689
0.0470657078178864
0.0498452529131216
0.0506543049881981
0.0478270160830981
0.0495666913087198
0.0466580323419575
0.0464675794473651
0.0496254754350767
0.0521512324960021
0.0512092965160216
0.0494755175163442
0.0500788015710185
0.0463896095931522
0.0484049011026808
0.0479860645134421
0.0506223293970912
0.0442317393195574
0.0474130123292605
0.0471380015602876
0.0494789029948643
0.0501774672917664
0.0463695776738216
0.0485896690353526
0.0464145760139618
0.0475848377567768
0.0497160613158198
0.0454776510623358
0.0502362491296422
0.0467815538496613
0.0459138032234815
0.0503522458781752
0.0497986876355257
0.0450477410671824
0.0457649842227726
0.0458875988730065
0.0467187884289001
0.046672975896824
0.0516767521638519
0.044537065050189
0.0477065733720866
0.0450605568633836
0.0475206708447636
0.046701203156742
0.0462660330840426
0.0432879810461867
0.0470337714778444
0.0459739402172338
0.0439638530408202
0.0456892039676363
0.0459643462395925
0.0447945114591902
0.0461160133205553
0.0439882827623927
0.0447909945804412
0.0435492241885385
0.0445535384834805
0.0407913322574191
0.0461181598517637
0.044854393923076
0.0443746684817589
0.042957526796808
0.0441592056315297
0.0413953170901583
0.0435366722841022
0.0411581061601767
0.0421779269847279
0.0409260121173299
0.0427834523692883
0.0410723197822568
0.0415205491764134
0.0406238719448815
0.0397039140398927
0.0431536852988311
0.041058603950998
0.0410967036587075
0.0422803458172271
0.0393843425119012
0.0418975940835496
0.0416654192143494
0.0411386381869979
0.038087395671075
0.0434280231026881
0.0416988627518806
0.0430021537121252
0.0391605880009289
0.0450470834955666
0.0416681879346935
0.0426450095785531
0.0422046453770141
0.045047367984554
0.0451703572451184
0.046388384867335
0.0424890219115882
0.049795799748445
0.0465858519588034
0.0490740225243073
0.0484502505225738
0.0469361064768319
0.0463860560843121
0.0525290554134773
0.0467447985976983
0.0561885931451058
0.0509829718637419
0.0544200352829944
0.0456328973959063
0.0486863129792524
0.0436385194819469
0.0525190220574798
0.0447130229646721
0.0554383356068412
0.0445823501317154
0.0534663875062598
0.0384409366334036
0.053096237076066
0.0403802267852356
0.0499978611337828
0.0453528478994005
0.0480420126743961
0.0423690772047755
0.0533593328696612
0.0435989877744569
0.0573612563397442
0.0418804670130239
0.0530372813718749
0.0449176276456956
0.0513753853934851
0.0320395293887381
0.0515475717473426
0.0313058813156333
0.0510940282784037
0.028321986197898
0.0528289114000852
0.0283336713486255
0.0564623632540341
0.0247837692242496
0.0587924733015512
0.0244108290322826
0.0623708240704302
0.0263047569703403
0.0642741474592007
0.0279037360173507
0.0616182183721733
0.0187757557660557
0.0664863263054844
0.0205208947480675
0.0731294436945669
0.0223022690490946
0.0791341325379805
0.0202222906016254
0.0699119901536256
0.0167299509242381
0.0774926095745165
0.0251843976053598
0.0663263955951683
0.0265736187127426
0.0669412992384787
0.0384676873866484
0.047043442850593
0.0470030073411015
0.0440663541402372
0.0565784743674239
0.0240927132776908
0.0703856354123371
0.0219888308614269
0.0724727278330912
0.0204067016162761
0.0699394883954599
0.0247696463804891
0.0638400232989187
0.03291564476616
0.0482613554974924
0.0414090418707274
0.0417752545986079
0.042980360507693
0.0368818444910147
0.0418136598450722
0.0406897791141475
0.0348872718564735
0.0418839888251807
0.0333600242886574
0.0439228337950122
0.0322600136067534
0.0448105479831262
0.0344649677014292
0.0413516601865489
0.033746784268392
0.0364795943509214
0.0346115201434846
0.0400754709191839
0.0333338206590302
0.039272160019652
0.0341011889753359
0.0409469928432033
0.031235291867738
0.0372163619902245
0.0351555392560881
0.0384619887968367
0.0329029456673576
0.0355426880570335
0.0319508763893659
0.035501832481869
0.0345162015989939
0.0376223507573339
0.0345447861007915
0.0356785815604505
0.0334556109903495
0.0383377243801638
0.0350716915640045
0.0383482775436278
0.0357008115292421
0.0377058156742767
0.0356399322225295
0.0389064990663194
0.0333617554889104
0.035469235751251
0.0338272183818239
0.0358014104463958
0.0364283935754913
0.0358218789980272
0.0351234438284826
0.03672094190435
0.0311549392100521
0.0384278017364506
0.0347773929349431
0.0367907655397731
0.0330776826172637
0.0361915649930903
0.0334642059025597
0.0357705654450474
0.0357790832707862
0.0367233409409118
0.0318423428224541
0.0383999107143657
0.0316527902227247
0.0339032515427847
0.0314590622434436
0.0349176432654965
0.0338706600305372
0.0404018447667248
0.0348334054276668
0.0347817357818541
0.0327482076387942
0.0366971761416313
0.0311311056547189
0.0324379743557333
0.0332155277449966
0.0362520742645227
0.0332287496559854
0.0367518493272113
0.0305195326592828
0.0341845004967185
0.0351808169917727
0.0345314177622452
0.0322494672021349
0.0381438198554773
0.0335180279402438
0.0353522174941644
0.0335738031555149
0.0350431340430109
0.0316826486722667
0.0346528686842228
0.034593328434711
0.0343329913962484
0.0304934860074953
0.0353031080339979
0.0334948663888394
0.0336335780150995
0.0355513828387023
0.0336364739544761
0.034080517238188
0.0348791974874044
0.0345253724977526
0.0346636420209769
0.0339937080631066
0.0376989461058389
0.0352167564799815
0.0366741198173548
0.0326117201730537
0.0348200726021243
0.0346419909260784
0.0354045872106743
0.0321890442238763
0.0341502370137457
0.0342723703579372
0.036616912880791
0.0342168790792116
0.0340245186936761
0.0348226217719416
0.0355895734260039
0.0341654510374553
0.0330087805884262
0.0315365792372736
0.0365055719750619
0.0305900342765957
0.0347313007102707
0.0363588998127139
0.0364926818969991
0.0337543002801033
0.0306225310068993
0.0327137716249485
0.0357131960801771
0.0343327640247919
0.0335849354445392
0.0344249814893517
0.0344821057333703
0.0318976402597232
0.0353537670421855
0.0316941140253051
0.0358312371728587
0.0327189305270101
0.0331176375099553
0.0314603458888269
0.032658172803809
0.0321901196899395
0.0341047961085077
0.0326972409095053
0.0346575058216457
0.0342108557611251
0.0344261445827608
0.0348320153522579
0.0362318171134273
0.0335084343263614
0.0336718030315272
0.0343346622118851
0.034573643625115
0.0317500255725543
0.035563076707459
0.0336530606910979
0.0331366415923145
0.0338839676153056
0.0349590985643723
0.0305711299162023
0.0344115131920711
0.0346635805157175
0.0340407423649098
0.0350341054787841
0.0366496114488965
0.0324367354422676
0.0352737143329617
0.0339019136182081
0.0333983374239732
0.0346199422167892
0.0338802400350366
0.0341993144735536
0.0358183554726759
0.0346758210786141
0.0354684189112705
0.0333602361334519
0.0342558182097631
0.0306256481248902
0.0330733229917568
0.0329237333044907
0.0340572818615128
0.0347904404527092
0.0324403162965818
0.0347599667142004
0.034692052192556
0.0317761307207775
0.0331671821524511
0.034246664711954
0.034726731874511
0.031481257993211
0.0337947701105429
0.0317869419759682
0.0324757155089385
0.033160648201365
0.0320799412753734
0.0335899635942441
0.0341561302609697
0.0315386141122483
0.0319437366449695
0.0314676222575156
0.0331447037507718
0.030588324518972
0.0330222485623111
0.0317565659046318
0.0320337075349115
0.0313802050260408
0.0318204025112228
0.0342133422679431
0.0327613179059649
0.0328759444575806
0.0324654840421584
0.0329074143191935
0.0346387784532345
0.0343271630964127
0.0335164161481871
0.0303553603478152
0.0336262532605165
0.0312044991247692
0.0317446730069616
0.0331435126091588
0.0323186333814795
0.0350564379513848
0.0332394355588504
0.0317010959341847
0.0326170369459893
0.0305903885014422
0.0309038382149378
0.0302585229406052
0.0309536491038494
0.0319252506318421
0.0332394082006257
0.0319211306153892
0.0336291345911137
0.0322539314038655
0.0319779554820155
0.0335734644455717
0.0315711708885879
0.0322215723454204
0.0319298970054515
0.0294572313199042
0.0318289440454596
0.0313435196386936
0.0314810668441009
0.0319751585557329
0.0319514760177361
0.0323580962201923
0.0305594924960011
0.0302275178426382
0.0331230403749512
0.0306050376072764
0.0326722038531943
0.0304554545921553
0.0305532975228302
0.0311586341336528
0.029908430982506
0.030205781084849
0.0325129104945993
0.0286922741594827
0.0327959097009479
0.0348316564292305
0.0304012024304626
0.0327244316345851
0.0320119749157371
0.0294605583953242
0.0309541668263093
0.0298999866587235
0.0293358518694421
0.0293302656142831
0.0307412424429362
0.0295888010002909
0.0279196821726536
0.0325278741297903
0.0309332668596401
0.0288260806964948
0.0293652441309796
0.0312355105781726
0.0322186250310118
0.0306778508051643
0.0299170094127782
0.0338628476704225
0.0313071221663428
0.028792588738066
0.0274088936386386
0.0301931924124985
0.0355799161558313
0.0319090672688925
0.029812463811795
0.0286294328410367
0.0315279973039686
0.0296059881419347
0.0289276469739493
0.0290446374516896
0.0303281773826292
0.0277715533493168
0.0307237251699182
0.0306786886297662
0.030868163295309
0.0310874917925372
0.0302721264077878
0.0297218679576906
0.0291904890441738
0.0267898142004042
0.0296102750657415
0.0290541487093339
0.0300619155680826
0.0296533745324768
0.0297020580585037
0.0257635407875663
0.0301475921122825
0.0279280600360956
0.0357054770316306
0.0330406654296788
0.0287957432792343
0.0304695272397957
0.0255647950203516
0.0267819861865439
0.0248233801686729
0.0283596586524517
0.027889379941884
0.0287826970257189
0.029247268707472
0.0273753020382205
0.0270822037258227
0.0291342466145941
0.0277647083268876
0.0273529813200067
0.027622695912256
0.0279639646902039
0.0245703941729348
0.0285455540485985
0.0279832339303833
0.0266347558195643
0.0244459367106702
0.0260490342636887
0.0283531046597391
0.0286139856809415
0.0286957407453021
0.0403523254820886
0.0260203509395246
0.0270315675508735
0.0288482248047428
0.0315434127241397
0.0279250757646436
0.0307977906764574
0.025314967473837
0.0275857090480066
0.0270142717955542
0.026890765852531
0.0242609310479029
0.0266621578853196
0.0253873200708541
0.0261936038355187
0.0261534324406292
0.027262493415803
0.027002506145436
0.0266500018216569
0.0267192421843709
0.0264661457457278
0.0251679978786382
0.0252606527450855
0.0268028445208409
0.0289610649429606
0.0241502969162283
0.0347526229125034
0.03079064346901
0.0277972967504688
0.0269233998298358
0.0256294698769603
0.0256987854998357
0.0236497217608375
0.0298057016697558
0.0271655008235482
0.0268006653720842
0.0257159054002598
0.0240365913904441
0.0261980695761159
0.0262054545840547
0.0279030261078438
0.0251815899838016
0.0238542392419425
0.0241531354635018
0.0261795843793056
0.0265109509016046
0.0276943694748542
0.0257222087544922
0.0244547783893521
0.0269641733277912
0.0271050961467938
0.028908897809392
0.0288431013242996
0.0513792921158841
0.028685958976085
0.0286828810219101
0.024070902461544
0.0245705601927551
0.0246448932355781
0.0237629962316392
0.0244385203303535
0.0254148849463205
0.0252432002548986
0.0244373291510061
0.024604792210828
0.0248024460604391
0.0249450514257634
0.0237238794989285
0.0220612767123781
0.0253525412973096
0.0246047806430423
0.0249253624133635
0.0234109911411928
0.0288209742964704
0.0387770410124121
0.0329364033402739
0.0218527313773541
0.0300093562063632
0.0241713323677838
0.0425467748204395
0.0387429953688544
0.0207407278532447
0.0309911292689996
0.0209636080153069
0.0264051592795701
0.0219540090159886
0.0288691277776501
0.0232600685566615
0.0371119054530882
0.0240980841801329
0.0308564950126095
0.0254666642833882
0.027111522692859
0.021894183589428
0.0261641972516155
0.0232945506785345
0.0239336412813183
0.0247052216239252
0.0231976543426238
0.022920963473529
0.0252512155889392
0.0231772820193179
0.0275639157571907
0.0234231280573481
0.0372501435970466
0.0238661034917635
0.0267732517510335
0.0219078190390282
0.026556512455563
0.0243476100236565
0.046457385899983
0.020885741581556
0.0256334147369269
0.0245058993735918
0.0269060305707021
0.0252463608993889
0.0263145451712037
0.026519894514076
0.025429738416348
0.0228579439712905
0.0268910713750466
0.0243728047033562
0.023686100193526
0.0258733985140783
0.0245184001036435
0.0246648943945845
0.0237209825401763
0.025738972713183
0.0251290135017775
0.0280007268162664
0.0284306786997681
0.0346429556706826
0.0563770497592152
0.0349307812976172
0.041154614269046
0.0284857703641702
0.0324081895833181
0.0199740157436848
0.0284807668241814
0.0212212052354437
0.0294514617509577
0.0227487534079112
0.0279914388044645
0.023902477938919
0.028437667140458
0.0217457973991566
0.0268946935848821
0.0187962468441844
0.0277566244324302
0.0220666933514584
0.0260053271769578
0.0222398706550575
0.0259412679012971
0.0211332960707724
0.0342616018918268
0.031958291873294
0.0279082661140755
0.0290998806086709
0.0403266102027585
0.0634784276896113
0.0228292180991367
0.038223324380473
0.0240970948686786
0.0251483998796538
0.021761496612294
0.0266314099354159
0.0302273951300016
0.0272198756462554
0.0225859063138272
0.0251935174792402
0.0248530176980954
0.028516568194123
0.0260596167755292
0.0348358976011343
0.0566616398609928
0.0379402786720964
0.0247693102186389
0.0310919308816318
0.0306051504105024
0.0570601735704048
0.0285783907951114
0.0244029243342705
0.0321995488328316
0.0233921406192165
0.0258950490619938
0.0223473625897181
0.0265001242169022
0.0271807637522121
0.0308460840121138
0.020985111600106
0.027074303441908
0.0201756273292671
0.0281971904594132
0.0321767524069165
0.0374518294914532
0.038188608523406
0.0278728205940631
0.0273906046060577
0.0328581865383289
0.0191607148852748
0.025960119772995
0.0232564640628547
0.03214331640963
0.035757215585542
0.0464978451791593
0.0309871087558131
0.043534687677668
0.0406091447833041
0.0244644225687076
0.027943658597488
0.041376707002069
0.0288944590532196
0.0327459163979089
0.0225395437657786
0.0724810914906485
0.0414708208085591
0.0511037698593641
0.0253354868162384
0.0306909621660427
0.0259762620841948
0.0267767704854174
0.0264191848700721
0.0425945575974614
0.037511547684125
0.0195449020544631
0.0331929953608979
0.0304327712258819
0.0482018010266677
0.0289057574241925
0.0366942955724395
0.0265631232572179
0.0349844610274352
0.0351382099321402
0.0397160612107642
0.0233399748277115
0.059740316860804
0.064725435288095
0.0440354848201244
0.040462185712836
0.0234124144816625
0.0634464576922583
0.0430307015431031
0.0250933327819131
0.0318944502414108
0.0251784016707934
0.0331558045455395
0.0313696350580027
0.0624975504887651
0.0413302365360638
0.0253203158899712
0.0377819826146677
0.0308927729033538
0.051423958100086
0.0470905273954995
0.0268779021837319
0.0321607931836784
0.0338061163933727
0.0377891703918946
0.0561365108758784
0.0700359699336599
0.0328474391045819
0.0781536867224714
0.0459255566976462
0.0519693153717341
0.0396340981793775
0.0452618992893164
0.0475742313470009
0.0610096356714482
0.0351855188611223
0.0362005466111049
0.0458677920776394
0.0686750802528974
0.0374941470947086
0.0381043980909503
0.04024626967096
0.0354830892625587
0.0760655791816992
0.101930676490996
0.0660693027205542
0.0480521630257817
0.0431250623677228
0.0626375758367702
0.0489652935755256
0.0360908261401333
0.0398502391968177
0.0352788884100379
0.0368188125741032
0.0400696015624145
0.0465253926509471
0.0462758626011095
0.0404120304721617
0.0477616020294384
0.0416017302643464
0.0751206086071909
0.0861295547173259
0.0852087149526743
0.0623877292308636
0.0743925666968285
0.0774931136254645
0.0526494878863096
0.0510916392090741
0.0416210837673229
0.0593848143088071
0.0520286045272437
0.0468889226375344
0.0528281575579584
0.066387318890402
0.0766673442935672
0.0599556022174129
0.0782339080549515
0.0563210703410068
0.0658840487138691
0.0656497158228718
0.149354500853448
0.110309732751013
0.0616792716257142
0.0955089919062339
0.0579448538808387
0.134974551367668
0.0793797473618955
0.0719568172552677
0.0656922108768772
0.0729450548745878
0.0756063734031004
0.0860824210102058
0.0834654866472647
0.0954601934570266
0.0874053388579143
0.0920668907773081
0.0919083073627287
0.197712929596087
0.147544542751964
0.11970921967934
0.0955390227417256
0.12450783284821
0.112820402055354
0.111325951158704
0.0972138872669568
0.11516896905134
0.108995278465365
0.173112726837004
0.120732066577646
0.120261604374117
0.127535205202692
0.141157123541261
0.133386702438929
0.154372009114183
0.173367206207981
0.12761488052194
0.142398702298145
0.130744783037256
0.142398260073981
0.136809265160213
0.164880915852079
0.171822055269694
0.146990209915191
0.152427077506304
0.149596678524385
0.154639535412745
0.154683423164768
0.162384913061318
0.158343289487485
0.199032108275455
0.2249846520807
0.257062026343158
0.210703227200474
0.160615300289972
0.171285519833698
0.167842788770295
0.191539923182196
0.202327853704235
0.198377056276305
0.199161125105203
0.157630963766524
0.164183163573203
0.157811503936321
0.160290061009521
0.162611942551243
0.163420682634534
0.165892059419302
0.173012371094948
0.187807851627838
0.175356275577988
0.224601335116118
0.169296456721471
0.159164310192229
0.154873701267017
0.155711114970541
0.153531589219466
0.155713267484067
0.160249142319944
0.177307915948252
0.159336907792201
0.152370000581263
0.15778017619211
0.165431494567847
0.177855051728651
0.147089935392376
0.151885828458646
0.148121683708521
0.141379093991118
0.146503512083658
0.155291802920044
0.184832482293829
0.153427489514702
0.13327432157188
0.140210609801995
0.13211555290185
0.136320937629796
0.133173179191971
0.145999058213677
0.137165032297295
0.136551867484419
0.134236365703119
0.134342713069267
0.129185019960606
0.138463023029907
0.131177333373066
0.134184616376011
0.130583389491762
0.132321289957742
0.127443927948927
0.130810137381097
0.12492322955586
0.130221352849307
0.128960464775648
0.135813967586027
0.132084429931577
0.128052730266239
0.128069662143884
0.129507310981636
0.124750762958696
0.130329292416746
0.123792978907597
0.128345671360193
0.122940340466976
0.129294558019631
0.126002824416396
0.129325419136563
0.12464366422466
0.130960350564238
0.124376264723263
0.124096681940629
0.121571808552338
0.128892119266021
0.132465619441934
0.154757441943739
0.153366836925726
0.119256568202234
0.121910830506287
0.120829766837047
0.119079839836158
0.120457335796972
0.152948635406886
0.151623951846818
0.122657263540017
0.117959911845961
0.113396995527964
0.133036047142293
0.124271242065125
0.117502471673281
0.112592152514757
0.12271208067687
0.130818962291231
0.195750133264209
0.169750834321057
0.203036367147023
0.132031054230509
0.119539878579581
0.128041552409995
0.145265501269948
0.116052253154523
0.105626529920717
0.110567463962542
0.139867757205728
0.127599322081385
0.11077737039695
0.107693828816896
0.11142316269683
0.141062474400833
0.145392526777471
0.131993302030713
0.13652474737508
0.148367126220318
0.150781521553663
0.169504000111791
0.175143067658899
0.133745752893559
0.110149537277334
0.104999685523562
0.10675906542112
0.113937836869343
0.147152748098165
0.121870557936625
0.113815614064656
0.102158955813536
0.0943075936585548
0.103961852676508
0.11562773331426
0.108600252637395
0.11933354953588
0.131295897191428
0.103207831367718
0.106352812863071
0.133726163654655
0.133586466179103
0.156256451832666
0.104471014205358
0.0995292108479122
0.135753784753062
0.147053978961816
0.112404407035852
0.107781068230259
0.0871390681151
0.0979716111263376
0.10216542092286
0.0982986829624397
0.105156170751715
0.116508038765145
0.124986190955719
0.161513812997678
0.172550164927234
0.14594358581241
0.100345758765915
0.0792289015768537
0.0778252526926041
0.0866121804172577
0.0806362937670168
0.0835657117798689
0.104408391484346
0.0990767840398751
0.0858596955297103
0.123902976647303
0.0959919769124857
0.0826808163415199
0.0783260849148522
0.0801358223967505
0.0844293196064957
0.121839220363107
0.127585296331817
0.109795646797744
0.105143415241415
0.115265997354586
0.0937039601479851
0.0910517412187045
0.0879595387107638
0.0912773077272556
0.0997292607786223
0.106982649581512
0.0985283414724695
0.101651104496451
0.0989490759928907
0.101501283890066
0.132121565990101
0.131686839119305
0.118385900951852
0.144247928294089
0.152886914822305
0.168913889295813
0.136676948028377
0.124064398031203
0.120822837262244
0.124714180124632
0.127083009239643
0.127320756347073
0.143218574798459
0.158765655898902
0.137365776060448
0.133693180699871
0.13080537817871
0.134836432359406
0.146095411870707
0.166014026077937
0.178142016074729
0.197250248453165
0.193875268112855
0.177083473528838
0.159561204365369
0.151803820476832
0.156223923424897
0.154638679200547
0.150080205165008
0.143357850084186
0.155516935173117
0.173308419061504
0.154942656838056
0.156837544291565
0.150786612454163
0.153625407785885
0.151677103997733
0.156861784560429
0.153603003904179
0.158676262975534
0.15886785977377
0.163568908194239
0.169589426377077
0.227393999296978
0.183955129244431
0.167739075230434
0.170248198783671
0.179904903127793
0.167380793436575
0.177334126515133
0.191096220658804
0.185093942478931
0.175518370642006
0.17705571865428
0.175621362846753
0.17971317259756
0.195110616874024
0.197535336406646
0.183056672700347
0.186732905916713
0.181383102651171
0.227217407685175
0.223797092915176
0.207834453672247
0.201547957608623
0.199511232974513
0.195338732956753
0.19369117050891
0.187027042719311
0.191795123240889
0.190481079055601
0.192392870470093
0.188705226466422
0.191953962183324
0.188051760604062
0.184935864011351
0.196042598545886
0.210981506661464
0.193216175337363
0.188087636332566
0.188642642158466
0.187210413352791
0.189333506580914
0.211564658499099
0.209023619490101
0.19544077437741
0.193362816154707
0.209764388452343
0.216990938631742
0.207187684915052
0.186238237198073
0.186267347344608
0.182014316936555
0.189022104178557
0.179214136771951
0.206120063775696
0.215624100244974
0.1989468070778
0.187347987470182
0.188418898429748
0.189391432610273
0.193472248026616
0.18847748066665
0.194234056627188
0.193471492374537
0.195885768213629
0.1955116939337
0.192184976927479
0.19207151616642
0.206882434013872
0.215039043780578
0.207435021837577
0.190660592053717
0.189278622486075
0.18815449835272
0.193534830540009
0.191942076407746
0.188563439506123
0.176791534170031
0.182750460666467
0.175920562352204
0.192221811306932
0.200382838583597
0.186656040356242
0.191974665026458
0.17729795149245
0.170719356423038
0.173760456734547
0.17043538906853
0.16563807874794
0.166776669542493
0.172605799219111
0.162335894318085
0.162102158078992
0.161977511501636
0.162739359528343
0.160861075295901
0.164741017126287
0.161707416762604
0.158396097203767
0.157140463245594
0.159607952843355
0.161287425532137
0.159463443449881
0.159161245463066
0.160798673836127
0.178551456192071
0.176255112141824
0.176747562913745
0.16207635987368
0.165807032966951
0.162341355113134
0.156725677144508
0.158162827673459
0.152830784525358
0.156951749461671
0.154401424880438
0.157789803783953
0.156517055304473
0.155507147520178
0.154588094255249
0.157439589319528
0.153843397340356
0.158622154522471
0.15621180212647
0.158155805520277
0.152674706717278
0.158098617988133
0.155753978293998
0.166984172651679
0.157885845618969
0.162394688614756
0.156455576009575
0.159713923222894
0.156046674024188
0.159099474886653
0.159883681261557
0.157761590098806
0.154873243223531
0.15432586485529
0.155956279486558
0.155459772629732
0.151298609630998
0.153679105698802
0.15284853084754
0.153135030122612
0.150901516827453
0.149138948295738
0.14942600764334
0.15134132763685
0.144595734078858
0.147901533013335
0.140539230962117
0.144843476995317
0.143264295324365
0.140343993937664
0.138770916060751
0.140524446682095
0.13526571244149
0.138193364643942
0.137229136105264
0.138458177629013
0.13539009540888
0.13500011815977
0.132492873750142
0.133949766188806
0.131611512189536
0.131913952590072
0.132648674349742
0.132407614756087
0.132846849467346
0.132530601596191
0.128930155500203
0.132725910700585
0.132075915343322
0.131877117662814
0.130963643692092
0.136524982316766
0.137597641198096
0.134312210079186
0.137041935720976
0.137673081066456
0.139162230137013
0.137497345665525
0.136979958429115
0.135917645218028
0.141185931795547
0.137981563276727
0.138686490858788
0.140278332482684
0.138039062990844
0.140304088953933
0.145877086535728
0.140149319055621
0.139737932806177
0.143430085580578
0.142093091913405
0.143340375332932
0.13909261027496
0.142185750477927
0.139046562368619
0.141589153537728
0.139921409897651
0.139814310015388
0.137632787325775
0.140729221032668
0.138702573097389
0.141067350566306
0.13744291294923
0.139439498390798
0.136057026088549
0.137475842841585
0.13435927351267
0.136213888361866
0.134237730111902
0.136513118155726
0.131823620932524
0.135106012803013
0.135608514871571
0.135406403150709
0.130613377518783
0.131545682821297
0.131405524180736
0.132834010918666
0.130096289682465
0.132605694131017
0.128482052932417
0.132454320141779
0.130091481705585
0.132998909924023
0.128666793947118
0.129722189054621
0.130022306604966
0.130575872181386
0.127364217035577
0.126696597539123
0.125350712728586
0.126668437733529
0.124318832314701
0.124933412189779
0.123784074587983
0.123707878974555
0.122084642246041
0.123081810651897
0.120507877938767
0.119961680092552
0.11670405274208
0.118201889850909
0.118098153380332
0.11895851295949
0.116152450412826
0.117886255117831
0.116729962352395
0.115389708537751
0.115865292585874
0.114681956160619
0.115185559665895
0.118630301259107
0.114228709128112
0.115215147235058
0.113437159448113
0.114293107179743
0.111870814972797
0.113248689111433
0.112012108154312
0.111776658031985
0.105934366899913
0.108167775723576
0.106094447197377
0.107675446031471
0.10471556776943
0.105289547956595
0.106255406286164
0.105085858940227
0.107048105603815
0.109523236592877
0.110907399904204
0.115374557289309
0.117993495086866
0.124165997339801
0.125123688535319
0.131232882167453
0.135823924933779
0.145544840861344
0.145472661270295
0.155447418590997
0.162700239332983
0.167736478707816
0.170594602974667
0.178554818686414
0.184061120447686
0.190978378124585
0.194477924655187
0.201056530595245
0.206968347203215
0.213987513382735
0.215574140886672
0.225314262556884
0.225613677001213
0.230060101458827
0.233520623523556
0.241385090709079
0.242079217530524
0.246936556185359
0.246176648089126
0.250813067340976
0.25194239915241
0.256539302606914
0.252497553228803
0.256610789976047
0.258680363945444
0.258371423865349
0.25693505480206
0.257877332829864
0.263311588315923
0.265573669383499
0.259766102620834
0.261089970624732
0.261002485794488
0.259973540736005
0.260252096679881
0.264295154707704
0.266885366105731
0.267374325817915
0.267286555690378
0.271551099752442
0.273184103856054
0.279172845249659
0.276492864896935
0.281235358174132
0.280687267874253
0.28412071927291
0.287773673610061
0.291118320955949
0.294003946061733
0.29796586664752
0.301377826822449
0.308213855221872
0.308922024372271
0.315315232676204
0.318168233274417
0.325479392777818
0.327491434517865
0.330934960388665
0.3311220274725
0.337481952494896
0.33726921393669
0.340107057004627
0.334673646960145
0.340116869248093
0.336567438449618
0.340141114138012
0.335215393778019
0.337367517331752
0.331248325221507
0.336435016549436
0.331470833401665
0.334814902011185
0.335288200287049
0.342559268402686
0.344963802856684
0.351461803572962
0.352184619320399
0.362146210479146
0.369650397057759
0.372953260709105
0.377210260407872
0.384943008054894
0.392524363514021
0.395463304363226
0.404845690487126
0.41312772028521
0.420908481428128
0.425796649191201
0.426912126321625
0.4353880466265
0.440514783735188
0.445996313768925
0.453575013424482
0.468125253784293
0.468755113157769
0.47943746597462
0.486764867230718
0.492680074846935
0.501947936748451
0.508018645577131
0.515553273936466
0.525126409257039
0.526312180264438
0.536391369636818
0.540266590947705
0.547265503897336
0.554167735773899
0.556415586820842
0.553476644976838
0.559490320636141
0.556124537002273
0.563720726791262
0.55813051598616
0.555614566395335
0.559246962260846
0.550388742887016
0.545792140491209
0.545947988025855
0.541663349603471
0.543149296778769
0.538178559392418
0.534974630522379
0.534816011172538
0.531440467951658
0.527541005726292
0.538057111965099
0.536286432326205
0.537527527486139
0.545117489044944
0.54398624431263
0.550921078550945
0.557184388558975
0.549355739905309
0.562572426043462
0.568464357901732
0.568522945422666
0.571401962640119
0.562276624385387
0.565037471418925
0.569874519140004
0.566062731519527
0.568088291869215
0.562376921147915
0.569158544455027
0.55863603185528
0.564473956491238
0.561903837208252
0.557165427191376
0.55861974214261
0.579106077809624
0.581615504001082
0.564387330381154
0.557406669737307
0.547887383774976
0.540837642160165
0.543111945539563
0.531108341567909
0.533512774937656
0.52705370928221
0.523850967879853
0.514759182435218
0.512086914706475
0.509258325169191
0.508028854659502
0.492386589553461
0.49372513420558
0.478654968838027
0.476606342814053
0.461955587465254
0.45054650578067
0.439854235628974
0.430977593615197
0.410272609555321
0.398684706371084
0.383723674977782
0.369791373712989
0.352024318579376
0.342370379811235
0.328891076600632
0.317767687898722
0.307000421831296
0.304572826010191
0.290803553809342
0.290950087237676
0.283564822696554
0.278869607490643
0.279207051932913
0.279064848656167
0.272113693652554
0.269125037534833
0.272978762957727
0.264114883364774
0.263149398492777
0.253309811105693
0.254662864084488
0.253328777309981
0.247362302636378
0.241493152233964
0.241092149683925
0.234142436504701
0.226833173904743
0.223312063121414
0.21522781995377
0.207846887894892
0.203573792112076
0.197276642326072
0.189114472446409
0.184000322450553
0.173070607493058
0.166102182689519
0.159417546868472
0.151093913777583
0.152631954043185
0.137847376881267
0.134876630066263
0.129617617280143
0.122397179501124
0.117065375149655
0.116674714984352
0.110490309588516
0.103858341217012
0.102454384291774
0.101284692024069
0.095752227315618
0.0937700273477307
0.0917202715347743
0.0901480443842151
0.086114549152503
0.087042179802499
0.0856077111177525
0.0877950738367243
0.0843626459910379
0.0861882303722863
0.0809857281297774
0.0834594210143441
0.0813046953279379
0.0825103053301949
0.0856566586351479
0.0901777799357212
0.0836472904485832
0.0829512852305536
0.0840628334864379
0.0860467084009822
0.0857519076945202
0.0901370594185772
0.0844010123354251
0.0872977890583283
0.0824764770815851
0.085166335399615
0.0816435086171342
0.0831452888595391
0.0835095003000275
0.0834514171989382
0.0802704386454693
0.0826398090052909
0.07836003842106
0.08268032521333
0.0816646160737963
0.0801523721827715
0.0814975008710323
0.0849286379816005
0.0842692673509047
0.0893159113848466
0.0814918011651245
0.0845929418562464
0.0879209006402755
0.0866276054878312
0.0878609586575751
0.0905246120889971
0.0848355955888966
0.0918395954310332
0.092760228347567
0.0886567206598411
0.0897376093097416
0.0905274309987062
0.0913756216359528
0.0956629518067554
0.0935733292255062
0.0943137061284529
0.0948420076198934
0.0938374493667386
0.0966648031833489
0.0971793396158108
0.0958379329316637
0.0943447322218314
0.100493292155587
0.102286461060675
0.0960201305993983
0.101281533423859
0.105893744606367
0.108539060595267
0.106616419687204
0.112920609018761
0.114575313660663
0.118210639290333
0.118200242553458
0.127109597671466
0.124963107970864
0.125113308371997
0.12870331056742
0.131069454559871
0.129551798367888
0.1304313764109
0.123269804445687
0.127078185772871
0.122953222953486
0.119551990378146
0.114851676944892
0.114222831787664
0.117856899489726
0.116246763074269
0.117322592983462
0.108623469457366
0.109016840014729
0.111705907657803
0.111693155706253
0.113238728921678
0.112357166603737
0.110247586854126
0.112949576410619
0.114977051310562
0.113706898947573
0.117850856060347
0.106322681241262
0.105826883494838
0.101267780596869
0.104303472387694
0.0956702763071198
0.103021504932461
0.101631152728545
0.104057554531849
0.102584096594858
0.0975838055317143
0.0950423497975091
0.0981394510221223
0.0968116448904822
0.0989865469187428
0.0898258456147392
0.098566984697481
0.0901108725169745
0.0939590437763784
0.090847898189672
0.0906848403049394
0.0915824036414845
0.0960759588828559
0.0898147885839505
0.0885836705834164
0.0910143892670447
0.0887672870646328
0.0833689843024146
0.0954202187194323
0.0898376868663829
0.0889232811747298
0.084396429576897
0.0875201456938574
0.0878878652202614
0.0900008117989952
0.0756983736990648
0.0771362694212608
0.0813770667002883
0.0855905657389085
0.0822171957458804
0.0796008436009901
0.0792777943810079
0.0806597452767107
0.0828068107332267
0.083601401507251
0.0788760935890316
0.0842940373707372
0.0802284974789482
0.078229230751415
0.0773577734245491
0.0812850920921025
0.0810634510508012
0.084418279978754
0.0737809038057552
0.0755086227966803
0.0767174623547681
0.0876897239411755
0.0871953501624863
0.0822758892383964
0.0851254758059276
0.0817561877772376
0.0794949706211541
0.0887018588108129
0.0839916670038267
0.0948924431538279
0.0876536527317968
0.0882790971340132
0.0907437438408684
0.0949375095890911
0.0824164684604109
0.09205811023447
0.092810891319689
0.0868565423219427
0.0952613448002012
0.105151537527317
0.0911734976547396
0.0983517067767454
0.0995391383169063
0.109743839716376
0.106619346182406
0.113020894749079
0.112366536605721
0.12232889982772
0.114885890238283
0.121601481399594
0.134057294959617
0.140508857658416
0.138101126568385
0.150471013893272
0.136012717633426
0.142407599476496
0.154247579358647
0.149175601689689
0.14611678297561
0.151077616115884
0.153722132573085
0.160947285484726
0.149375785251992
0.155387094743256
0.147291357763503
0.149863301423887
0.155092775737824
0.149950367477337
0.146864950143504
0.132029244105102
0.1420637036458
0.15181812385497
0.13753287499201
0.142113859252485
0.144298590498017
0.146639957334383
0.132341207720154
0.144768369723381
0.138601058638937
0.150992512156613
0.133550588123009
0.138148210196321
0.127482033437744
0.12950929896409
0.128655652849563
0.145124246143431
0.13904859458106
0.12994871749027
0.143254091134197
0.117055233669125
0.127188233125415
0.12161394237997
0.105608638553831
0.116803370680452
0.130366678507513
0.133161813671172
0.117202100803921
0.115951215335125
0.119966685340951
0.144821898624425
0.119945191536897
0.138681664677961
0.121105163845241
0.131707512593213
0.124628964521868
0.133123547040659
0.127470044969678
0.135428526715532
0.122684046124623
0.146591577933619
0.124938505060583
0.126149154585034
0.139928790429642
0.143540242805333
0.134997687401008
0.128676385167541
0.124247429884272
0.147030554491481
0.124358989090934
0.140832084371958
0.14492731355442
0.144069987072755
0.106167955649994
0.137591228176356
0.115959998938479
0.153395578797293
0.10826628210975
0.162139884715464
0.141472128642496
0.139886960487944
0.110427156311142
0.159690977930639
0.167034274086385
0.164065507141644
0.143525411719568
0.153538248144733
0.152371157095182
0.173728878888911
0.161153697947579
0.184256690030267
0.146624000698434
0.165571650329525
0.158184036502342
0.189241283535208
0.181528343462511
0.207438099393548
0.165990761355212
0.168356364249146
0.16104978905688
0.176143976098579
0.18501880657676
0.205036827584762
0.174435394061673
0.168990356776785
0.15950418901918
0.171175351894846
0.175296291032655
0.204650614716632
0.139890323956934
0.181004967572275
0.169962268994346
0.20052798818837
0.144975557943391
0.191900686103394
0.159055344751214
0.174658942425436
0.148612602828083
0.173596227550828
0.162469115194556
0.157359231442608
0.16326610282704
0.220734208853861
0.16604186887426
0.231236325564632
0.157723954897585
0.122344563597201
0.0738345018683536
0.0997630829707086
0.126016071728695
0.265664299149206
0.183053341276415
0.0849574571935366
0.117199042219422
0.203206416270875
0.240021715565003
0.439869693543192
0.190956855111292
0.202980503108716
0.144238504054213
0.226008214423032
0.247749896867946
0.205872732006812
0.115863505561972
0.186602081883482
0.215294890148235
0.101871599927421
0.123250700448721
0.165560983469332
0.170673568724885
0.159481797782617
0.0229571354211921
0.159194759418879
0.157010779669264
0.158983823058562
0.352177606600988
