3596
4000.36533379555
650.420452594757
1
2
2
0.0756983708204037
0.0747674408581993
0.0802484944729765
0.0831047835172202
0.0779661149140996
0.0787521684695425
0.072785573787009
0.0753627558348939
0.0822176181643008
0.0833638210832801
0.0736322907068856
0.076540449911184
0.0736320451605899
0.071604807794249
0.0741499609166602
0.0726223341858429
0.0679426151866943
0.068868699288073
0.0730428061534145
0.06889397400332
0.0796413310969342
0.0762243434958086
0.0754412549567622
0.0759116668719329
0.0781287746461329
0.0853221141695996
0.0802011942531634
0.0782430112939781
0.0795515954714812
0.0730655999361622
0.0731571500205913
0.0825854620648877
0.0785373846736953
0.071708998937569
0.0659448684711647
0.0793865602311602
0.0798215669684382
0.0766509813348184
0.0673480611948857
0.0785645031794699
0.0881173915040794
0.0804827267203741
0.0776026964073863
0.0721819619327975
0.0781957723371307
0.0834086647440427
0.0751011456116457
0.0786233511830358
0.0772945615240735
0.0852448049255224
0.0830658984219848
0.0735453662028647
0.0815391401101089
0.0863601711096411
0.0808267496465182
0.094526178486584
0.079936391636008
0.0782286967239437
0.0789843609494161
0.0772029066050474
0.0984468884541834
0.0924712558589792
0.0719683166957966
0.0672114890215834
0.0663158094524136
0.0746057857159061
0.0743987625353569
0.0708496552312655
0.0775548564189724
0.0781989258373676
0.0695182747299229
0.0932618072929938
0.0877054366897691
0.0728162814064423
0.0809407399571882
0.0799073499280582
0.059621349933916
0.0657101493076268
0.0764196853927606
0.0827090717544687
0.0925557350134885
0.0867399568607222
0.07556972902195
0.0684941897691651
0.0815751721608529
0.0946894340435227
0.0694953952372161
0.077613084783825
0.100813643511426
0.085797033871681
0.0720647144143009
0.074108122651649
0.0707553839735503
0.0717880631073166
0.0652171456966159
0.0717405221087903
0.0692039051432758
0.0749716522134453
0.0693506630883408
0.0883332614899766
0.0688257347443665
0.106887883732488
0.104151074168582
0.087402742933335
0.125357472980948
0.0863167821209979
0.088338405622825
0.114804661830156
0.0849349160990268
0.0687945617918585
0.0687159308989082
0.0671992050523856
0.0789423755298349
0.0822980676704457
0.0712764756843936
0.102124684581383
0.0964908560777435
0.0825993311523942
0.078114775971663
0.0769486774705484
0.0496809223550722
0.109067952599302
0.106723472579234
0.0796039500000494
0.0760202929146546
0.078416280620942
0.064570151469209
0.117904614405186
0.0957531598487598
0.0736917286924192
0.062052673977669
0.0744674520882684
0.0562785601869572
0.0869506902132712
0.114137946272407
0.0773718538223197
0.0681702916423524
0.0779463264626315
0.109852263717168
0.129843654801759
0.0891198042131773
0.0701732779897304
0.0592048914777038
0.093842718790459
0.102240813242967
0.0794855652957316
0.0730061482155377
0.0914639497184217
0.070360062542553
0.067726365130135
0.0636868369385253
0.0756270585975159
0.0909755874698891
0.0799217922309187
0.0367380686240572
0.16826182061005
0.119258863138548
0.137104702788966
0.109851358208768
0.0827868171976877
0.0686012035431582
0.0821781136146835
0.0684220815093776
0.0676190230687871
0.0629750319440922
0.0731353417209827
0.095342032138384
0.0956012118609529
0.0648596555691125
0.0825494564123057
0.113694421239506
0.0838090256760782
0.0832925614276915
0.134492794205496
0.0780031389429036
0.0806258197498833
0.0979938242757957
0.0825733418069941
0.0550278847471317
0.0958127866616092
0.0908024070204505
0.0802077335947267
0.0621593618377894
0.0665250671206277
0.0741848538644083
0.0941565968666611
0.0723533021221475
0.0777818653124074
0.0694644665227429
0.072217741646554
0.0874123179450073
0.137836966319077
0.087515776042011
0.0908274396091746
0.0758886036693027
0.0644341630776329
0.0995027655385804
0.102744878366221
0.078052206353038
0.0715513447135402
0.0593164731490525
0.0726102527177168
0.0594065442888589
0.0768038624150914
0.0510469786988867
0.0635749364932294
0.105840874075142
0.0896981962837557
0.0674876625169499
0.0811264904975701
0.0739925297526335
0.0756785639244643
0.128136147086819
0.10504856101512
0.0739958894471165
0.0672538576360397
0.0591077571032683
0.0942312416107118
0.0832318302723619
0.074962309560396
0.0615461173546234
0.0720945971731872
0.0623082333811109
0.0685463267346428
0.0653209155767654
0.0701630928183649
0.06277649205583
0.0715810410982976
0.0640671605847736
0.0751344430465382
0.0833738602358198
0.0745611959569902
0.070279058367228
0.0734363884601196
0.0591186166253476
0.0881833821992724
0.083150533380251
0.0775184525799729
0.0649561099273665
0.0757068056368482
0.0641430881689468
0.0689666203909253
0.0621189327442784
0.0753142152604211
0.0481301465074863
0.0875225937401131
0.095426320532055
0.086130039211252
0.0639396510537486
0.0632858456104044
0.0947342224133734
0.0826427052905231
0.0702964975992197
0.0660233046874283
0.072189181985031
0.0566190238707393
0.0689538027599816
0.100326591200017
0.0758595229163268
0.069120815865995
0.0857214918946666
0.0726785542492367
0.0766842428942123
0.0620816155525342
0.0837413266249001
0.141056453676959
0.0781032223170133
0.0956914655213435
0.124694462912823
0.0907912807299259
0.0937590862617151
0.0635119289579673
0.066757171688201
0.211283668201066
0.124346119993363
0.0752361752206212
0.0824666209559165
0.0963570485055751
0.0662363784078283
0.0868789741846857
0.0656912394873284
0.107461057507579
0.0859089243961474
0.172076875576997
0.117011265330489
0.0717529356186327
0.107993323008876
0.0896991465314902
0.0751824388750297
0.0719469521191208
0.0718486182358349
0.0684060720565608
0.0918636907340339
0.0881989538901573
0.0967721770777964
0.0699357936405551
0.0913491589052493
0.109650735732489
0.0834960627235213
0.0711722042231083
0.0938445875777368
0.0804285709647105
0.0747119411449362
0.0734924271324156
0.0661350825567819
0.0885457349151842
0.0607961766178575
0.0898070000837685
0.117603969672871
0.0873185782394265
0.101800622077523
0.102639801982943
0.084448344930054
0.0686826116450482
0.0696284484587439
0.0741059626994197
0.0670245327674959
0.0615832822316627
0.0716721890812551
0.103616399205234
0.0700854843993768
0.0760802057098893
0.0660839471862276
0.0684543110187552
0.0710008274708033
0.0760340743567754
0.0669047394273934
0.0811503396352782
0.067044634214155
0.0652161822331713
0.107914324539165
0.105263561487586
0.0652207700471365
0.132266647228427
0.0951195524260381
0.0889691182914939
0.068448396483755
0.0754188530687054
0.0663432876744208
0.0799563165173647
0.0692974971061329
0.0838874715544317
0.0787404494928574
0.0995820926619371
0.0871663682104862
0.0859786509944823
0.0834395573098949
0.170370364463656
0.126362686421934
0.107975339527884
0.0799193481304902
0.0668899541130148
0.127680626972145
0.102597167362252
0.123200655624876
0.105067459463219
0.0806555720666094
0.0844807498245761
0.0788141765763644
0.0982735451269018
0.077167501926579
0.0921894053419735
0.0817351252701226
0.0912200894727866
0.0878138552751026
0.0964324256844072
0.072633629876293
0.111810266497145
0.126901620722134
0.102335651603707
0.0918739908760235
0.0919742361319251
0.0768892393496702
0.139185144545414
0.102792974620205
0.18337202260138
0.115964217334831
0.170265136376323
0.134614150797108
0.123611991869962
0.0972015795403496
0.0998549359817891
0.102555060300105
0.115732766748432
0.101322653929382
0.110160207044889
0.0997654655965737
0.108652901230971
0.102108922593173
0.124544630136294
0.0976452841871967
0.128403722391027
0.129251899035112
0.115222778385277
0.121068717706024
0.121317066774404
0.139848722633849
0.175350765126542
0.167854704992902
0.138492330722284
0.151761148461752
0.117034645806201
0.116377309620059
0.130237636035969
0.132264001745
0.131711205480059
0.135752861104519
0.180116674139954
0.137345364472495
0.178440787482851
0.141027204356124
0.143882701761415
0.167814080887081
0.15635516559304
0.155047488670004
0.174927196341759
0.150460398474838
0.138242181813697
0.197858500293303
0.168341905650707
0.171285455294269
0.169818111224968
0.155734931522472
0.158769599264037
0.156990515458566
0.168083531930619
0.153049951489526
0.190419805388247
0.173101625085812
0.177044926373385
0.178060237119539
0.181045808220952
0.171515327018277
0.215092431364691
0.172250455793381
0.208388758869179
0.188070609326843
0.198178452644606
0.192004105186259
0.172048040042773
0.219665497405953
0.197760565106655
0.214501545982637
0.229500816007244
0.192653741696172
0.20974500916321
0.196686223621198
0.209208309794737
0.18985433339777
0.210356717049363
0.213637089775688
0.219705600800685
0.198935100872544
0.220387825115008
0.220387894051453
0.22892484839397
0.217615069829982
0.238839847701267
0.205538603143048
0.246976946427871
0.232218178138351
0.230812827522698
0.260200467969939
0.274313346573888
0.283428470092917
0.271894618542203
0.248919172945709
0.257330426931919
0.242872488764277
0.251275408454204
0.262175741450977
0.28961920136428
0.261193676845134
0.289047365717335
0.264056083782807
0.27831849114654
0.261766396447297
0.292245850469652
0.279176549024205
0.290888314867982
0.273269654555995
0.291455730882819
0.269412892906855
0.298219393425854
0.304313534242237
0.337173382339584
0.300157482689425
0.337373737271736
0.297396514217763
0.333966275365939
0.307170658634399
0.319856814781739
0.295298476467648
0.346325168539086
0.308580738946784
0.337580791747856
0.328149028791166
0.351265278928219
0.324304891106229
0.351424432750247
0.333943895870183
0.34829860120633
0.34458887303874
0.359623273644907
0.351693707400583
0.373332041510476
0.361662585845902
0.383119746479128
0.360039104458087
0.373478126992074
0.353892274524391
0.408302475455615
0.370217296149705
0.402470038132369
0.380452684694316
0.404673910519646
0.388181231753976
0.4202337119061
0.37846827153763
0.406721021786721
0.390521447408595
0.404711568103768
0.400866924558696
0.422735304977763
0.40439451885989
0.428977019215089
0.419806347742587
0.436011830640644
0.419055885674035
0.445122765096916
0.422110454266082
0.466718995944094
0.426573747923121
0.447114033579094
0.433654855525538
0.469512132108049
0.444739864383479
0.48449505958827
0.437725907328574
0.508529469465841
0.468167976947592
0.476668353869393
0.464227565474334
0.465498823726377
0.468097802501719
0.512757440810866
0.488181124939213
0.512401736759728
0.50172195767509
0.538420289219255
0.483020770716928
0.541002234772406
0.506233479028994
0.522109638244171
0.527469164201918
0.551865894332343
0.489896701885258
0.540075158717668
0.504179713912179
0.56072956951318
0.516648417468853
0.562063009398654
0.519565013202443
0.564552680038387
0.514753985597351
0.585358181915885
0.529536793013558
0.543999695203867
0.522473266896303
0.568247076542964
0.557868347680641
0.571923830482439
0.584915410373523
0.604854712897438
0.578138880527832
0.59698883675836
0.54986229244868
0.593027872149266
0.57790596578521
0.623508914329343
0.549352502378842
0.635833653698869
0.578187891971269
0.62897536592961
0.600193586271972
0.631700710127539
0.631251822688598
0.654600258685574
0.602308546418191
0.643382321699689
0.613333606263291
0.644236446256113
0.607728511800895
0.668370100464243
0.632125287712407
0.679694871995931
0.636949230614366
0.667406545910827
0.637161413414346
0.658861346037192
0.634709855008274
0.700749897131292
0.646413190619134
0.681916667427269
0.624363222828543
0.667321360048389
0.666982312355357
0.69565786776385
0.658941944879705
0.712868317616689
0.705874507990706
0.698112201760538
0.664822618004416
0.704801219466891
0.687672350848995
0.737246404037067
0.68058514670083
0.70523592391294
0.706884107075056
0.732069499501049
0.715330818843725
0.711301587730299
0.718188780905414
0.734863339217128
0.702861072067654
0.759401951430513
0.692818156097182
0.748464674676162
0.689322090854273
0.761439873071675
0.722073532476075
0.71645322072147
0.724611632511296
0.750770402996732
0.713150900698044
0.743124462322847
0.734188493465347
0.777808080695977
0.730168884328671
0.743846242782895
0.722772996866278
0.747559745096983
0.711355935392115
0.753981018284275
0.763293350530627
0.810104882692624
0.757775038291506
0.801841060838288
0.75344321618947
0.791430974320373
0.752411869964635
0.775007320845991
0.745902217628733
0.824845415360395
0.755742051922594
0.789611471759031
0.774532112316277
0.812071697621486
0.748495046684023
0.819165634452597
0.773468986499045
0.846295349257414
0.770552295542624
0.819319362954304
0.745312191205813
0.846696281088915
0.756539560523663
0.822573830954561
0.800118250652285
0.827055573444512
0.803769443360924
0.847165220155357
0.784962547760856
0.799889611426688
0.779416718032682
0.829503003282671
0.795187791027146
0.867161917708177
0.823842662918565
0.805170010538778
0.828079999182157
0.850238121377526
0.769258065478407
0.828787954486113
0.813184119862913
0.846753747610467
0.791877763560497
0.807175818161035
0.80967826179363
0.867265878382811
0.814227742055216
0.830279371121701
0.798811448447784
0.843750580414043
0.795443191182044
0.839865697277736
0.807937936031409
0.862133577359025
0.823798724839777
0.843442463146042
0.808030060245048
0.851205996607249
0.850144869861904
0.878185641263652
0.826932922498229
0.831579641213349
0.831745834828433
0.886862843727666
0.841805984785112
0.848908113219321
0.826328811239441
0.815171083239738
0.846631810987531
0.890512145802298
0.828806260818565
0.887743578656521
0.821383483805511
0.868311092801736
0.812912825848714
0.834381271144253
0.823626184060192
0.848830838644506
0.851511111059886
0.869998729836342
0.844518522333816
0.876562022631528
0.813941758858839
0.870290149849361
0.853094683648743
0.85502687194321
0.844414594951701
0.829445569087071
0.828186876075389
0.861490066782665
0.846323407458965
0.850364013680186
0.822072377598452
0.864580840474877
0.837181962299299
0.867576919103364
0.838174711088194
0.865834497641549
0.844056670508341
0.836777243528457
0.80896325845534
0.824693274893312
0.799237127842246
0.865382108225555
0.792595332948343
0.857511582455952
0.815774682916687
0.871031191659323
0.833085034518252
0.859354127078362
0.83502679545182
0.839264908028745
0.815697285219847
0.889329232622858
0.822161851572121
0.807634185626929
0.81708454325982
0.826266873271408
0.813310964271598
0.851355610484321
0.795592095044556
0.845512802676762
0.82394146754615
0.826238233619356
0.794033188440708
0.848150192782998
0.799281720873452
0.839111928051058
0.81087151409709
0.82676900486197
0.811929471130119
0.843143930677219
0.783897974005415
0.812956180332637
0.785333740958808
0.807506107372293
0.84311840543734
0.844781152606133
0.810131417230008
0.805067860281807
0.781484921401811
0.810297078296231
0.796239522694347
0.817316690519354
0.825945900418818
0.83824182601575
0.754593307786504
0.825770589802651
0.774379998983961
0.785239397358916
0.79284345217237
0.794801524943724
0.762436440278728
0.820663342342657
0.757724614985843
0.822742510419539
0.741363845078169
0.787846040471976
0.779104060266899
0.779574605776571
0.795814003058679
0.776609186292141
0.753215591618022
0.784984754015183
0.769108516166816
0.765628405285448
0.769690306604998
0.760064149114079
0.749734995013429
0.770315903174566
0.773509461739916
0.779317245650864
0.750828896542593
0.772642937878702
0.755472556088888
0.767362165061318
0.751946063758162
0.75061757943821
0.721374310461235
0.746640190204182
0.743848863287505
0.753395645106162
0.75447172689126
0.761323134542162
0.718528423354098
0.753747527185766
0.71888297996647
0.740794732896112
0.701145914746351
0.73664904330314
0.696120774549009
0.730940785889241
0.718461428720044
0.73256777583622
0.688714873401815
0.723362535412083
0.698447194527529
0.713937229703027
0.696985672367706
0.74089331584541
0.699070494015051
0.685606061560523
0.68391658549561
0.696555291644419
0.697693143684773
0.693390031778638
0.68405646062494
0.69893464986347
0.684818084489086
0.716113561792434
0.6923930919729
0.707452838590446
0.664056391336245
0.692388944610499
0.650301612484413
0.658897701177674
0.664754940967374
0.676452319273679
0.667703746181536
0.688314245346204
0.652518026553089
0.657247201645611
0.644888158390788
0.64248915224342
0.624999324641412
0.671018681243442
0.646649597746048
0.658568313067957
0.617583704501689
0.647497940049451
0.62449621760002
0.648461886809504
0.630149052216675
0.636069221187722
0.620146736010042
0.623615848849994
0.598297137458336
0.634828809674127
0.618850262635857
0.623747310037037
0.598061032294129
0.604285623043558
0.592865084490524
0.600920540181403
0.599957664429681
0.60408096926665
0.596137030375969
0.608962299487632
0.578606737162118
0.578734646391738
0.573757133889283
0.580021320177906
0.573901703427065
0.580016160738559
0.567008504449504
0.584191432790542
0.57377153993961
0.570404733668732
0.565780501478044
0.57381269538941
0.552333930906418
0.545577572147045
0.548706288060443
0.566186801285856
0.537144586070815
0.55023553446189
0.527223727993451
0.548133550916723
0.529581573465349
0.533950587762477
0.524105897031705
0.534764270652904
0.526427626889443
0.532348072644157
0.525548734013298
0.532860074610129
0.508756804642691
0.519764824391456
0.501353512417607
0.51831318975678
0.506212249317944
0.515952301256519
0.507841337508408
0.502792082802404
0.506882859997163
0.517196137032181
0.496618197509096
0.506408611514201
0.490180778363185
0.490439777812234
0.488106702341822
0.497310660929901
0.481108040697921
0.477129667241348
0.464067037776913
0.474101964801339
0.468076559271929
0.483079346788297
0.470386194788014
0.475276233753041
0.463712298769269
0.476932985931807
0.459878999290193
0.463109938483097
0.461742318451352
0.475288813416009
0.450162738732076
0.460719304010072
0.441563841566112
0.463846627890357
0.444054675626566
0.445143088079034
0.433909964081128
0.441535224023637
0.443232399175649
0.44665634517551
0.434133949761385
0.442000040388037
0.427270547063835
0.439266851280903
0.419745854618025
0.425811731040373
0.40869648590323
0.422221910037572
0.416361143102224
0.429796435439949
0.419998646503948
0.425195543696558
0.411329947011203
0.413821784364402
0.406110814449025
0.415134104994695
0.405668276059721
0.412368469808284
0.404372329829003
0.412254770458752
0.40127257606544
0.403422763938235
0.391611298766648
0.395887493059249
0.392244255285728
0.395668716907713
0.388293970158883
0.393214483483946
0.389862089495125
0.384491916786839
0.379756458803521
0.388153006783805
0.376791200609268
0.376016015741495
0.377605612355619
0.378020405754653
0.366345391866714
0.374699788644719
0.371007751674541
0.36928229452588
0.363879688230862
0.379120124064035
0.364228858677989
0.365588451985609
0.358895004419412
0.365224176166791
0.364372512173091
0.358183824021104
0.353611983369496
0.357659889958632
0.348052622338337
0.354104931807243
0.351693863639808
0.35360427592548
0.352205484336415
0.352070539934298
0.339113066375605
0.348275544660329
0.346228349278202
0.344520357676179
0.336497641887788
0.337914433772626
0.335066157115837
0.342960167242768
0.330934042036373
0.339087934261921
0.32807983614418
0.335106277385232
0.33052196079882
0.327220198172411
0.32154242794907
0.32150507708155
0.326403138495147
0.327225919912226
0.326073593787755
0.329159658379199
0.313923860177402
0.318311645446865
0.318850582013523
0.320022902070547
0.320273905744892
0.325139115230966
0.303101327855253
0.312958322420872
0.311155634175937
0.315154009031271
0.306046372077298
0.309455317884816
0.300873965766379
0.309168618269056
0.297929950329175
0.297268011872041
0.294491447443897
0.301841972092216
0.292291311323872
0.300730011475058
0.295149059426261
0.297157855125414
0.295921331614613
0.299340786087027
0.298144295347401
0.299035815226042
0.29091924776162
0.290389134826923
0.289459895293904
0.295524421522125
0.283484351321793
0.295808460108446
0.284631450193592
0.285913946694196
0.28673683337264
0.291826064656058
0.285279985797934
0.286579007127816
0.282059785671139
0.283486489010222
0.279318879982982
0.288272177162198
0.277617141248751
0.28490725593451
0.283232581711693
0.283264604582544
0.285392965638322
0.289876893807471
0.288696020443236
0.289194072890516
0.280903475566016
0.28832992554799
0.280077243803145
0.288412711802456
0.279890245093413
0.291965696228525
0.294346326106764
0.283992067938034
0.286219259189097
0.293376777754534
0.283956608305064
0.290278671011704
0.285726486425135
0.293535112855396
0.296042997076717
0.299193576959025
0.297404683637152
0.293496903533441
0.294929165603912
0.305716542510227
0.302379275958974
0.301406160896454
0.296023759936769
0.304187866959428
0.302727141707981
0.30646301156923
0.310977275644343
0.310606333307826
0.309935555079831
0.310526255325995
0.30526394278961
0.310426440445253
0.311672620498049
0.322013222513005
0.319011917030877
0.32012175556592
0.31425523592737
0.3175467807625
0.327622588417743
0.329447953534243
0.322342594700837
0.330454625807127
0.332022899199495
0.329885007895688
0.330810113373019
0.337642626847548
0.34187948089257
0.345191913496721
0.337971911651914
0.351274939766838
0.347282081786644
0.350772084373431
0.359168093087615
0.357791825504756
0.355309215463334
0.366854212120458
0.354549927941111
0.360144572484309
0.362569240919486
0.359893862522998
0.361552353460952
0.364134631187774
0.358235448870598
0.367587123944992
0.363754642001394
0.367444731730721
0.369736464201847
0.373933567461002
0.364290589288977
0.371390830221305
0.363700941959771
0.364421225649796
0.366334002858627
0.367400772147656
0.357542018840527
0.369932516232309
0.366150586793443
0.365553087336795
0.369553164637568
0.366846599797446
0.361729695681029
0.364872621342174
0.370490435999425
0.370466662819025
0.365185607155947
0.367303183355706
0.357791780459339
0.362863194376961
0.362922523657195
0.364626754323367
0.365890366417224
0.364313027418661
0.367038608874777
0.355520219374405
0.359613047334967
0.373827091514179
0.367437295993425
0.372497876117763
0.365243922695686
0.368685553731836
0.365847102905877
0.367348280769774
0.361627322880609
0.363606265394226
0.369061028302101
0.375888458411081
0.374979773221403
0.365563437548807
0.360426994369551
0.36974518479321
0.366593029504418
0.365224352635909
0.361994938232766
0.370459698400901
0.367787289140287
0.367521190640713
0.365514538100953
0.363390631482473
0.363376999026953
0.361905345886839
0.359043536000625
0.366033712076367
0.360382604140321
0.360065499890521
0.352004719093508
0.355208558794339
0.357434098023049
0.347175938227951
0.354785318052796
0.356202177560939
0.345387030280602
0.343651942554106
0.338585500883707
0.340091509548905
0.339598108864534
0.339114708018988
0.336976686775631
0.333165005641919
0.33033391753209
0.327475169185497
0.324555299213948
0.327730080193929
0.325154708819082
0.321712820924483
0.317283848525856
0.312440747180465
0.307571519333522
0.312604701405468
0.307859533885701
0.309814852428695
0.298274975507341
0.303467811977369
0.30971754987433
0.305849703317344
0.300645692880509
0.294372048363094
0.285674944556794
0.291666979345818
0.293766092803685
0.294873873912727
0.283950434258238
0.287126649599622
0.289031189846437
0.282795041043507
0.279831805518352
0.278432611189949
0.274813988141677
0.283549873046804
0.277051077973024
0.273065150370856
0.273592587646176
0.275356095054295
0.278937173694962
0.270222348151871
0.269402385935026
0.274390946597965
0.26829650157829
0.265830693130529
0.26522888440884
0.263446342383649
0.263520345100237
0.260719117357911
0.263486682192419
0.265772148734911
0.25864447480876
0.259410227104155
0.256885769536028
0.258233612539209
0.251168916926107
0.249006330826601
0.248180875552853
0.248959056437433
0.250130140083466
0.245947269138215
0.244206059821672
0.245140760371968
0.24426656747711
0.243096682535369
0.241391881658956
0.242810724763522
0.239830163434678
0.24385651026411
0.23877214705146
0.233705296318022
0.236747864577891
0.236057829634818
0.234269535865133
0.234701794776875
0.236458712779491
0.232698549157546
0.228235668352658
0.23153291228938
0.22757266794805
0.229643628742564
0.231781156176717
0.232505922527994
0.229554385437254
0.232729559906107
0.225023127192883
0.226809916579671
0.223853469896442
0.223494552032397
0.225083096603618
0.228638746632512
0.226015107269733
0.224949229425218
0.219340255331221
0.223163038243099
0.222138362366577
0.221711553865275
0.222476506392128
0.219699759221713
0.217654825556778
0.217356689234898
0.212826774500599
0.214340734605631
0.21980872205352
0.214527226118361
0.215875768963526
0.216752313576718
0.21400234340417
0.212560547012465
0.21201057771145
0.208925254598517
0.207558455615378
0.208592950014803
0.209005400053825
0.212147948425312
0.212700777148817
0.209099484105574
0.205405324996835
0.205251772325473
0.201687686046338
0.204061553770232
0.204527918485814
0.206633510684901
0.199122613723055
0.206505476995102
0.204288930551456
0.201784013973
0.205570839447063
0.205381372812779
0.200258394773012
0.201627995039178
0.19876117108822
0.200879688560139
0.198903788532052
0.199315916923553
0.199591206924758
0.200768414866606
0.196395252857617
0.195505600115247
0.20001310497005
0.202484504396747
0.200618911471658
0.194971279842615
0.197344623994874
0.193738674231208
0.19647078005112
0.193478375769519
0.193552140118137
0.196851153561834
0.195266485613188
0.1986542196573
0.196378424433177
0.192576019122693
0.192060023445417
0.194739739080509
0.197405135064819
0.191263197321146
0.193432343123726
0.190681313195754
0.192881394459847
0.191903953332428
0.189281804681445
0.19150612154255
0.187448935889915
0.188031500672214
0.187888392337611
0.188102492621909
0.189639022032882
0.186582609633945
0.187064135059601
0.18993699487467
0.188092963629571
0.18736605039158
0.18713447321054
0.187572691511914
0.183174948319095
0.180824090009456
0.183276887697138
0.188294890257202
0.181844074773743
0.178847567889189
0.179210370163595
0.17685711664915
0.179646660024725
0.177328269859588
0.182728997146402
0.176919720038467
0.172825890201862
0.177174615285654
0.175602123434578
0.177505565336242
0.175809011676118
0.173643394619472
0.172022438826129
0.174879550288419
0.171989419029828
0.175525573655715
0.175914718072633
0.170526851364247
0.171484747071119
0.173485355466312
0.174458066897817
0.17287721883669
0.166356485103117
0.174263837055318
0.169434810813412
0.16548341257135
0.169167881383805
0.169789900821214
0.168446438595598
0.168110853814781
0.166343870756846
0.167682217413965
0.167102613633989
0.165430182002771
0.164103310124091
0.162385127468749
0.167446419510602
0.159513197380493
0.157297311646969
0.160710938970537
0.161658930558951
0.158555466129012
0.160141648848635
0.161278233117637
0.157055628056952
0.157397665742869
0.158605438468675
0.154728302596337
0.154733632630166
0.156360757193343
0.15510851941467
0.152399635242624
0.152364931134908
0.150193974602023
0.150485626416712
0.149884207379636
0.151517346554234
0.149636580543013
0.148676536988414
0.149164791478351
0.145519261652382
0.145847063141862
0.142943353343568
0.147347448503382
0.144796594290893
0.137273449880504
0.141086739955842
0.143414349708876
0.144154964500514
0.140588568848269
0.143213882356688
0.140211379283176
0.137602784644952
0.14318233895208
0.139984529016498
0.139270996564038
0.138752925382333
0.140492612353469
0.140236544741106
0.13744126193996
0.139716085609721
0.136869153635415
0.137968866555605
0.138143150946212
0.132144519940742
0.137604015296962
0.133146638399811
0.132395851230297
0.131334695842653
0.133076038363
0.131033269556912
0.128030768723094
0.133438592565944
0.130891792131998
0.125198769130069
0.129367949432963
0.129921719849816
0.127775895048019
0.128331818113342
0.127263254655359
0.124944601726151
0.125462853800391
0.129905691032245
0.123279197672856
0.125671785891219
0.126746785978723
0.126070739567786
0.120853139067576
0.124016914159205
0.123290815542298
0.125552970851897
0.11967027624049
0.119618953919702
0.12270498177552
0.118122418380919
0.121075735554961
0.11832569806969
0.119011798671529
0.120027617095654
0.116997582010876
0.117299878386952
0.116913915907242
0.114739819169749
0.116618115811835
0.116897395159476
0.120095553987041
0.116998186728602
0.11864088622168
0.119410145734782
0.116707858872861
0.114875671514039
0.117636954096696
0.114211580107461
0.115276446565918
0.115433881457585
0.115817400153532
0.115127207590633
0.111487810173441
0.111917524629905
0.10993837944046
0.111612506097633
0.114759749023914
0.114602906358575
0.108156003034043
0.111978487374036
0.107578257162954
0.110830567013517
0.110418834794062
0.112228554840753
0.1081769816633
0.108605878979284
0.112400036512028
0.113401271625637
0.109742556558867
0.107968366053104
0.109119776879939
0.110899696727668
0.108545430675203
0.10821716133332
0.111471831398905
0.107174494412551
0.111145064347586
0.107574509999224
0.108739479942088
0.110163573450302
0.106786730991913
0.107585072003694
0.103849089626048
0.105935851856766
0.105509429978829
0.104828438178976
0.105294260757794
0.107039529360534
0.106547100290964
0.104433520258472
0.104594818103318
0.103955151612699
0.104197939072403
0.104312295118727
0.100391792026943
0.102542776133279
0.101936877974297
0.100101340691648
0.101447775056599
0.103179091934599
0.0997071643395296
0.0979786751537986
0.101751622691856
0.101378804900976
0.0968784698731087
0.102358138167737
0.102145779857313
0.101065411874206
0.100071915212166
0.0992625430133681
0.0983231889319137
0.10143927258917
0.0994526725717331
0.0970011179447644
0.0972414305265465
0.100480137903201
0.0985414779624719
0.0974508001694148
0.0971955167881154
0.0972507978843791
0.0963299072974172
0.095997285859251
0.0998876126199913
0.0977210753464942
0.0943251866808088
0.09540457711478
0.0952965281177301
0.093768429083045
0.0955128880687341
0.0969053694038495
0.0953759270742458
0.0966038876079671
0.0943714528230346
0.0922373357742367
0.0951948557582356
0.0958173656549311
0.0904422690964023
0.0915756205553391
0.0931766371295486
0.0967795297676162
0.0961793266338315
0.0917218016960865
0.0911895928596312
0.094283761756253
0.0917181498699575
0.0901520420259089
0.0901191747387448
0.0897298267164351
0.0927347765673091
0.0872733971907846
0.0900234986747468
0.0848695443715138
0.0873566103254031
0.0866463002862086
0.0914797624095692
0.0906946484072269
0.0888312916600581
0.0879630305368046
0.0864077019903944
0.0829527352155741
0.084994780638327
0.0818451971622411
0.0820859777812376
0.0844099931486508
0.0849314350489542
0.084797580464646
0.0844963181254516
0.081327874237587
0.0825049791755745
0.0856005290072322
0.082470866080702
0.079974019330512
0.0858725534462713
0.080502834090402
0.0822049198291975
0.0792499699063365
0.0826446011737439
0.0778857340510734
0.0779950194940719
0.0747778513406172
0.079073783966647
0.0812059340806166
0.0807494695175936
0.0781643082062051
0.0789110787111839
0.0789483071051889
0.078838364928958
0.0763271636043483
0.0793041010083644
0.0790765834587498
0.0777331657255233
0.0760458939817466
0.0811626469708655
0.0782536265392102
0.0752646687581958
0.0734693027025523
0.0746234376342132
0.0744119783735326
0.0779953038428336
0.0745394375686633
0.0774069294294295
0.0757105758758192
0.0751212350478534
0.0753467907559272
0.0731004980215793
0.0714817119782134
0.0753338844391589
0.0711462622688376
0.0717840764256738
0.0736197715292422
0.0718961050286505
0.0710623020977273
0.0744191084574247
0.0683390721376875
0.0716927684249335
0.0720781766179158
0.0718915705982707
0.0675250837575043
0.0732297616331619
0.0705905893280303
0.068772136325618
0.0667471418086369
0.0707909246275918
0.0652442686413065
0.0672577439352923
0.0671647307607921
0.0681863611371816
0.0658857684067611
0.0668666155462484
0.0656977955739627
0.0689521383583339
0.0663264367615865
0.0680415952492596
0.0662612531776694
0.0666163077088435
0.0650021854646138
0.0673263379432112
0.0627747233332781
0.0652554090087924
0.0660477429307073
0.0699559999251924
0.0636702792067904
0.0672971784004801
0.0643329153865208
0.0673038322569752
0.064831967069082
0.0691965360462463
0.0664289295976062
0.0683119763078655
0.0660462162022847
0.0661348516108834
0.0693707571753113
0.0694073051349683
0.0698070777561237
0.0722420403523535
0.0691868538837491
0.0712161086985554
0.0706696392508133
0.0691090278681732
0.0750477565816792
0.0744649390234323
0.0709878767892164
0.0787212606847454
0.0708098700914024
0.0718545441280379
0.0681891165237018
0.0724346148161016
0.0618387580074151
0.0676107699679103
0.0715235892598432
0.0742189388598097
0.0677310608104753
0.0739205839421285
0.0647456946270242
0.0711592164066061
0.0647630354319371
0.0727206981964668
0.0666191635107052
0.071403953861043
0.0616907736125923
0.0739549098729946
0.0595530215305399
0.0808811711987675
0.0621710855469044
0.0706927035091694
0.0640376253545366
0.0720826493084498
0.0530605551653708
0.0738658730207423
0.0547284275725326
0.0712771998891325
0.0514128716152004
0.0731875267663065
0.0475199417779554
0.0718901924177876
0.0484393702308518
0.0799446722870867
0.0514131741296715
0.0779199659997155
0.0515539023673587
0.0851429286319495
0.0463859792907284
0.0852712716278758
0.040418603189549
0.0816585586471188
0.0396752383701715
0.0924110991094463
0.0444528623844065
0.0948164257787187
0.0404179820902004
0.0881814970086616
0.0366715326333277
0.0972789800533904
0.0454257372319878
0.0861211879923288
0.0442998453928014
0.090167510733167
0.0561422588445578
0.0638354247254291
0.0679812660603523
0.0672943561470638
0.0728439101739392
0.0481673645612722
0.0865933767149307
0.0439868980325644
0.0914277968641775
0.0403450170604006
0.0888225837126149
0.0460501898468721
0.0812182968748624
0.0488112396553369
0.0674912242064194
0.060109400234036
0.0616790841589507
0.0590045073193577
0.0574088940379774
0.0615679030019649
0.0608406140017795
0.0568105539018131
0.0603011254803659
0.0519838611752598
0.0611819339855084
0.0545713935993803
0.0620971215200165
0.0529642422114248
0.0618937832228896
0.0542617571726518
0.0543330592926479
0.0525364747333936
0.0572647396724633
0.0505314495393758
0.0563988072698706
0.055897834902077
0.0595575962291059
0.0527361497486005
0.058906640428026
0.0521487433540906
0.0554660196820829
0.0521887867421571
0.0583594433853404
0.0507433747781773
0.055626177647869
0.0514294507166918
0.0545043264404514
0.0542294820272457
0.054501129448102
0.0540303657949527
0.0566571750626286
0.0532331323191543
0.0557824542607162
0.0529395824694139
0.0544196136736403
0.0553814845648033
0.0588546805405721
0.0516826116501533
0.0539381857624397
0.0510663005892651
0.0564699986134474
0.05390430548002
0.0557462143828103
0.053209392786033
0.057097707631385
0.0499822542851667
0.0546052434486591
0.0531135757459283
0.0552214549640218
0.0495447773005077
0.0557380292788821
0.0522443063704676
0.0566797857185694
0.0522937140982967
0.0542968730033939
0.0507833907972869
0.0563717458744975
0.051959483928753
0.0573974795309999
0.0523900665247584
0.0551957086528002
0.0539607764859368
0.0565195555029193
0.0525321368518782
0.0553664462900717
0.0530380255131477
0.054782374261894
0.0518145820804258
0.0539575337107496
0.0526211766178157
0.0555609825560796
0.0517599800526499
0.0551121783535411
0.0502734284096293
0.0527675584773141
0.0523628154551619
0.0534324282165512
0.0521586351555077
0.0553352494866275
0.0536842539929476
0.0542329764817015
0.0527320101067191
0.0560482116754266
0.0514806628900917
0.0515645497083297
0.053679165932726
0.0567382690427566
0.0498043156887786
0.0581264166244047
0.0514651154342278
0.0559040974987601
0.052787955904369
0.0540854009429683
0.0527626609057239
0.055509050025676
0.0528320672283487
0.0551608693430549
0.0541766485396403
0.0566368114224127
0.0546166181200655
0.0550764425826561
0.0517622074002342
0.0551717579264727
0.0552201507043082
0.0589554283407203
0.0522069773773456
0.0538333504589541
0.0551499759245661
0.0558008231610985
0.0538069557229164
0.0548496195828766
0.0540360099119007
0.053876954061065
0.0521266485837146
0.0543882169361406
0.0514340410392441
0.0556643815239864
0.0531528438796135
0.0546199855027448
0.0540271884008868
0.0591045913542213
0.0549449149183267
0.0539613486493542
0.0552794102960733
0.054473171058691
0.0554488549268737
0.0544060980734086
0.0552476615659354
0.0540546648095944
0.0521320780045194
0.0552990208636461
0.0510707794288436
0.0560408633460604
0.0547978467898119
0.0539579629600266
0.0533945674234149
0.0539004561412524
0.0564939658127045
0.0555234302538043
0.0520106522061159
0.0553596870411481
0.0549000157913863
0.0548926242194746
0.0554533155404049
0.0571872702711915
0.0544015166446704
0.0531082186075081
0.0529629558984672
0.0541333279907123
0.0523897888729348
0.0588745680950176
0.0543794679466794
0.052880015859014
0.0543131454731486
0.0559438546397312
0.0516815097649711
0.0568489940598543
0.0582268606950555
0.0556912385204182
0.053814362300451
0.0573908955702565
0.0556809031125251
0.0547817434550626
0.0512875074540413
0.0573069178700553
0.0558597191103152
0.0556725557603821
0.0585510837705678
0.0573233944444273
0.0572300190570582
0.0543794794549511
0.0529421786709075
0.0542915503019458
0.0517638308993914
0.055455061858979
0.0536402443016505
0.0572558792596978
0.0568636859399058
0.0556831963728748
0.0545575612165294
0.0530526305756248
0.0552401372123609
0.0542873409060646
0.0512363875401204
0.0532722106448373
0.0545331726530199
0.0548573242703339
0.0524562899927149
0.0523414755841221
0.0521444586291834
0.0518508665012309
0.054257850064991
0.052306310703462
0.0547607761771952
0.0532568951366054
0.052001285798944
0.0562975193408648
0.0515598038609862
0.0533415735303145
0.0533684713482682
0.0539618683324108
0.0511406223621902
0.0519763142715514
0.0524683273973925
0.0521963075753414
0.0548462575690586
0.0532892841396439
0.0503790590161499
0.0534154288436912
0.05339902802782
0.0519359149278086
0.0493145887637342
0.054294363444707
0.0541076090956022
0.0516451879089816
0.0531650735177001
0.0502566418008454
0.0526325936582356
0.052823175285454
0.050966186371228
0.0505706791534925
0.0513098093717944
0.0516894917832908
0.0504138799832749
0.0498915112604235
0.0526979887304777
0.0524887138084143
0.0536980483122477
0.0557474258186998
0.0529547969584257
0.0513919145737977
0.0519076005178734
0.0525688808042142
0.0500114812228888
0.0498240092677371
0.0483911315995476
0.0512503988014538
0.0499211188956531
0.0509619882821486
0.0513446773521353
0.0505913933324696
0.052023402670104
0.0511289889768755
0.0507538742145101
0.0546977371429775
0.0508366833179014
0.0505357644942694
0.0507458710558917
0.0510693775630318
0.0512174036954397
0.0504103205603221
0.0497763108223023
0.0498540137163637
0.044243741287962
0.0516522955556315
0.0521256784667408
0.0489632785073374
0.0511368656369502
0.0497245369316391
0.0509924239623478
0.0516638653727217
0.0515788773744303
0.0481606084663231
0.0494201087323359
0.0486117905375406
0.0497358484694862
0.0505770637302293
0.0511410893244177
0.0503123730010484
0.0488057466609891
0.049520095027436
0.0505903234471904
0.0512860376099777
0.0462482592577306
0.0492465618240458
0.0499261853716462
0.0467976214283292
0.0475809372258813
0.048238968979265
0.0490915449782736
0.0544042701191393
0.0505323246285445
0.047567869727337
0.0484799368893737
0.0492057112212193
0.0474601421636871
0.0474589494740304
0.0463832457236378
0.0488636355246023
0.0461757780153964
0.0477033541437483
0.0483071391678127
0.0486733717579013
0.0487379126443774
0.048312809614965
0.0475757850238372
0.046258726495761
0.0464742821859236
0.0444235048490528
0.0451386293570653
0.0472601559024361
0.0462262967703364
0.0468982658518458
0.0449151612439834
0.0487862006685392
0.0453821326121981
0.0527180111168573
0.0484815556619659
0.0462556330544843
0.0491269303733661
0.0434187003358233
0.0408652836581135
0.0411611588317133
0.0442966496667339
0.0443891851801776
0.0481202508689069
0.0461126551156023
0.0417317936313304
0.0416914936951121
0.0437078971883183
0.0433168773142908
0.0428234917917521
0.0424670536539633
0.0438267174214709
0.0442210132460207
0.0450666638703389
0.0431324558127184
0.0413547274525069
0.0406643290069022
0.0448694396400018
0.0451773170511041
0.0442420964212829
0.0468169916592332
0.0563562491264443
0.0454429651335201
0.0429995145832321
0.0450597301353191
0.0474675336721973
0.0407151276353619
0.0472988158932374
0.0402340838155571
0.0406802170221101
0.0412272832852622
0.0431577820592172
0.0416732935926616
0.0426824037195065
0.0400511249493384
0.0403208615375829
0.0424320581819382
0.0418834635566906
0.0428207214898107
0.0415605138542066
0.0408882836138267
0.0431540203667749
0.0421388071986339
0.0415723065569543
0.0395965477787376
0.0417312491959698
0.0416419506085639
0.0503750019612374
0.0464043541621413
0.0406584555439765
0.0401379397187435
0.04115355971735
0.0398830480427219
0.038773156829996
0.041453004236136
0.0407886036754071
0.041155621351852
0.0400351027802695
0.0383040176177317
0.0396700142485872
0.040922451566847
0.0416258656792064
0.0371636220031169
0.0406659131705632
0.0416404916220259
0.0386044629143275
0.0403978493331044
0.04117645469012
0.0382339792520739
0.0384614967000064
0.0429693064326996
0.0405429794552317
0.0407391904851086
0.0416655803461457
0.0644062995809106
0.0415813370784405
0.0448183679263916
0.0409768352179396
0.038983683695622
0.0366876930965883
0.0380059514208356
0.0377250366974786
0.0383003384207401
0.0374014200270786
0.0388913174124063
0.0372086808633311
0.0408784947334806
0.0378807668291395
0.0375205174397949
0.0383345900254367
0.0413062675216484
0.0398147818718528
0.0386227650122146
0.038908020532546
0.0437436661103855
0.054560061066243
0.0460409047835941
0.0367208802355348
0.0445563160752049
0.037644632269701
0.0559598371979969
0.0492598882881364
0.032991927752482
0.0436355916851605
0.0353460379484408
0.0429266943978111
0.0354989705883045
0.0424346506603859
0.0377367462932181
0.0514026329734254
0.0389943750574876
0.0459723293113174
0.0382432424725826
0.0408625048238425
0.034479099344956
0.0402560522432308
0.0384909430707704
0.0386958945957858
0.0381319348226971
0.0370130318333455
0.0357554263222168
0.0371286988654069
0.0379619418591752
0.0401211514549568
0.0374185320781514
0.050038641720332
0.0370190484500162
0.0419966428380054
0.0368211676347446
0.0419041663535579
0.0397505111229561
0.0612119727405708
0.0355857551996131
0.0393241201906344
0.0367361537690914
0.039987184817854
0.0387214267108742
0.0382116488118399
0.0375366489596533
0.0399826448998867
0.0367336401449853
0.0401909219140895
0.0393129317404915
0.0377330589522373
0.0374384027794846
0.0385809063282194
0.0385779734746411
0.034980096608951
0.0401901441051844
0.0394542227878343
0.0413733481887732
0.0414001485776819
0.0526197942287938
0.0709536326136666
0.0467953134123917
0.054608571908436
0.04039561841361
0.0445881071291716
0.0342401646663685
0.04209038180186
0.0336511547931835
0.0440574604452447
0.0344177778264748
0.0424484464755181
0.0379672580367972
0.0423794468181068
0.036795615173459
0.0410396996253289
0.0329748763502983
0.0412548709300917
0.0357477296344532
0.0413079091549096
0.0355284996523511
0.0402141300866153
0.0364821015617403
0.0493667505076419
0.046912092733306
0.0440046412602154
0.0438065202157539
0.0578443195803072
0.0804924296689127
0.0371239088293251
0.0508476958387047
0.0360113759562876
0.0389234315243523
0.0361972651481959
0.0424364531039862
0.0456436632831484
0.0434945878347603
0.0387555054458902
0.0415198721857285
0.040063038400421
0.0412825023604428
0.0396862254248796
0.0513656553680382
0.0752979163625054
0.0517530005810884
0.0385838927714034
0.0460432522560449
0.0446160448246421
0.0749832113997134
0.0454305520797284
0.0406319394920432
0.0455334349314197
0.0373292376650411
0.0413748998255789
0.0382990468386057
0.0428435855452684
0.0445371918791591
0.0458843195877224
0.037298089005902
0.0413139726815696
0.0361113148704773
0.0449041668842525
0.0471524675455328
0.055409721994929
0.0566332196728155
0.0433422389599943
0.0432854232604219
0.0503837417935376
0.0393394927433199
0.0443759351331513
0.0393304817714168
0.0485701093275163
0.0515550608812395
0.0629485500732083
0.0484782238067827
0.0597999487367731
0.0579342748118929
0.0417918114526735
0.0459852342758845
0.0591050593776633
0.0449973285317973
0.0517017105192964
0.0428644873547284
0.0893210614831688
0.05811477857545
0.0740263600419148
0.0438590214795856
0.0482734541616915
0.0446774377398017
0.0463738928099786
0.0450118165883751
0.0618981115018278
0.0571642508426942
0.038802594641545
0.0509206026503044
0.0502535341860843
0.0666690228628262
0.0451545804397718
0.0536516049200022
0.0461863986004504
0.0587213990384367
0.0560068849771734
0.0592027970500119
0.0437696450344271
0.0815899103836502
0.0856083316768149
0.0649900223729375
0.0610107536206012
0.0434495090586588
0.0851569365376038
0.0645010988219001
0.0478046072794115
0.054752337358667
0.0461818314356587
0.0554634168615669
0.0516151675598029
0.0831266385763125
0.0640220918494632
0.046368112759698
0.0601607095646428
0.0551513547442345
0.0759112581957809
0.0695638285199691
0.0504484697918622
0.0556597398694672
0.0567811996241653
0.0636707187723892
0.0822522670289273
0.0929982343743036
0.0582310462405039
0.104384106702275
0.0714392146177822
0.0820794916000566
0.0643278138819333
0.0718374553647729
0.0741441170597695
0.085811445306127
0.0633097342767477
0.0647992888274978
0.0729068055262962
0.0958201138920681
0.0632897130430124
0.0689801711769611
0.069108895694569
0.0650427729381733
0.108763025839314
0.132845353665976
0.0935896127525688
0.077195812606509
0.0739274096884712
0.0978820631021936
0.0815550439342562
0.0663034005835674
0.0725014564056721
0.0694899361672939
0.0706800027395665
0.0722633287351251
0.0780254709930231
0.0807143234535836
0.0731189096395453
0.0803231048168632
0.0779394963803869
0.115803310155746
0.12281531311892
0.121251588154251
0.0960160317850698
0.113517131296396
0.114160776026749
0.0876396985981605
0.089787762391139
0.0792764829084477
0.0986073271364898
0.0907831963739316
0.0837374754343793
0.0923375787025292
0.106269176755852
0.117388666848908
0.0995965166164774
0.119820238781502
0.0967654124299127
0.105713121955164
0.112245432716643
0.217344456072497
0.152912005598957
0.102000523950173
0.139154133950984
0.108311749457932
0.197421665584081
0.126737310347471
0.115308392486889
0.114651759915842
0.122192558839379
0.124359708623259
0.140730132193801
0.143137789764866
0.152960925807971
0.139513101875717
0.148652637834173
0.152100875767453
0.258521228867011
0.210589253381357
0.182774387165945
0.16027237912176
0.190444702766774
0.176055776614671
0.176739004567395
0.16551144135032
0.186733909272567
0.177568419911655
0.24683576995702
0.19598835807263
0.198654907142544
0.20338899111587
0.224230794567133
0.21556148623092
0.232311927023133
0.256943658962413
0.210460751372701
0.229256539684472
0.21495807095151
0.230297903659465
0.229881935878361
0.25515922802868
0.262418739271844
0.240036575420884
0.247342669967817
0.247449550304974
0.254937824953308
0.257443859845113
0.26387268935332
0.265876978476793
0.309222670647131
0.332392949099858
0.377513073545379
0.313187021738077
0.264230381963156
0.273562321259978
0.272758960985486
0.306761105154011
0.303654740844586
0.293695425895693
0.305124514091675
0.266731748213284
0.277295924097394
0.272421605881538
0.273474915389554
0.271848581927336
0.278729090354375
0.280853144946743
0.281863347258289
0.302278824121215
0.297243033652787
0.343300139485493
0.281637860245365
0.274693702567417
0.275051306269375
0.274237479333841
0.269376982819315
0.275173812379959
0.277173358622277
0.288402248769333
0.268256802787949
0.263766855026271
0.272149057389223
0.278299338256433
0.299813615657935
0.26243501965434
0.258577792899307
0.258996802793525
0.254274073911413
0.260387338547102
0.2648743769161
0.296722905671426
0.26346420260075
0.239236467642879
0.243450387582377
0.242645775133
0.246652372906864
0.239351105472968
0.246042914774663
0.242705051857461
0.241312129375178
0.237517754816839
0.237305309623238
0.23166846817053
0.239484450709153
0.234868473295487
0.2370282688709
0.230076028637055
0.239220333308276
0.233809209683685
0.232514158834328
0.225658220408206
0.232312866153091
0.232852637264426
0.238324554737691
0.230729407939963
0.231271492922911
0.230938102302162
0.233505301006891
0.22929079910265
0.231160076641079
0.222570773077055
0.22903531847145
0.221681686524955
0.229302714799842
0.223160357811062
0.228547462482373
0.224495863736263
0.230052572573327
0.221352150409194
0.224558940402957
0.219988999551559
0.22781174141485
0.229413518833498
0.268079924612444
0.259581607781155
0.218916712609127
0.220025302575621
0.214173397494151
0.214982003948204
0.215139019054461
0.251767494680723
0.246782589302477
0.213051996487777
0.20914624789591
0.202670680507071
0.220711043735686
0.211365049589445
0.204986886329307
0.201664202180603
0.20858348943572
0.226290414615984
0.298574821132916
0.252205302221661
0.285098385908872
0.212559126454305
0.200402421860506
0.211450892638119
0.23432186258784
0.195547491610039
0.187681387432333
0.194442398237545
0.218704531971569
0.206375394146159
0.186145629335656
0.184565212185774
0.18823879674658
0.216699649522071
0.22478216992658
0.208917775393801
0.215676041178912
0.236626925965103
0.223948447442767
0.251875916426057
0.257537575039706
0.203641839236027
0.179242345606323
0.175644876790709
0.179861643321035
0.183388451554668
0.221280254978241
0.193810220986653
0.185325027081565
0.170533794217279
0.162766607802885
0.175443542673432
0.185646365912828
0.181298144395878
0.190426512415554
0.202933071893174
0.172956989090518
0.175988190713552
0.208400896443471
0.201446091795232
0.224042385386648
0.164912975688573
0.166805718917601
0.201064306972218
0.212776773283771
0.178097520373404
0.169868664642745
0.151002987280212
0.167418045061358
0.165571794530398
0.160100379546593
0.167566296288529
0.18668191855532
0.193036063209685
0.234955218664148
0.234876505066879
0.206649490093854
0.159454287566
0.141392415249276
0.141867210143013
0.152599725983972
0.142589624813412
0.148074011941228
0.170236348300407
0.164015000100438
0.146620393040351
0.192293809389696
0.162677678844598
0.14519362539928
0.14360040503611
0.149103385511215
0.151298737969869
0.188834450234183
0.195993842634013
0.181695185718532
0.176548180524587
0.184810026058186
0.166208773453232
0.161396497911112
0.160936689370829
0.162961739152341
0.174152680629516
0.187115264380802
0.175672406738664
0.183455812006042
0.179952090014638
0.185810102648378
0.218959321624251
0.216148955855738
0.203306136046059
0.230183142284239
0.239967331050594
0.263424413427637
0.22934305448251
0.218666796666479
0.22042204118725
0.224674085251075
0.229158741573224
0.231903466955225
0.245218316758243
0.263233501152362
0.237620644429118
0.238518797895773
0.24286860620214
0.2479996547342
0.254841464126717
0.280169339273471
0.286365464324794
0.314443525498966
0.306975059266003
0.283696906249737
0.266364705538844
0.262072130627379
0.271993862288246
0.270601252636289
0.26480601501224
0.264281979215563
0.273668126288498
0.292760080516568
0.274409654602997
0.276312855259596
0.270958362330856
0.276032201385058
0.273852376112858
0.27754011789452
0.27325232293042
0.27764831604372
0.283395540172105
0.286019908289047
0.293899300519885
0.361602376925367
0.318476105160121
0.29815539875046
0.299032796046415
0.304323849603904
0.298231586738691
0.311670925581558
0.335375107685576
0.321110889652186
0.310027752061038
0.313034565530691
0.311140954578704
0.316310904225882
0.334993951628553
0.343556791956484
0.321748531336907
0.327676810810147
0.323160741120172
0.375496084456039
0.368541812526424
0.356544285830381
0.352735924596155
0.347638370858166
0.336994025732599
0.342088767523586
0.332625954426444
0.340365966200507
0.34243083389875
0.345369506972507
0.343087182462556
0.342367593213037
0.34731954015351
0.340368472650953
0.346814715597595
0.365473282017895
0.340559260492941
0.343009786978336
0.340925140532449
0.339348031750817
0.33893086538116
0.369672788099535
0.360355269810156
0.343206066733953
0.346950580171301
0.359347305278105
0.368555558921307
0.359591034625178
0.333484584052081
0.338632820502485
0.335916390075654
0.342860287152728
0.337568920450619
0.361715105473689
0.376139988189527
0.356557506142643
0.341644166183587
0.344567071860731
0.34379043397662
0.353560140590684
0.349775761225345
0.355166333568336
0.353649779246758
0.357056656035454
0.362027058486906
0.361701481264373
0.358871934959653
0.371715154835727
0.385129136902701
0.375834489928823
0.360396314492086
0.358798198273464
0.349146754109171
0.359359049014822
0.358840352253094
0.355424117507786
0.34404840539215
0.353358220915813
0.339181433089441
0.354585791904448
0.368995185811468
0.346916889074147
0.351336437293725
0.336868412643542
0.327910300832712
0.325900000877912
0.327257855655528
0.319490903767207
0.320570580004365
0.325348344384297
0.311263072150935
0.318568242566519
0.313088122885106
0.312490081344313
0.308987075324541
0.313681988809939
0.310741064079505
0.308223950586978
0.308497188435648
0.309590570609086
0.309244061635098
0.304711262743788
0.303184833376533
0.3091842632076
0.326905769910163
0.32496815596601
0.330319309158212
0.314197503835519
0.317826190927724
0.310798455465174
0.303818912088959
0.306127024218721
0.300176991699363
0.310054864385166
0.302427228675443
0.300521777034243
0.301351002400389
0.304691986339994
0.302448517422395
0.30486179866631
0.303493567273446
0.300859020365831
0.301803469016024
0.303460887390681
0.300093012961056
0.306480628444334
0.302443917693981
0.311769471865468
0.30146820048501
0.311949367033995
0.304169848336531
0.302773432064046
0.300693548581091
0.30705454790985
0.30859782281766
0.30472962827037
0.298576248275998
0.303148114767026
0.302548093254348
0.306729804313915
0.297079453461168
0.304111672692935
0.298659080165597
0.298736488904555
0.291992423596202
0.294989904738245
0.291679543953705
0.295010119137681
0.287716217240201
0.28739014148228
0.281900538642055
0.286129978990869
0.279811843319544
0.277034164616476
0.274134085765301
0.27336452105223
0.269136515187544
0.270680000131973
0.266283943311361
0.264541317608428
0.262984976716389
0.266334952746643
0.258225492326463
0.259121995068529
0.259337659751413
0.25828705698317
0.259826370980658
0.255991498767171
0.258306301979856
0.258653947733719
0.255552517321845
0.258178968038954
0.257975038013959
0.25830865351001
0.255061693586574
0.261300478877186
0.261921339676168
0.261304791668423
0.262540273868008
0.265046704290561
0.263288612811407
0.265033802871645
0.26298502089207
0.268739876873628
0.26543160482063
0.269375345651303
0.269214514552147
0.269934241936295
0.2698603040377
0.272548592269092
0.27868920912411
0.271032306381226
0.273096641341734
0.275177739023814
0.273555995990725
0.274748569014053
0.272792361427854
0.272626969396731
0.271832179474599
0.273086228355258
0.270464017612786
0.273308242823395
0.2698020193037
0.268959277955129
0.268185918239412
0.269746532729212
0.266075776316207
0.267439315088024
0.267060457113845
0.266729567558885
0.263470522875168
0.263355853936185
0.262084382133648
0.262310654782127
0.258488291160664
0.258382230633913
0.258935968232338
0.259332079138748
0.255890096751266
0.256407669453482
0.255029606680739
0.254898592247616
0.252102346373167
0.256101028115348
0.250129744642028
0.256068006307087
0.250899646426904
0.251683257243234
0.24842210532247
0.24955689785409
0.250010140736982
0.249395291783053
0.247098196597065
0.242126347196824
0.242737282233086
0.246135317310782
0.241670692072923
0.240213366798586
0.238668758031947
0.234585573445984
0.233417522999675
0.234725285000064
0.231107717506763
0.228980531539707
0.226441685873137
0.227089472068549
0.222897665071416
0.223659890309261
0.220309121120478
0.222631030662263
0.219847160422615
0.219504505208525
0.219648551868411
0.219049323715548
0.218931508708432
0.218196588473904
0.213660773424833
0.216509200169136
0.211770117215395
0.212767435944298
0.211557854310719
0.208371846124459
0.20707565127505
0.203425076195308
0.200129385895089
0.199850989627466
0.196814158116325
0.193312313596368
0.19069113551989
0.192190004312179
0.191564225216324
0.193475947880623
0.192874634976413
0.193961546596942
0.200251260233025
0.201823346788213
0.20615112469677
0.215034472204144
0.222078445873242
0.226660320323408
0.233473769563113
0.245309440640426
0.250014435847676
0.263226543043917
0.275008023361383
0.283603001015778
0.292225280706264
0.303500570596727
0.311828914426273
0.324385980505286
0.3293834504715
0.338473681175855
0.351757222676273
0.357442315523439
0.364949251849624
0.376644470909113
0.384190295921458
0.391153424994458
0.396703401083231
0.406649126469982
0.414565297518599
0.418465100203647
0.423313376986626
0.427047798832945
0.432221888586834
0.438480596804646
0.440344969313063
0.440586500641739
0.447543044267865
0.448019528034019
0.443478516966778
0.448128380415652
0.446341243549797
0.454008697103925
0.449755968335912
0.45461407135869
0.452294243992324
0.450930750695236
0.453779872005786
0.455197044552619
0.455849353542392
0.459614439598282
0.462991788453451
0.463137977866877
0.466151400761273
0.471951699558978
0.474413667533679
0.475525252630188
0.478481816825588
0.485460906883781
0.491619293403805
0.50037427849463
0.498981127409407
0.509439853576264
0.509443152027188
0.51675720656432
0.526467668578925
0.531730045187722
0.53998037775433
0.546608774104599
0.557523081071777
0.555943257786247
0.564597563860267
0.568601162314453
0.575287193337383
0.576431402275958
0.580033832712824
0.580580896074863
0.586468229862393
0.578174923363425
0.579675764274731
0.579012484749298
0.571717277498823
0.572539714030739
0.569948323424041
0.566199074632068
0.567105663708923
0.580072881616468
0.575970574530176
0.585095898223677
0.594661108467572
0.598606222200789
0.613807577913772
0.619737504507411
0.62847026337316
0.631643974133129
0.641943132366988
0.658111100383249
0.6629995074618
0.676320981005266
0.684031718657874
0.698781700654933
0.700965564581814
0.710428390735894
0.724249594016601
0.739368640820184
0.741575314529958
0.751808311283359
0.774919945089515
0.786786612951453
0.801049542382867
0.814433131255903
0.824056277654782
0.844790176172684
0.855999742000808
0.877884683187411
0.884916073368143
0.891250569107081
0.89450188035759
0.919058970091903
0.938235970790098
0.94264468562613
0.94672797750619
0.960870136819204
0.978508596220966
0.991250187298626
0.987861647330664
0.996239571688032
0.987503356641142
0.981376315355855
0.975005191321988
0.998121646967646
1.00045030076593
0.978890807678265
0.988469469037415
0.983779946724553
0.988210217715061
0.994271671844319
0.995353092133372
0.983010177056004
0.980863802180787
1.00528901262608
1.00867347051642
1.01189400888513
1.01276827261491
1.0448456475898
1.03923632523705
1.02950903771247
1.03156149606229
1.04894038638702
1.06024550213374
1.06900585652471
1.08761184211904
1.08470791024219
1.10639121717924
1.09596295722447
1.09611215316006
1.13859839443585
1.12379585356189
1.13805392954273
1.11638255305227
1.11224624997123
1.14743696479829
1.16363349383939
1.16700410340332
1.16975050731767
1.1791232752228
1.14872850243682
1.16131014009307
1.15744965733788
1.20433636307812
1.14579172517554
1.15089774617395
1.18450462824371
1.16506702933042
1.17979312186067
1.18272059858339
1.18489203724119
1.17565748253376
1.19139293607624
1.18914310852551
1.16659854962266
1.21049253276113
1.19191755335763
1.16605756452348
1.14852425015079
1.12673314449628
1.13333972370684
1.12291355227045
1.09983685639842
1.06267913392731
1.03753795798466
0.992837317200656
0.959473808838422
0.932029135123573
0.894851084478983
0.888821730092443
0.868352459080088
0.849283391553466
0.837488103798975
0.828133891786269
0.826491311356917
0.802791953721105
0.790554011472396
0.804553348145245
0.795563582108422
0.787512652373579
0.776037691042079
0.774348570621862
0.73622158722474
0.755182666546023
0.740117170525676
0.725513949773192
0.705571446072597
0.709477889869555
0.683519642241153
0.678224045410406
0.6539405818511
0.636678021583301
0.619694798807095
0.59976808800033
0.572172245822387
0.551599102790959
0.536529794766423
0.504212853071085
0.479407604019418
0.461902345002886
0.431454033928703
0.412989602466463
0.398991910470649
0.374770424427121
0.360930381970831
0.347670578931178
0.32687964643128
0.31375046249317
0.304103073605958
0.293282227043532
0.281002606605947
0.270010508241657
0.265905346292874
0.257040438585345
0.252253902670155
0.250529655489236
0.243805075845836
0.244134886267936
0.243186363377359
0.236249756983887
0.234843049575166
0.237793611218724
0.234186845897758
0.238777465705435
0.241290525096835
0.238021816803119
0.236766108403732
0.240584620569097
0.245752128370499
0.242780265405603
0.23933702830205
0.240834327370571
0.241277171746068
0.241321524222108
0.233040578962626
0.23312678686003
0.234008199822854
0.230030647111283
0.22529429273157
0.22976947951746
0.22134524604208
0.221577772864768
0.220549472207654
0.221941292951485
0.219075177587972
0.217883591500165
0.220926733566775
0.22111394240901
0.219861741488108
0.22535987805023
0.227354483300003
0.22769074858563
0.231018615141657
0.23138018394388
0.229653376572047
0.234533234262407
0.228450532524082
0.232797763649516
0.23953796127756
0.239445085489145
0.239329125599548
0.242386285359005
0.244335469244265
0.247343116160193
0.244701233253144
0.247967504779699
0.251679102512606
0.251100377892084
0.246673572956273
0.256548709206499
0.252812650115542
0.250952800567879
0.252702896544849
0.254458861919895
0.256355804656267
0.26421507718155
0.261895249633884
0.273712623101312
0.273439326176948
0.28627006430142
0.294308071579795
0.298818960462054
0.304445713672576
0.317035766924317
0.322608364952921
0.324904678782131
0.329948388699405
0.337587294084009
0.342792456537018
0.333356924777387
0.332069567600074
0.32555099808173
0.321826404253121
0.320053554516144
0.310533147540665
0.305718576905351
0.304639675597084
0.304131861602965
0.298951334094911
0.295739768664063
0.296066575260364
0.293092312910856
0.291569796827838
0.30244225194813
0.292357420812895
0.296231555346215
0.298859813838233
0.302023416868592
0.293286783723956
0.296666843102238
0.291840452157651
0.287775430524552
0.279618117348421
0.275195408064407
0.268154843118711
0.278918288091615
0.270229001796812
0.270734405203026
0.257352164480825
0.267971455898644
0.25696651332249
0.258924946402149
0.262435980189823
0.255622293218754
0.241914747678435
0.256169532529329
0.24910463706702
0.253466706319063
0.244186998155138
0.242691193174728
0.246373873735052
0.252036984298519
0.24717283613828
0.249700809404007
0.23789131177677
0.237374868974481
0.230312871164436
0.232235510775675
0.225214440007853
0.228388612944939
0.230552914112009
0.232534106745169
0.230377089942622
0.22931348482846
0.221618021631361
0.221412222794473
0.217690272514965
0.221664710696616
0.22035389903392
0.219645280310816
0.219433771072893
0.214198731816379
0.20558982989507
0.220232974690344
0.210148728658028
0.208172036685258
0.215513150578021
0.214612761899331
0.205048266875615
0.208684326867945
0.208067979969161
0.22153372127594
0.210164178074542
0.208559564464364
0.206469990523732
0.22115664689065
0.218754437062681
0.217032032725073
0.221549523221494
0.221902941271299
0.215364467264237
0.227571413698591
0.22562233219461
0.23062716717667
0.227148058047424
0.230949531189721
0.228215587227997
0.231368853667776
0.22306940446994
0.230983270469605
0.238888470823495
0.23744544503003
0.233093299723317
0.241583105574775
0.246719362895306
0.257530121701596
0.256102921510092
0.272281484719491
0.276045856760672
0.286424544453302
0.288260441918795
0.30451857579391
0.292417325050943
0.291616706344163
0.310524609042252
0.333476025281695
0.332766445492755
0.352185265785234
0.364097998091069
0.355861776013026
0.360104175595722
0.375418002477462
0.379639078110232
0.379598589608572
0.39904941203573
0.419105941198505
0.396116392790486
0.39612851578127
0.379816500290237
0.401234259072732
0.371228435855261
0.380066086702869
0.373649939851872
0.394821904750196
0.385538972756794
0.399772617592699
0.376143619474137
0.378733037771339
0.382359571337178
0.383424695260191
0.365690821908612
0.37726616716288
0.376950131889973
0.382009972913612
0.34793380547633
0.364422479618687
0.351238754313822
0.372328218429361
0.342206262691603
0.377893099047918
0.344530634023872
0.337075483780612
0.338564884152842
0.339373130914074
0.349061413395507
0.332160727532447
0.321011403171834
0.347825451069729
0.340036286078825
0.349836714216242
0.324867339438738
0.341779742959949
0.321542020158839
0.349955716801878
0.339223683304734
0.346238942677104
0.334616894506383
0.35841163217552
0.325289455923199
0.343173424319733
0.363261435014803
0.350963642284389
0.335076020976236
0.363677137625323
0.335004509210391
0.34019971566451
0.354378576890969
0.372457280634289
0.360096034656358
0.357018408814047
0.364932362364061
0.38186746768506
0.334297940992699
0.34274865447188
0.337988789655489
0.355394444428653
0.327778373355578
0.370209734899936
0.319540942751411
0.356672548164059
0.335946428773111
0.377057447547403
0.353527220320106
0.380323104284769
0.386572877978673
0.402569428764153
0.395038610177072
0.446984716416864
0.406781179723029
0.411334272104285
0.435513797403737
0.450879400448077
0.446071510639213
0.493098457268742
0.476428149070439
0.449380955534425
0.419537755324285
0.468860718162701
0.453810487440906
0.532948118418214
0.483611583248003
0.505734535346147
0.453604273503857
0.517211633891423
0.554948644884321
0.48188104415226
0.471124324650761
0.525445031744172
0.483412581139079
0.541583504713112
0.553300879922518
0.464911594542814
0.45427352047531
0.477612703368286
0.424771902567642
0.451005081581833
0.412511115998664
0.471748451176662
0.408374615556033
0.483378703911656
0.489716413820964
0.457234399588372
0.378688726157513
0.426308748896093
0.427431092144889
0.508390371333006
0.44669792779482
0.460089915121017
0.374430390930869
0.435462418370459
0.480008014645623
0.484094535467153
0.488347890623641
0.578560915492163
0.457477588062342
0.391862506384304
0.427506539970358
0.539703118209994
0.551964814164837
2.39422228305553
0.730528540053001
0.50972931356849
0.442862905042504
0.488722397183861
0.554849204542724
0.5090017617855
0.374828792017364
0.62768951340638
0.682267693083347
0.771504837108124
0.55097158242196
0.47990787375604
0.569912529072135
0.688700284437939
0.489629220545787
0.680126816254199
0.6136525609132
0.551974775431524
0.529950240840754
