3596
4000.36533379555
650.420452594757
1
2
2
0.0280661371282051
0.0206717219512417
0.0239045199141994
0.0361220334810338
0.0317972684397435
0.0299873451913626
0.0347046607366877
0.0275737281163355
0.0329047208837552
0.029722336656191
0.0420293635900545
0.0451269145973105
0.0242550994859034
0.0269705373777461
0.0337504923027593
0.0349813432418234
0.0215133011224804
0.0270441242451281
0.0297710005993024
0.0285981167506608
0.0202056715632858
0.0409059036372564
0.0303023321238457
0.0278479858954416
0.0336938627629274
0.0348063798238902
0.0267402001562392
0.0315757840347323
0.0272502479440476
0.0233527245483015
0.0361996111806467
0.0186476655809337
0.0333600861658179
0.0284989574810788
0.0183535786306433
0.0301337147876205
0.0328140334787879
0.0266216990798419
0.0414259424763319
0.0258854486829177
0.0349109022305883
0.0243791142872417
0.0270699127504211
0.0240416613313603
0.0452878138538477
0.0329170194489677
0.0367531966866661
0.0221487849980962
0.0278371716463994
0.0296727836841297
0.0258856446627551
0.0380278639718456
0.022347130345112
0.0225116093276681
0.031130156943206
0.0358519345725354
0.019015616204801
0.0332906287701615
0.0192632863439752
0.0281671755191403
0.0295786291197491
0.0341158919484534
0.0309458851127135
0.0282978993526998
0.0316769015773605
0.0330221883381767
0.0285887288132996
0.0272002189229707
0.0258629409381728
0.0276796993576552
0.0339053044095553
0.0170025319755791
0.0224540451076676
0.0390056999258432
0.0233557039332068
0.0212418163281718
0.0256751143454009
0.0316264342916904
0.0300580131717156
0.0317293995307993
0.0261474688424684
0.0302274565532195
0.0251608672928492
0.031391946903057
0.0222332872190132
0.0273796048728671
0.0260968454988165
0.0268621496840526
0.0259396405739406
0.0156821999946856
0.0330235773195443
0.0194187319768616
0.0224454541700121
0.0353282327570575
0.0241209319660626
0.0305442098480584
0.0193032169654596
0.0325148905662565
0.0264113837363712
0.0321615732160196
0.0249534725597132
0.0236265566732729
0.0169341049145087
0.0274749202960501
0.0210260733446191
0.0180358291940298
0.0138491565677819
0.0332881091847232
0.0286363119852704
0.0286596051105601
0.0235488243833535
0.0223360498324308
0.024837219181687
0.017510892059859
0.0314486347240656
0.0134420529699834
0.0203587647201297
0.0262190516141372
0.0254252776126244
0.0146028736397494
0.0342568238529862
0.0208955801901315
0.0049646300081007
0.0246527061815647
0.0267396758684901
0.0174061808042194
0.0208768633008572
0.0183703364507531
0.0142880434012979
0.0191586382602515
0.0248719777360825
0.0197971900867093
0.0226358072894538
0.0365230702166221
0.0204607117585437
0.0247113420958377
0.0222786738942119
0.0237409767190836
0.0206619112758392
0.0267514976876747
0.0109073112829784
0.0208731449537068
0.0210558958005512
0.0362880210062406
0.0295879919951366
0.0180612629483184
0.016511263398487
0.0147588210621627
0.0200676435724371
0.0244518513080004
0.0200114042121871
0.0231012908447609
0.0229916714026914
0.0246965006898722
0.0423099756815312
0.00355239002992618
-0.00140466121841325
0.0301632025472641
0.00784505568721054
0.028234538237231
0.0204550873087405
0.0247368702167531
0.0231045003554307
0.0158690842184665
0.0248777441744598
0.0304006859406558
0.035538200091109
0.0228965634905998
0.0224020618342803
0.0168312556271307
0.0152349991745078
0.0235922269390146
0.0312217123777873
0.0159557669579068
0.0118117335573641
0.014604314427737
0.0181257952726876
0.0179380995589988
0.0179965006420391
0.0288088396092993
0.0167374389008614
0.0296534539264016
0.0222846741014116
0.0272650599670246
0.035667639721901
0.0242840183463285
0.0214326745617133
0.028752847629607
0.021579897750774
0.0326581546193416
0.0207406619485325
0.0244231264229737
0.0228995386351989
0.00999118733303698
0.0190771387504009
0.0323907348090343
0.0157452287318563
0.00871440778028302
0.0167692773132646
0.0220585152698762
0.0221955809116917
0.0241836471029747
0.0261634571479532
0.0148939627526836
0.0274069597983482
0.0315674168052542
0.0177344632481638
0.0225253505993552
0.0167509431350899
0.0296649718265736
0.0239750008907661
0.0233441466677792
0.0293276810036915
0.0244866055310859
0.0220158679000955
0.0197734520339615
0.0227678490894461
0.0218068024470909
0.0202194841023322
0.0217106614992715
0.0201705836618812
0.0209393476903235
0.0269939172976633
0.0184433288590292
0.0256209433785181
0.0243662364867182
0.0227588465925271
0.0343613976537759
0.0225304093794806
0.025668469996244
0.0271774401709972
0.0296991563994341
0.0225323667188761
0.0242128471010517
0.0251393123310553
0.0245780570083739
0.0183025618880859
0.0241153050275138
0.0283495739804344
0.0276572063856675
0.0202998040201234
0.0180656103850509
0.0237587733678332
0.0329088764889213
0.0305965588112852
0.0214743299258793
0.00935469746103025
0.0138167629893216
0.0215563939102372
0.0388662339272284
0.0278267966479179
0.0255480942359663
0.0291795397095629
0.0230385770723868
0.0179075717679164
0.0248144521162978
0.0330995261325706
0.0231208697697979
0.0217217547318948
0.0307109062054391
0.0279529275614444
0.0233983997895096
0.0200125683367923
0.0251276384906122
0.038863230603578
0.0314593281550008
0.018004548984383
0.0335746311936964
0.00722670706641234
0.0235983247173983
0.0260370469493683
0.0269732516591057
0.0311274838686258
-0.0129475011419006
0.0135039358661438
0.0258628337244908
0.0239054680460484
0.0243703387755486
0.0292546214268663
0.0256150695486806
0.0197692964725104
0.0210192346831488
0.0213829139641277
0.0238160582165643
0.011823160863183
0.0284409843561503
0.0271241114968734
0.0282250021053402
0.0279020188978685
0.0217970415432362
0.0290475375399067
0.0286136193494998
0.032139634912453
0.030263081383668
0.0360768498874953
0.0291534407191322
0.0362124645167501
0.0283839358882308
0.0196398721717514
0.0269912714854944
0.0266503161543817
0.0269744356008548
0.034648387793515
0.0304877814070892
0.0294923777460056
0.0330111702592331
0.0292995430418655
0.0336386244191753
0.018225356098498
0.0363549318698171
0.0481530509503872
0.0302719157511638
0.0267364438402672
0.0292971888570601
0.032544110623204
0.0317299300944277
0.0287578598247576
0.0357602625173986
0.0478598480645544
0.0307715614208865
0.0280195808274141
0.0352747277748584
0.0324119143322188
0.0344057414257323
0.0395152291380248
0.0386353754852542
0.0299747836219897
0.0372971861085272
0.0253280404897482
0.0375663355424813
0.0452642726295644
0.029656815974676
0.0457454285690133
0.0497684512399242
0.0270883091424323
0.0439625479021737
0.0397264343302572
0.046015210393223
0.0488215134774762
0.0453115804803803
0.0447360453505804
0.0411091478553388
0.05401733132277
0.0508254471817882
0.0534463770780507
0.0553221798166631
0.0495285084385799
0.0484369369857194
0.0383337160946968
0.0445015405649817
0.0493352398509798
0.0639851881682077
0.0634663344001112
0.0438861912425742
0.062510126647701
0.0507330506290227
0.0531922727308101
0.0599501866693531
0.0538926214254114
0.0558648232803142
0.0617988515368735
0.0646430465395745
0.0703704256281592
0.0682776233911387
0.0668081056622521
0.0673331429639119
0.0692107144813894
0.0785831784057546
0.0784472408316304
0.0714281468657195
0.0691043465851905
0.0754960194439895
0.0969678644180127
0.0924264675225378
0.0919502000013628
0.0977588814509743
0.0796640788752841
0.0913326025620735
0.0828864121341669
0.0801392554601909
0.0905728466884912
0.0982078705715302
0.103798421898433
0.104236622427483
0.0945996602091425
0.0922029600796931
0.108851671473821
0.10827434164643
0.11903592944784
0.107672153585252
0.114047866013093
0.12378639406225
0.110745035592497
0.11635712717253
0.1269065357279
0.13893103022828
0.149254077513302
0.127906234737104
0.117408285257553
0.113635991155799
0.131631522580955
0.127592621710291
0.137594288941878
0.138480349870049
0.142715784043172
0.143942733249415
0.155283236618381
0.169256335468683
0.15926401894787
0.143599223974907
0.1425217449436
0.160528631641432
0.174614262047966
0.163315746319176
0.173103782655328
0.143838386114622
0.165595026431087
0.177055108905262
0.174830821268089
0.174902289068258
0.18679417182535
0.186449945688955
0.186416185740246
0.196357711253813
0.196581681905769
0.195167171353073
0.200788898406273
0.20306641497493
0.211375700985659
0.206663637049754
0.220431261950823
0.219589152619542
0.221529232805194
0.2174400552677
0.217997152773076
0.224715648943109
0.224589994945404
0.231981844345714
0.226628666710227
0.237839666918665
0.241808296438569
0.23540295475243
0.246669991177255
0.225688220755115
0.254818387527493
0.24561962598025
0.251551574903143
0.26379316597174
0.272375965763253
0.272089952530131
0.280198632559727
0.276107716495709
0.282885413024709
0.280639849812761
0.288800188408062
0.290664954698616
0.300511581085652
0.295627599592624
0.29522735635322
0.293412560252118
0.313885013631987
0.324729972432113
0.351398514721388
0.32048412903652
0.333767940752269
0.323399826235942
0.331229147203933
0.327296576946349
0.337470322523502
0.330324364179879
0.372683797376108
0.362576021836679
0.359378333811638
0.360944682892705
0.367385774357006
0.370071073829188
0.374225479874251
0.375714739299147
0.387938761925541
0.394721280078942
0.395138394741073
0.396548996284801
0.418673296387217
0.385976410302147
0.423931542199253
0.429606718561576
0.40912384471197
0.417275540744681
0.41398098314281
0.388719633778521
0.432550137735027
0.436925355529534
0.467752076328943
0.451701986765725
0.464412377586948
0.452616639592063
0.451531372712892
0.443755640008676
0.445422028396552
0.466874483464231
0.505994205830876
0.491848917732464
0.501012717154874
0.487235274257201
0.515200352040002
0.514316761308092
0.486838332373863
0.510154014229375
0.51541165944221
0.479945748332236
0.542629478553026
0.548063405608763
0.551439956956789
0.542350817176388
0.543126998049292
0.556337746443733
0.564561324120589
0.545292759051851
0.563659207457444
0.5479019748206
0.580863106138756
0.592514006180369
0.607743843706961
0.561093268863603
0.580735957311034
0.592069148941949
0.617401297032861
0.606643587377631
0.610434705037548
0.638819156046428
0.64271336688749
0.642103925704584
0.673853319742117
0.615389534238146
0.679535373968411
0.661420471822507
0.647332093975215
0.641096495842321
0.678632398206365
0.677098662197563
0.707236447197392
0.709330960208859
0.722859481392573
0.721251110665157
0.71007064363208
0.6858445020241
0.705409692084307
0.713013349575088
0.777815720885482
0.729063261200717
0.733757816638587
0.740869369353485
0.757039884022594
0.727332670902413
0.744808123394948
0.745133282911401
0.719141254886989
0.779858829746648
0.810761648783719
0.760078017607109
0.775278032168762
0.769477419892246
0.816977067614771
0.784467068819335
0.793985268118548
0.825108018796219
0.79138919718743
0.785417095655667
0.820809511295383
0.823320697150639
0.831934781138133
0.85938351176243
0.886591436331587
0.828942671310907
0.880209467706842
0.881393132113617
0.878072912092721
0.866031686187733
0.89593315869676
0.948873830148342
0.941983216237484
0.913622701584714
0.926391636259836
0.874604552622369
0.905135862547324
0.898155965660757
0.888695445805156
0.865567943609649
0.898294677274972
0.93926024095086
0.968229131359632
0.942759416107209
0.948528863820033
0.978805838173938
0.988710160082173
0.957254130197216
0.965345543729256
1.02516299993159
1.06451707668119
0.928571205837353
0.923300393636353
0.955190966535928
0.975044198552892
0.99215630861544
1.01252971155119
0.966096565220825
0.991389399711808
1.01596810990349
0.99890126632219
0.994198119110115
1.02464918577497
1.01961235899094
1.04473254682318
1.08545818313905
1.05610510843248
1.05686365031207
1.08998833903189
1.07441875433676
1.09440592111414
1.11979448581908
1.13385652401602
1.06050989479554
1.05431027281156
1.10431303580885
1.07835760768616
1.07084049930492
1.0703621650928
1.00811365181468
1.06868456146481
1.0817545590234
1.08095575422156
1.13947634258374
1.17122005082072
1.1784054087016
1.07477567645246
1.10813259456862
1.20248756824319
1.1790657666476
1.16076557585692
1.11103730738232
1.10237459994184
1.08912237073596
1.1160931918477
1.16063250005689
1.15198101209486
1.1568737263324
1.16711368033912
1.20390319979185
1.1355079799306
1.0844038617386
1.17690596120613
1.25712926608045
1.2397404980978
1.17994029301398
1.27162782887874
1.25277936256769
1.23116617904124
1.20660744320001
1.21831519806359
1.285703927157
1.21199247914514
1.30955716032563
1.2314342302903
1.17491258260834
1.2613790405515
1.30155018004026
1.16332178470896
1.17839566410641
1.23606047046462
1.2145577017319
1.25669157620848
1.24726152107591
1.18970102439359
1.24180086136189
1.18308725753811
1.2059955654288
1.34382212084354
1.34411158785786
1.37253369378827
1.39794210252204
1.39197344143671
1.19573372185826
1.19647683140128
1.37651946567567
1.26734453846699
1.28677233516137
1.25766332229601
1.25108265035572
1.28708318198201
1.27862672525854
1.26672307966122
1.30866227912335
1.20938258051586
1.27685009095892
1.35823317618038
1.19438318782582
1.2644469655848
1.34920125927336
1.27776438652472
1.31106979235923
1.35152969974213
1.33529189589185
1.25841404416472
1.32125597298131
1.30962626880427
1.33687000913127
1.2756803689703
1.35185144448615
1.36310580001068
1.25076944452474
1.29972208047075
1.34970526638212
1.22761436287518
1.30613304597466
1.40290306108073
1.25158249218347
1.27107623726856
1.40569162836403
1.29552824813476
1.40268613136098
1.33700788461278
1.20782777254671
1.26926854563987
1.36725814784678
1.21992105351427
1.2672478395828
1.24096780626524
1.41984437711785
1.32411362118143
1.26227510163633
1.34372754969024
1.32075162757966
1.31651397234717
1.30517688782702
1.28637778240622
1.38800316883408
1.43735577994099
1.35566840310492
1.3266389036967
1.31682757030239
1.2921170296758
1.34842896584373
1.35360449400193
1.35082311412305
1.30144606850537
1.34209781451327
1.30724121467643
1.35599885390385
1.34738635794482
1.38354749083489
1.31887722091925
1.33167819944775
1.29381795805969
1.3119198456502
1.30023051855035
1.39142878789335
1.32994458320951
1.34794345912919
1.33256854820822
1.35231149942627
1.28523079261619
1.3285435593204
1.40227778276963
1.30566545921736
1.25659866695949
1.45457096362124
1.28404770251945
1.26346244096256
1.3217651648974
1.37793263677623
1.23474824193876
1.33477053977025
1.31313094152027
1.3059250962369
1.25505380065542
1.30821780772814
1.32133687699017
1.28224583202929
1.26805478791247
1.35842930716107
1.3106393188759
1.38461244564452
1.31193663159314
1.30217490504596
1.22301057714189
1.29945624081749
1.34753290266401
1.26455986278292
1.25611750006645
1.25695045812524
1.19831655469498
1.3113113560403
1.31439154119644
1.31069297688434
1.27856531043205
1.29984853886569
1.23587901274953
1.37936760357923
1.27029481941574
1.28828893596747
1.27666240929248
1.29780927400248
1.25740365416177
1.22903322535993
1.24836077214367
1.24253704854737
1.17093825448399
1.25355660253863
1.22737517046465
1.30681967348504
1.20298394888182
1.18280149917702
1.27210264022871
1.32323554415432
1.20125901967238
1.29825302213743
1.23137162825726
1.29874377544376
1.19238320283507
1.23739166385702
1.18100343905729
1.25689826873457
1.28296468926648
1.24923370937293
1.25809959791072
1.2233172265364
1.2035609268163
1.20706695771775
1.16486192698437
1.2253123254135
1.13856120200152
1.18665100307388
1.24245120388037
1.22170002277525
1.11891378105933
1.13926854249082
1.22695489524828
1.20378977899931
1.14011692965096
1.20627567838548
1.14074348262648
1.18111469104594
1.20095908851283
1.14269814904437
1.11173577121817
1.11284353779407
1.12347170856374
1.16429216874892
1.11962326551196
1.13396300562432
1.09962015330114
1.10706105507761
1.09327135316027
1.12787599128499
1.08401087127369
1.05572066048971
1.07128653709247
1.09774871790833
1.10165425930465
1.12207652649072
1.08110778667885
1.05690352351818
1.01347613793492
1.05042543121173
1.03625839345051
1.05462232957452
0.992536949529279
1.08017758484461
1.03647397095392
0.983912160188184
1.01460873666991
1.02351044608056
1.03065384673604
1.08231460491754
1.00525143181085
1.047176696838
1.00096223568653
1.04755971840022
0.971758909223545
1.02037523966356
0.985723528338364
0.999621805169097
0.967286622374433
1.03213152479852
0.939783126850749
1.04339050832873
0.96725004176385
0.973190268797346
1.0037029194529
0.99893950338166
0.956937908638735
0.92487775443119
0.941459330279577
0.915860588786147
0.922801757314697
0.922765217293211
0.901155865161927
0.95413422938674
0.89630171192625
0.941252838523882
0.904376778210243
0.930833726248473
0.899873777604414
0.912422179063821
0.87201937799353
0.912507305054442
0.880572337831333
0.904135785206264
0.857016148741969
0.926436616360121
0.844533089380465
0.85908969448293
0.877110290392409
0.870780708049658
0.862839167339273
0.872704619810632
0.860510698760579
0.838277874950937
0.821385554224952
0.833589776376486
0.810752072335879
0.8192097358158
0.779243702759837
0.820001505226189
0.801460714194572
0.820822124208852
0.795788404101511
0.817137077460229
0.791120973383546
0.827568954060467
0.781501006342313
0.807345730059024
0.769347540539252
0.790840058262955
0.752814608335162
0.774621975557768
0.772301126504819
0.771335667739983
0.742185080579786
0.749820982845331
0.746494401362228
0.762432584268494
0.727711899073483
0.755171136230599
0.714592479483881
0.740880433318857
0.722578316776696
0.747073749735719
0.696867903117218
0.727184985812183
0.700828457496108
0.710186609046126
0.703439823381279
0.709141356719088
0.678799806927705
0.673705772789533
0.688540681695277
0.690714126914111
0.6772773044707
0.699850519794866
0.684512910774821
0.692431515348239
0.685518515569113
0.673451808782039
0.661179853529354
0.679280449741569
0.657126731754972
0.64859667512479
0.655732738533055
0.650079018375154
0.650282576659467
0.646196807258595
0.614451578783634
0.635300562607471
0.638286432017861
0.640719728906403
0.614436443894515
0.636970755349811
0.608459981955216
0.630922296512544
0.61131455296294
0.627629157869735
0.604506928738151
0.61484056744781
0.601984693589297
0.612887422310301
0.597186702958419
0.609661252471361
0.586760304941109
0.586419344125394
0.580235525252846
0.594962251221389
0.568049339694537
0.568077750559072
0.582460206745038
0.578220266140044
0.56553519767364
0.575144554103638
0.560288181146356
0.577792798869122
0.561808425946494
0.562426471540146
0.547112016279003
0.563213759141099
0.55808402139082
0.551824607897565
0.543324429415989
0.541346740856623
0.537858231102692
0.535586350275981
0.524261847088864
0.541725738126043
0.522563676032433
0.523746965709337
0.516366102321829
0.534925392236427
0.506348414823071
0.511862057156563
0.502989723791327
0.51564085502921
0.501748256733665
0.51161637612789
0.49729211575405
0.505213136214873
0.49374871529992
0.504499672612048
0.483345887321455
0.479209143114062
0.489167098503901
0.49199718529485
0.486335976526644
0.489634556666516
0.463819141562473
0.477285911866818
0.477734395508036
0.464999707211873
0.460199193170784
0.478771475757782
0.471483516245786
0.463379267798179
0.446993080448692
0.464961389395481
0.454781774102586
0.455787967326434
0.446983852529939
0.453124089642439
0.442856062908349
0.444680062400791
0.441246870064711
0.444677386037175
0.431483425543332
0.441855198926394
0.433278913566538
0.439917409207284
0.429323407173702
0.436609527917116
0.425891316038675
0.426033509791388
0.421457319741656
0.423978245222791
0.421219527170978
0.423010506906552
0.416198781687442
0.422166946658284
0.39943318657287
0.417459476560301
0.408012322029718
0.406339336361834
0.408277380755574
0.410471909766791
0.405037226439976
0.407126808306343
0.4128149535065
0.419113757768449
0.394880262437703
0.406883146593631
0.402365764385991
0.404723789154038
0.413292707329928
0.401446966045004
0.400331116358331
0.408674587680994
0.39907752912746
0.407010381716359
0.396486657531152
0.401518499631876
0.39960117063877
0.414956131503778
0.413294231213396
0.402323856488384
0.405071627304597
0.41639922236126
0.409781057009789
0.418973493592674
0.419852901474377
0.419750606809628
0.415652160690398
0.422273146837017
0.415242300363426
0.436359000720765
0.42526099332796
0.430400433156715
0.43269544030927
0.437330639677731
0.425456425187367
0.430898707123039
0.437270691540468
0.442933556016384
0.433838704131331
0.440092964762257
0.440446786170094
0.44905538844413
0.453568207224086
0.460364492910666
0.456349922721194
0.463563875720129
0.447119634683799
0.453846101355195
0.455724756598639
0.47017051878757
0.463670945055561
0.475117880643584
0.462194560320644
0.481892572581932
0.477755912452787
0.476002091712065
0.477856596342468
0.480269008856065
0.481770139418592
0.499356638571303
0.485818479200773
0.510468128993225
0.492788301546353
0.511619394960109
0.507878373110127
0.522914959104974
0.520335870503714
0.525751205439877
0.524242717325846
0.539108616115183
0.531521107467921
0.533325019049218
0.538236087255399
0.544829626534139
0.54979202205572
0.554932237965514
0.538700839408962
0.556083620581615
0.560228680918414
0.569926139470644
0.5522354026554
0.564078472677845
0.543897544977941
0.567590732118439
0.543232812052104
0.577508206176857
0.564081998975576
0.552351025665576
0.561658821951812
0.566132785463057
0.554588364051838
0.551755511609132
0.557125838810247
0.554773202785619
0.545767375683982
0.567444784946731
0.54176135015633
0.566330665277819
0.553493011645325
0.551373283995418
0.545756273984678
0.550965010869282
0.535555466161151
0.553020429666563
0.546028031706587
0.559104029513909
0.545968336064512
0.559972545967247
0.547723398830882
0.556615918125275
0.553771447807733
0.555898763482458
0.547582613971518
0.56796418207095
0.549890158769753
0.554338382875248
0.55824682317293
0.561246557503526
0.546554663742688
0.562455166618073
0.553361020171357
0.573423842592104
0.547909828421014
0.564427044214785
0.55334220688723
0.554835577458943
0.550065448515469
0.55037637912768
0.551395720573029
0.55622835229291
0.549481204051001
0.55614571102038
0.549686580666245
0.551439083198871
0.539152849914954
0.541854296938145
0.548596303698382
0.555185412959048
0.530390876964817
0.558093206193096
0.528559053734925
0.542559609620227
0.517681602805653
0.532426226619392
0.525626991326208
0.524196650755461
0.51444658313899
0.522999985998165
0.507312228621492
0.522891220308022
0.510362582898669
0.504584670041901
0.496932755881992
0.502499692725369
0.488143625925292
0.495760316374418
0.479192832196811
0.489126848608659
0.470331497541678
0.486886650863362
0.466506327785856
0.477803615159236
0.45708097476843
0.46380630311416
0.45989783946637
0.456462013771557
0.455200876648749
0.453236026873057
0.444849008122761
0.4483891663408
0.429037957266072
0.434962036797864
0.434430088019478
0.432103327315972
0.426183431239859
0.428596570214949
0.420779673745925
0.417497540124078
0.415464587265464
0.415965084073016
0.407401628110182
0.412154544566075
0.40451412850711
0.403933544269527
0.403321919807566
0.402363521638177
0.401335704112077
0.398494556611791
0.391761287718044
0.394984659022729
0.39372237504214
0.399345884921495
0.391441006602429
0.390393714681718
0.382977252203647
0.376704654810842
0.371633123629038
0.38933413962771
0.370278717051056
0.380122564773973
0.367783081001769
0.375909369425766
0.361230686205191
0.369311237712716
0.360287897929228
0.369006568886254
0.363603916034917
0.365123024398601
0.357795011427496
0.363566017527056
0.365622529144974
0.370424572474053
0.355288133515815
0.356506745804252
0.3473701665325
0.358035994654407
0.354468820305595
0.349962213335521
0.345425984923338
0.347183395841288
0.349270599219456
0.34244711807173
0.338053686533334
0.343904218031586
0.335764914634747
0.339748212989599
0.338469739728129
0.335363901668142
0.333763650255445
0.340011370439135
0.336683811743035
0.330212968485704
0.335542835710642
0.323278085833352
0.326599519028902
0.328500691598809
0.33077782245063
0.329978777956542
0.323999162015337
0.322534571122727
0.320118284034695
0.323217924855136
0.322618408291008
0.325912906535059
0.319659747237143
0.321084263467552
0.31088898724409
0.323402815720967
0.316077910807603
0.319510483712971
0.311969387352161
0.315917150462048
0.308913360219726
0.314619913456832
0.312865592438866
0.3147390372015
0.305764906662849
0.305755184628564
0.3071288954989
0.310832017058648
0.306709846412113
0.311200542529793
0.30645816902073
0.307229090104192
0.309234753330146
0.307942536101226
0.301645239485277
0.300980708368636
0.294077640071016
0.303147104545102
0.297988821768092
0.299250134503145
0.298408096492023
0.303186897038393
0.292626664858009
0.295209466987008
0.299574386021779
0.29809713270461
0.296897071274228
0.295077982349322
0.295502947682652
0.298004372898934
0.294676173291941
0.293547926980395
0.290054019228396
0.295154670048756
0.288942919978145
0.293496692036837
0.292474660533141
0.292046370651608
0.293112501898081
0.289850311543247
0.289769587346611
0.290756493154909
0.289137534919055
0.288880241502292
0.287106767100582
0.295158709335126
0.284401295394812
0.285097509155287
0.2826137380536
0.286911249215407
0.286237895848003
0.285080155608666
0.282441964901772
0.287632677548739
0.28025610420603
0.283711922720263
0.280234853939896
0.289209632894944
0.275774634896819
0.28086186742246
0.276942982574328
0.278286175006111
0.276067777577747
0.273055262034646
0.274101862669121
0.276187104028934
0.277731649311159
0.281862001073235
0.27421475796417
0.277892405293162
0.275536288125715
0.271877046508951
0.272390137164092
0.270171455349612
0.267509993758786
0.271880985323643
0.271207169495262
0.272563140900614
0.271294083491385
0.269024032203913
0.267742847683818
0.268531099010298
0.266700544405381
0.264368389032729
0.263284399308978
0.25697622225309
0.258863902878407
0.268308612003605
0.261666210227836
0.259611756074737
0.257500404822852
0.262915693565745
0.262441899690527
0.25822556442441
0.256897937222961
0.259431366665236
0.255699716792406
0.254832245744312
0.251780804188206
0.259281194764552
0.248574472990877
0.255490865480196
0.247667523998371
0.251973216499152
0.252160216194121
0.245737239953739
0.244004407985496
0.248691152565486
0.244092066177119
0.248575906749703
0.248243850597946
0.241721992246073
0.246108992615808
0.24767215841983
0.24366702799704
0.239995799675863
0.238924776665953
0.240669476468356
0.240570689304663
0.237847793693892
0.237184259912173
0.2399664270216
0.230065217341094
0.233910459319382
0.237894579206839
0.235658175184194
0.221228250537035
0.231035681819356
0.227631548515358
0.229017809076798
0.23092455590738
0.226704996604804
0.22602785912821
0.227502632968034
0.223066107205477
0.227174075835148
0.219775203301889
0.221506029393604
0.215671211348837
0.218863789427627
0.217297334559523
0.219738164421621
0.216433251213293
0.216760119420462
0.216667487566771
0.213682307215206
0.212504366190851
0.213934531365642
0.210658866638326
0.212683413102736
0.208503688106505
0.208466576845945
0.208123217233701
0.209512015908297
0.203318337864412
0.202953120514575
0.203013250362965
0.204983277141154
0.209829890537065
0.207696545828923
0.201845338411149
0.198433414833528
0.200938809822306
0.203923251394725
0.198424900276891
0.19674988240668
0.195413835556751
0.192352949837177
0.191392555008662
0.1951724612342
0.200170430403266
0.199537369804905
0.189914653423737
0.192723205188076
0.190655897852335
0.193568370168916
0.191948891010088
0.187201715779962
0.188065911008107
0.189764657188218
0.18548208012923
0.18975994288885
0.184737690374354
0.189451732495497
0.184736300319424
0.184542916937385
0.183675287198553
0.180786387684041
0.179180493340399
0.180617093215139
0.180271117221538
0.180067569378533
0.177785733125125
0.182484221280117
0.181117400991492
0.179341640160202
0.180247659195727
0.177866078389561
0.176425473113394
0.181528889563224
0.17700739504804
0.171631634635898
0.171561003019357
0.175266435942284
0.17448105318509
0.174498574255524
0.172306434508044
0.172262004826385
0.168205797671563
0.171835725134382
0.174695898534513
0.171786064010363
0.169969449270979
0.176508831203272
0.171066187360365
0.170453420396446
0.171022236161888
0.169775428901208
0.169126876334342
0.171467085591706
0.169942380188391
0.166671516889561
0.165428414373463
0.168748098532585
0.167144762408611
0.169835267473254
0.166582494090868
0.162530173468575
0.167988029595145
0.166467634498722
0.164000185142904
0.167224325340661
0.165818263297461
0.165377673402364
0.160905498754372
0.161979849034593
0.161278215083566
0.16190132065281
0.159688069735501
0.16081801320377
0.161340617083804
0.159192046787
0.15705288592867
0.161937765111466
0.159796612488066
0.159329060661358
0.152837024021399
0.15634090639355
0.161137967587785
0.155380355006136
0.15496999946843
0.159000495664511
0.155202122328949
0.156126538590118
0.157485057880159
0.156595938641965
0.151999611507401
0.153696934175264
0.154678253098622
0.153061861999608
0.151627180547525
0.152100935149356
0.15447863568279
0.151321883474338
0.151644954457948
0.153548622074992
0.148788344486986
0.151278561780962
0.148167486488454
0.150973102258416
0.151036844493255
0.14964936223427
0.151440481737022
0.147922601781876
0.143114986414443
0.147580878710787
0.148781760302856
0.148424509018909
0.150659294490547
0.149073168877987
0.148593656321177
0.149291472529603
0.147794298858823
0.145409876654354
0.144499416992571
0.143193263054933
0.143009566139588
0.142956636858509
0.141735610799128
0.142046931241499
0.143345517972546
0.142704694870826
0.140793241770576
0.139679222714805
0.138923959044031
0.140013242539376
0.138597130292902
0.136706132936135
0.136433307238561
0.137599225940696
0.139256619798752
0.142116312970969
0.140352062577167
0.136320826019226
0.136916956832993
0.139902297054677
0.133935550111821
0.133410366964718
0.132801923241609
0.135737081793591
0.136137713999072
0.131173287533392
0.131308857069234
0.131626592959093
0.130979232809444
0.132081159807525
0.130163810777156
0.13062740494805
0.128431669354707
0.12615800470351
0.126771346195286
0.128188824054297
0.126213264561987
0.12552974924698
0.125769022849272
0.126127793825608
0.126148963931622
0.125426217347012
0.125286447405375
0.124585310069555
0.123556950723945
0.122219698502746
0.122639992304302
0.120763372058899
0.120984044192017
0.119194471012897
0.117004627751782
0.120683642550309
0.121040079350913
0.118802401298015
0.119292655576771
0.120574896350578
0.118549909247251
0.118024780937817
0.117435647684085
0.116419665954111
0.115894102788297
0.112251675771607
0.113987582221108
0.116472166074817
0.113764022353836
0.10982526435855
0.111083025939417
0.113735655375386
0.112236591730148
0.110980818069775
0.1115788651453
0.109061547871915
0.110264629325995
0.106636567631087
0.105875782752153
0.109610131385616
0.107973116756571
0.107127362189745
0.106376882617683
0.104794842877907
0.103585099111399
0.105665094863614
0.103977395529432
0.102678072408633
0.100741158568773
0.100124513272627
0.105634841228437
0.104090036598999
0.102885395622704
0.102366905222501
0.101606119672608
0.100387571137613
0.100571576723577
0.10104134582914
0.10016098845913
0.100813264781978
0.0987815634488224
0.0984537755548842
0.0982839905865511
0.0980553030700229
0.094629915383852
0.097591990456368
0.0973607342310368
0.0910987866049277
0.0951642967625352
0.0959605920868418
0.0964146497572086
0.0963154863801271
0.0960714079824542
0.0938986863939245
0.0936521503411942
0.0936115563815645
0.0939301011130332
0.09427642511254
0.0938687339417321
0.0949083937828537
0.0926127807674036
0.0909162007326571
0.0902922949087169
0.0901116812514894
0.0922496673148978
0.0926659176086838
0.0927070044598689
0.0909477027268745
0.0917910694801467
0.0921530981353464
0.0919515558003306
0.0898368847412114
0.0894415142337111
0.0878362466269159
0.0888953133848673
0.0896567680055277
0.0901551848198522
0.0909920640676252
0.0904461094420012
0.0915220756902493
0.0921959165953558
0.0906092494571639
0.0912321987390059
0.0909224097628191
0.0861280145439308
0.0885632133505156
0.086234881883835
0.0851661443954167
0.0900725551660339
0.0855500595598021
0.0895012718194595
0.0906671921867204
0.087441993913155
0.0923569774561331
0.0878825491625801
0.085952818655514
0.0875112857740837
0.085871846082583
0.0901745251676968
0.0889796175644789
0.0888349363830616
0.0855618605551205
0.0818365089226918
0.0867664528341167
0.0823498224866025
0.0821739310179367
0.0866766589926738
0.0840474750337791
0.0835634595669182
0.0825265467232891
0.0803543480895427
0.0849919438156756
0.0863814074774039
0.0838521017576684
0.0861790693557891
0.0826895624572106
0.0838149449985459
0.0856567979991842
0.0864790739494292
0.081756848648008
0.0846378516694847
0.0832680579942196
0.084321199952765
0.0844528437203357
0.0845872500100667
0.081461550205182
0.0833586524497255
0.0807032124794252
0.0818742972470653
0.0763264683663153
0.0811850874696533
0.0823118672124858
0.0842854957807155
0.0814136974068566
0.0784141893316542
0.0767514915664721
0.0800864160210599
0.0819724077492818
0.0831125659362352
0.0769156566150821
0.0781637608979142
0.0791521591543326
0.0747023965931927
0.0776022070139641
0.0773348705464358
0.0812646518258215
0.0786842440582987
0.0768875767447098
0.0764626942595656
0.0777369384883402
0.076775448258806
0.0771342640219089
0.0796616938351802
0.0755338289092367
0.0764505141550418
0.0753703467207037
0.073975799681477
0.0781182182196093
0.0757475791686216
0.0758519455687253
0.0776522238174968
0.0777093742660705
0.0744511440805104
0.0744581058536736
0.0757687734153717
0.0750506223212644
0.0736145273884582
0.0758386453891623
0.0751015965549735
0.0762386698653484
0.0774298988963511
0.0777725182790653
0.0739830949967195
0.0728409742926329
0.075254016214676
0.0732537344686129
0.0738341856410046
0.0750918243200291
0.0766150605351012
0.0759428835990136
0.0728060536523508
0.0765489932109861
0.0768357515612588
0.0757533302653247
0.0741715644225785
0.0731451705794516
0.0726337210102242
0.0725181386878125
0.0728432973572208
0.0730379751247517
0.0753029260540955
0.0762130498759904
0.0747953593422335
0.0736350938882495
0.077321126016186
0.0760052543042339
0.0736565936490533
0.0741405726367807
0.0763590087593603
0.0763717782265658
0.0782544831103677
0.074642378252735
0.0730866274574159
0.0741085922205888
0.0756908093507719
0.0742983088797959
0.0719112045116005
0.0740821578407006
0.075987896839462
0.0741258409932069
0.0738579265195517
0.0757985735679761
0.0742722173962577
0.0752169046394347
0.0760593258464355
0.0763975163649618
0.0734214817876376
0.070713478395376
0.0737193893545092
0.073405153401179
0.0736169996340479
0.0774843379740204
0.0758621255570456
0.0748280177806673
0.0735704184793713
0.0748276638200049
0.0733724196141831
0.0747582059413987
0.072626996884758
0.0738840817177731
0.0749286910036636
0.0727449021244042
0.0735941084852822
0.0749919414897979
0.074703566753286
0.075665943207034
0.0763581876832656
0.0793437442612922
0.0763248347174306
0.0732485070687796
0.0761338414486432
0.0753485774316746
0.0763672976794982
0.0774384670434893
0.0768374257382474
0.0758107339685256
0.0743063557801091
0.0764925157078529
0.0767563330190654
0.0745439758077384
0.0763662892822246
0.0759417050572295
0.0769179093990705
0.0773024159012951
0.0748121639506738
0.0757840881367651
0.0775684978768297
0.0781202664702405
0.0755058869106737
0.076377843994053
0.0772717265341479
0.0777147137741803
0.0776286183997745
0.0779390915471956
0.0757633307197519
0.0752082590947158
0.0780862773524891
0.0809115787200087
0.078441219757555
0.0778498711912527
0.0812091575798326
0.0769760503112971
0.0759206686040205
0.0756643133683585
0.0755007865682491
0.0788026972499106
0.0809294654969668
0.0794870533561559
0.0785707554526976
0.0784139433954057
0.0772555414337211
0.0778143671452256
0.0752882815799336
0.0811179324396907
0.0798824767372031
0.0808933377294196
0.0787559733931177
0.0800965307531751
0.0789428262758421
0.081402965999447
0.0774917521552824
0.0758568552675546
0.0801256292230808
0.0812701847994717
0.0815937405472066
0.0810286195049825
0.0777898086123504
0.0819057686870832
0.083956547135949
0.0807755953556707
0.0820746597000475
0.0822838117979875
0.0798176058524794
0.0828760715114837
0.0818905817282394
0.0782711974827768
0.0799274985946321
0.0800611234876364
0.0825766651567633
0.0823183021613735
0.0831614062513723
0.0821800813304249
0.0810490795729204
0.0842564268663842
0.0825092478676467
0.0825051554834442
0.0816739737295212
0.0814377291357408
0.0818672664693722
0.0829715020811269
0.0831992110092799
0.0808580697602613
0.0804914417116299
0.0849349456570772
0.0807461189769565
0.0847742076540153
0.0830585941297304
0.0845964738642281
0.082515598788156
0.0775017075275085
0.0829455970993045
0.0827961289571713
0.082849453516225
0.0802556729607619
0.0786072683189326
0.0793030777982855
0.080300356055145
0.0788334926995012
0.0806023261419625
0.0823983104328408
0.0789914290029919
0.0776281438698347
0.078114383909679
0.0793485728071904
0.0783833375296983
0.0787821551936972
0.0808779972092338
0.0772463674240993
0.0795663388349319
0.077732756788263
0.0789277624539365
0.0778696054159399
0.0788398806181978
0.0787919757072679
0.0806521161421975
0.0777289710337622
0.0779348785795731
0.0773037026595629
0.07737995832418
0.0757269798729464
0.0784511777578703
0.0763638725891284
0.0783797834226653
0.0763175541143968
0.0778903814044386
0.0773310229591729
0.077932918072988
0.0769071383931504
0.0774184442187997
0.0745948524053598
0.0754977590163363
0.07768721005775
0.0779117656871312
0.0780480981963654
0.0753646603049317
0.0766853830495489
0.0748617528937896
0.0757171281237097
0.0751412461356389
0.0767222783121577
0.0755704034005553
0.0771690957708703
0.0771019199811627
0.0737180508245875
0.0749112857432208
0.0753149543405683
0.0756846092311597
0.0720208061920943
0.0756726276007178
0.0766950899283754
0.0763868977083386
0.0746700423406445
0.0741064847247433
0.0730354072989251
0.076075327465674
0.0741660204540629
0.0751294985186196
0.0744380637400352
0.0767167335571187
0.0748436082570624
0.0711508843960215
0.0754284144290058
0.0734872013402969
0.0759712264487729
0.0745172174248497
0.0755091263163535
0.074080637371917
0.0729407559986873
0.0723857902952716
0.0747481055242275
0.0766031819577974
0.0720711046391058
0.0730884021427042
0.0730797726635488
0.0743141282367284
0.0717299112754266
0.0731463054189457
0.0742976163997447
0.0725872476022504
0.0706385677366219
0.07246303555589
0.0743447787373652
0.0694341643673811
0.0749147071337375
0.0714877688869175
0.074124740727263
0.0738491574869251
0.0702798171934655
0.0742425789767609
0.0741911065708226
0.0704503209335083
0.0711973627716845
0.0718053157681145
0.072677612314261
0.0720715299665262
0.0705517413191222
0.072483794542376
0.0679786442914412
0.0688573380496648
0.0713930530941736
0.0700961359467354
0.0715422280939233
0.0718896619558549
0.0715124701266517
0.0688220696438577
0.0691151236541707
0.0734723803377859
0.0700116137593903
0.0676762347449453
0.0696639417027661
0.06731254521752
0.0688359385662308
0.0660108153844716
0.0682572035498653
0.0709994518016993
0.0672907767789497
0.0695361862572617
0.0659676929755503
0.0677426288256426
0.068357240040589
0.0640768533348809
0.0698869404393417
0.0658129766094706
0.070938551090481
0.0653442376156907
0.0665108256133905
0.0662407795378792
0.0658007040334299
0.0659005926868787
0.0662846320257847
0.0626133350742524
0.0632102787518815
0.0651810698042354
0.064213925143357
0.0647239484461879
0.0657204124654224
0.0646922962963752
0.063565858726464
0.0625937609267218
0.0624120591733234
0.0648810703750318
0.0616670943545101
0.0622145302962074
0.0623847651145202
0.0608278429151422
0.0632536322287915
0.0629567927465318
0.0603109933645589
0.0639693842850457
0.061393251942325
0.0643635477858607
0.0590557546775335
0.0603929222419143
0.0584979616293543
0.0615302252842187
0.0604951281869544
0.0629052743730317
0.0602668226573786
0.0579781587323408
0.0575848505254314
0.0600305836791281
0.058129239454239
0.0611031647588095
0.0607416111329049
0.0620214828333261
0.0576805543806652
0.0589390608709557
0.0602537419178583
0.0587735399096724
0.0589774887165682
0.0579524252868374
0.0612085510963284
0.0592380325909444
0.0586425275778099
0.0565527166191074
0.0624299192865501
0.0583505433317627
0.057847397620288
0.0582767556577581
0.058289430807978
0.0579738943883734
0.0594882684952634
0.0576616235714026
0.0589750278469285
0.0568189996838778
0.0593205292991389
0.0578479088084663
0.0580439582417525
0.0601572622265756
0.0583151371201434
0.0575330767665606
0.0579052230714323
0.0576638079551106
0.0561474912936352
0.0564212889914228
0.0541446950828695
0.0560456203653342
0.0536005350373158
0.0580364325542828
0.0592995878965064
0.0554147468458373
0.059480605567998
0.0545112921118993
0.055951830438554
0.0564320934337076
0.0536740226667923
0.0572194887523809
0.0568405237746152
0.0593169040566221
0.0561887684492301
0.0534765402518458
0.0567714758627826
0.0569046966485773
0.0547597439093647
0.0551933902729896
0.0549208124918295
0.0550774578860219
0.0543934257813452
0.0541712169501334
0.0563374596402191
0.053856852901794
0.0569829286225452
0.0543094898282179
0.0554914448825635
0.0545238476756477
0.0548249445196904
0.0535339371181211
0.0538529735049373
0.0547912232340288
0.0542738141007079
0.0535804240525952
0.0552875254516565
0.052458298951684
0.0560173155909364
0.0543641425672879
0.0552193283437385
0.0560076429621624
0.0538763306844962
0.0539579211137082
0.0547226813356306
0.0550898159650556
0.0523720455298882
0.055831437281209
0.0556325381922408
0.0549945252575243
0.0556198495664689
0.054436849530599
0.0558425990877468
0.0539704120918133
0.0510759109959918
0.0540059580517879
0.0559708220114585
0.0554083087009548
0.0536543693306429
0.057021601459156
0.0542113126080455
0.0517509667759433
0.0532865431887015
0.0534736767366444
0.0526059465893104
0.0573231369328785
0.0542466898883772
0.0555157689149017
0.0513671213076966
0.055408838998773
0.0543094459047232
0.0531357937825504
0.0556412952469926
0.0551543597617459
0.055099863109567
0.0569151617098587
0.0558087463244347
0.0529178211576014
0.0554258986937038
0.0530709705817879
0.0540685635834065
0.0530234028526417
0.0540179440076112
0.0524687361750971
0.0559383772428252
0.0527674383376607
0.0546546431883796
0.0568954094475287
0.0550066910000149
0.0554121848879852
0.0528607080078067
0.052698668002093
0.0551481345471809
0.0532124904988324
0.052816398701343
0.0542468226096156
0.054703994330799
0.0554747977440989
0.0536854625799944
0.0558598945817321
0.0554555584785746
0.0561584210615761
0.0554479839909798
0.0565224184565694
0.0555981123309134
0.057336324024346
0.0536644448261806
0.054745846613007
0.0548948701080125
0.057727241708561
0.0538120424298939
0.05545315199748
0.0567544948650984
0.0576723188919475
0.0577705801728315
0.0523119784154479
0.0539745553310264
0.0565598066410457
0.0523325207558249
0.0557114025936104
0.0545747317984619
0.0595758884174356
0.0565651078707904
0.0557818077146703
0.0580657097899118
0.0548673661369204
0.0555261713510124
0.0561986840547802
0.0574148204264951
0.0610372838745054
0.059135553196139
0.056635789877688
0.0580683772319447
0.0592122401709302
0.0596358172532832
0.0575497835355493
0.0558278592441016
0.0581806051278039
0.057931669061164
0.0569050275276459
0.0579909614589941
0.0583628377470429
0.0583814207451697
0.0584562837054283
0.0601677758036323
0.060127693586514
0.0590925650451739
0.0581851774208042
0.0588455042226214
0.0598368666919083
0.0614684503722187
0.0573931904019809
0.060386895948946
0.0630486791302195
0.0604663181270029
0.0618174758912208
0.0595499875153111
0.0637864795958097
0.0604641870199899
0.0631552134040959
0.0591506056414511
0.0606457747879036
0.0608554253881217
0.0607743256958145
0.0631779630823369
0.0647623571466839
0.0636104502132934
0.0616203522984266
0.0612406691191055
0.0663459977401942
0.0639239576879502
0.0665176810636223
0.0646002847986767
0.0631020304911332
0.0655297126689983
0.0661556164969231
0.0663189741009678
0.0667121263411036
0.0650606449705194
0.0664792257652097
0.0666910520003923
0.0650170362836657
0.0683785310716243
0.0671076983701236
0.0687331794208298
0.0677452125051207
0.0682135208847097
0.0706618415503655
0.0663963912041855
0.0695042397981826
0.0698316596898167
0.068406745509648
0.0665355884199681
0.0698350531862038
0.0679995166308537
0.0712508040083516
0.068372099779204
0.0691123058262196
0.0714472274602918
0.074796249297492
0.0728990125499687
0.0732929648327348
0.0734813246824794
0.0741056675064512
0.0728790097198384
0.075273574872212
0.0769650006791981
0.0793168421677844
0.0775602109451569
0.0769447652500384
0.0785610195629866
0.0800267727891777
0.076530774520648
0.0807481623763727
0.0802460444439972
0.0797859654238551
0.0859428371978693
0.0806506255420109
0.0822023164733737
0.0816754721055677
0.086162379247782
0.0867332453685054
0.0909349477536267
0.0905969023465045
0.0886818637496108
0.0925673394242745
0.0938645829579832
0.0913787555605986
0.0950095365370971
0.0933284513480811
0.092742980670572
0.100397348409767
0.103364198834993
0.0955312330570184
0.102035903760615
0.103328070097648
0.105499630682216
0.107156068552048
0.104440681919272
0.107406451737309
0.109625280674195
0.109169186921658
0.111156651157516
0.11268548821692
0.112406929628968
0.111695020090978
0.117767012280511
0.118396140981109
0.118138019971097
0.117705608309639
0.129166912135639
0.121547182214896
0.125789086370498
0.127123397329883
0.125151440840221
0.128573418496265
0.126013610199381
0.130173926890791
0.130518057619782
0.133706682978194
0.135363949060937
0.138919775000427
0.146153746955843
0.140958378005749
0.145344272470771
0.148126709032228
0.145412766957837
0.152051302526864
0.158996996423594
0.147522542138678
0.160600030714487
0.165353492838937
0.171524644955136
0.178230173523068
0.180178419778499
0.184985611403541
0.197087104029497
0.198532765132511
0.203972884855463
0.20863522889381
0.214809560351992
0.219162649041279
0.227497878512278
0.236098558959973
0.237912900405233
0.25655061948372
0.260515184317638
0.262878539505741
0.265389906527875
0.27031374043868
0.278874836883172
0.289291849279437
0.291002192676461
0.304655529202175
0.310402108425765
0.314331694542035
0.328242489962801
0.331048556851795
0.338984604901323
0.348526406286039
0.353093214185942
0.362057759116583
0.368831033851328
0.381411728716266
0.381742780597617
0.395446200657862
0.398037211760142
0.41694682548665
0.410367530556036
0.421214018039957
0.424201650146923
0.432199274382475
0.442426677573779
0.438480510807838
0.44685582513828
0.460476215501743
0.464042108408308
0.463899030650988
0.46714090223566
0.483562627775645
0.506640735875954
0.500131006825546
0.467716447262888
0.480846067409711
0.483389283286211
0.501430275960489
0.495413462631679
0.503765207329023
0.4911931151693
0.48187008447258
0.496531632714769
0.492960641255124
0.495703130544646
0.499956710513864
0.49948550864221
0.497468601282742
0.497973269271536
0.51169657931192
0.496752911858833
0.5144164569647
0.498116844612058
0.49526381253918
0.489931651764328
0.500352198521026
0.491359331509359
0.49613536806182
0.487979234259654
0.496289190119351
0.485522464503865
0.481047050310678
0.485394356426905
0.485929909741787
0.469341126573253
0.456294062296284
0.461586455203082
0.454978539054643
0.453406945099668
0.450246932064718
0.440832665285852
0.466718768306162
0.444329363433715
0.436045937414451
0.437521326475336
0.43248359798336
0.432427431570112
0.429753827636598
0.428240720674332
0.423400735472135
0.420791201824696
0.423307158256929
0.414952931399465
0.418490636854159
0.420432250048163
0.419710114016544
0.420035701388154
0.413443313759108
0.40934880102256
0.405515058416551
0.410700152436684
0.410250633892516
0.409207875749082
0.408261029698342
0.400672490975082
0.407630901897597
0.407025920179893
0.410383019368764
0.409225881832102
0.404684886240511
0.398674446782516
0.404353192748387
0.404947611714737
0.406323101130302
0.401505394941769
0.398521033378122
0.400519913868952
0.412563933172056
0.401900924962955
0.396410488867745
0.395115068956355
0.401229285851211
0.39593657413217
0.392736429524869
0.405351229685806
0.39825562895157
0.389921566613907
0.392261321023173
0.388090487193988
0.387960927697682
0.380454047924494
0.380114581864349
0.385564849707417
0.379234935699532
0.382206012539179
0.376970633753592
0.378695694853102
0.371258670174979
0.365025458009044
0.369671742764541
0.365957652263869
0.362251077341794
0.371223057751598
0.363660368752042
0.378967837303075
0.362984254427128
0.352193721936164
0.348785090666281
0.353350404583505
0.347741023015533
0.345186776887351
0.346880924305178
0.350932908987679
0.348418690217574
0.344296531105759
0.344664588610643
0.344241089097344
0.349865555924734
0.337787619521275
0.336906890979288
0.341174809872503
0.333953810417836
0.33654879272895
0.354557378562632
0.338732842726359
0.320518746357563
0.32279694072638
0.328673218841818
0.31904385032758
0.325681524836313
0.322057939567647
0.310257897259918
0.31428469033053
0.311056557939284
0.306065932891708
0.306431417525035
0.309914839059197
0.301012582287006
0.291536237187933
0.297825391617888
0.292886236259032
0.291630963963685
0.287495360971929
0.297138852520373
0.288446683328918
0.282378150284796
0.286896386219018
0.288183230271742
0.283528466478543
0.278603751832564
0.275104377238241
0.271311664047279
0.269961614056523
0.276678706867262
0.269025977657047
0.26583663826322
0.261396631512128
0.26360121891378
0.262288826643123
0.264612117145207
0.261962138035747
0.256518105572728
0.253661962280342
0.254125517652272
0.254699993940716
0.251262654674008
0.248816278783902
0.252421568600975
0.254900665521007
0.253900605300864
0.258801858609241
0.256835522690567
0.256377818546403
0.261605929976014
0.263374917406283
0.262133448940992
0.265681914091304
0.26993096178898
0.269830325652224
0.26946423731538
0.271706969378311
0.275779938462937
0.279308121966173
0.284129709994286
0.289742551199203
0.293232890756986
0.302585401321431
0.307995329489457
0.31293672654818
0.318591171959589
0.321204381367483
0.330393712497536
0.339313180794952
0.339001834828933
0.349167670848121
0.356189492371053
0.359318387854738
0.368323546098306
0.373703599064092
0.383416610572731
0.388821547411639
0.392197826450004
0.395981804438167
0.402643298374263
0.419199049577069
0.418973657613106
0.417849420303918
0.423957449867136
0.430424988682511
0.431296429361525
0.44162011162556
0.447387562985335
0.44323570964388
0.44670814860527
0.457842361998799
0.463568200570587
0.461877391033773
0.46821681259167
0.465573478280456
0.465770481786782
0.463324635871902
0.4670205043265
0.481146531398733
0.4756326245874
0.477601830062219
0.480885876022843
0.484781197166547
0.49245655668316
0.494738106323262
0.497407022772612
0.495154703394077
0.502055433000868
0.500456906702057
0.492804314033802
0.526174771642588
0.513265861065047
0.512098933697693
0.520841634297897
0.525603202151912
0.52323125737446
0.529598296899951
0.543028565258091
0.545432852619981
0.555181552258671
0.546588333330879
0.547829834425448
0.558644045529491
0.55343324742875
0.566780314167817
0.57093373241655
0.566863149141459
0.563852649205744
0.57755293452611
0.58309677294172
0.582861609853819
0.585238346551708
0.583453352738044
0.586825980076926
0.591967492880007
0.590938441353203
0.588530166190609
0.596871543610871
0.592783639477876
0.595999280306072
0.604029256385367
0.600833143087542
0.591537333069428
0.595161664913336
0.610437015439509
0.606483058415205
0.603916750555971
0.593263579726079
0.595267038182974
0.599320741236056
0.602933555228188
0.602500218855869
0.591828522703626
0.599219071914872
0.597630329650042
0.590289319544619
0.600958981271741
0.59801570051192
0.597825298698198
0.603348087731317
0.600353346596984
0.598719251780798
0.599074514796969
0.603336028172309
0.604613303550512
0.605190781432563
0.612303594904478
0.62318594038098
0.622852217708237
0.616139328071258
0.622459724947642
0.61923119612431
0.625238457374461
0.630350872422093
0.631088995363183
0.627874217715043
0.628247342734376
0.627680912040146
0.630034016563943
0.628390012950971
0.624006811599229
0.623586415635079
0.622813644508352
0.621012918984882
0.61294000324847
0.610714590400304
0.611229302424802
0.600881310046688
0.605943226849559
0.608277656812253
0.596701777537132
0.58985115158093
0.584249934274277
0.581696385789047
0.578654122245393
0.568929237286663
0.56928851513855
0.563844600152248
0.561469745535619
0.562042040171478
0.561980957817058
0.551390762296649
0.555942463971303
0.549222430585385
0.549129180263109
0.550672894391583
0.554657987471647
0.551535724325142
0.54827582944169
0.552976245968978
0.55247566832297
0.546075088837902
0.546798654767577
0.546282510200418
0.54491083568534
0.543858623881406
0.541928100124499
0.545753935261338
0.54534164310417
0.538797164754547
0.542590198687577
0.542779991359183
0.538423876527242
0.542218419023193
0.545633427515827
0.537620931485415
0.540722319458219
0.540631422911826
0.540516200765384
0.537746103182876
0.543194854933095
0.534895900120462
0.541210581990533
0.539429338382586
0.537968140774258
0.538535333889443
0.539144947359601
0.541752853629618
0.54203746948122
0.545923211297488
0.540863585101158
0.535908944223371
0.539607095156016
0.537920921201231
0.540950614806393
0.535476194051445
0.536881284677672
0.538021561668224
0.542118315430186
0.538790094356685
0.542730727912598
0.542255752806574
0.531542253901336
0.528733167147996
0.526604847640986
0.526863526187091
0.523811137347756
0.518865745570764
0.517480727743165
0.50868400022459
0.505923691122442
0.504107008189553
0.498989345632392
0.493600313852933
0.490971559100313
0.487214325986958
0.485441370256701
0.482718459928061
0.480038745295076
0.476417516699799
0.477961319195006
0.471241423120829
0.471215244300724
0.471343188083102
0.471425682381337
0.469425941918502
0.467831464970916
0.467855919454571
0.461948354644104
0.468318487191845
0.465805355364785
0.464576595838099
0.465497366904495
0.465788708745052
0.470637771943846
0.470284794833429
0.471508625428424
0.472165889230986
0.476619539370045
0.475304187567283
0.478202700526731
0.478194905609993
0.480534420741107
0.482118712458206
0.486308294366077
0.487147545006891
0.488958083645007
0.489526061737922
0.490154037128838
0.494264622863087
0.4976011238973
0.499323500322428
0.496431122912455
0.493764656635327
0.49625635075031
0.493590695195533
0.495351206034068
0.494690353373157
0.492847986108753
0.491607645912639
0.488137995234004
0.486361623836773
0.488310302455523
0.490792047683562
0.488288836760403
0.484867687976531
0.484704464973678
0.48258085874552
0.482037700143448
0.482600539639505
0.47969068204305
0.47545526039667
0.478380623193375
0.473277773146027
0.47324469306595
0.471025947755774
0.470459495457335
0.46796814299476
0.4652752238729
0.465995660514756
0.463788227490297
0.466079875198997
0.464404042273264
0.461203030789576
0.458742402312014
0.454863529511131
0.454740166260938
0.456062505424422
0.451990435799982
0.451794649867839
0.450133485448503
0.448586104506838
0.447490773845408
0.445787871533515
0.44262996771855
0.440335900497078
0.43660891468865
0.431933424672873
0.433781587672408
0.429780488765843
0.428412064917899
0.422541445999983
0.423376628307818
0.419450532812794
0.415222960658126
0.409105609772611
0.407378839609442
0.403801725668032
0.400252539451784
0.4024749021687
0.402238973157175
0.402480838732764
0.4008806605315
0.399293459575145
0.397967746145362
0.394851429927244
0.393031863713379
0.393070765047488
0.389245881024014
0.384664137720071
0.383161411378532
0.378275281694004
0.372932925505782
0.368791516523495
0.362759707106226
0.359103599250009
0.354668643565371
0.351876815219555
0.349881411100552
0.347825612437104
0.350625691668975
0.352506906534641
0.35676954605079
0.363686309838663
0.368671091438218
0.378323051280412
0.383843259900955
0.400193344717949
0.409792912276358
0.423337502593016
0.4355167923528
0.451265384547003
0.470648829711396
0.48635996257875
0.505719157608884
0.527493814563603
0.536898278201414
0.553299274019534
0.567932583777692
0.587215005476298
0.601710023290097
0.615597438376235
0.628438504477354
0.649021381803491
0.659056966285474
0.671702887328061
0.68718296521002
0.69814509861495
0.713189745885063
0.722169598259311
0.731281512705102
0.739131812275651
0.738848979757938
0.75184766453219
0.762423205323629
0.766445052506436
0.778508835784331
0.778911585681417
0.788716479797604
0.783222952420219
0.783170640506568
0.783678186442986
0.777225666616061
0.788815923979204
0.78944018143987
0.785839283984265
0.794937313669361
0.793496477429444
0.800817949679016
0.797367456904514
0.802183014992601
0.801457569843322
0.808737929976332
0.811021514180394
0.825469517370525
0.826188089004345
0.825942414416106
0.833208377936151
0.843907536509868
0.845192136468301
0.863180139506734
0.868831198734402
0.871319525922652
0.875744025631651
0.881690973882182
0.905247998417243
0.919046266113197
0.933389906328963
0.9474304211461
0.959655882297645
0.960165605285378
0.978243276887135
0.98050952286629
0.998759190348384
1.00580716530293
0.99879114574172
1.00752709048969
0.996068352088019
0.996709181900066
1.00508633273813
0.990804851200143
0.993487362550192
0.994632412828877
0.992360678361676
0.978711404116536
0.972409265543022
0.985166171193356
1.00317716837827
1.00255233114062
1.0207254685368
1.03197439427876
1.03821343016419
1.05153084434388
1.05687716899272
1.07807401907177
1.07944361958007
1.10014579509592
1.12485910713609
1.13566143859916
1.17738183028988
1.18330378225505
1.19659330810622
1.2122625776488
1.20766783738046
1.24964763166056
1.26318910286052
1.25612616752269
1.28583399346593
1.32626433036205
1.30709519914655
1.35455001070777
1.44533251763953
1.39011693047946
1.40118960138516
1.41020056030338
1.45875307344538
1.43958574137502
1.48028424260646
1.51004651494375
1.49255295216926
1.56096109933325
1.59618046796818
1.63204952950725
1.65260483773744
1.5719250933159
1.57283328605406
1.62074745846988
1.6205589817488
1.6320214809708
1.65531122235178
1.59420685423447
1.61006443352466
1.61053308189138
1.64303083267187
1.64294870050268
1.60255567190011
1.63573075743485
1.62281937818751
1.60089945954404
1.61651876217365
1.66118121608254
1.71286694079879
1.54022325716689
1.64447533136204
1.66580777527145
1.77501680010055
1.67638787510236
1.82982190214127
1.68277909204732
1.73957144118131
1.66715511224131
1.82589723373767
1.70155091355388
1.73420774847658
1.7930266813841
1.9851783158073
1.83392460638187
1.93098157406468
1.86925078626845
1.84059421475602
1.88026010912119
1.8994598670166
1.89571484550187
1.93793953448659
1.85166815910005
1.81691534559878
1.72225446843439
1.89380752474237
1.87848344990761
2.00225350175667
1.86030012719421
1.94048345082751
1.8563757126078
1.98223650420995
1.77904989766077
2.10232483054315
1.83470889965861
2.15341382245403
1.97749917167132
1.92034201764289
1.88494796477531
2.02572113409338
1.90478111357263
1.92663652436904
1.85381012604364
1.88892022015148
1.91072466095468
1.80141568049292
1.69443946082139
1.78136243976197
1.69270390503643
1.66303914561504
1.5508975899216
1.5441708556673
1.51859046327171
1.51697049249316
1.3829616267696
1.41392819019688
1.36469164656982
1.39964991331179
1.36714080142508
1.37556754425803
1.34047090883983
1.35863871839078
1.34135174731618
1.34336434676672
1.31599717389097
1.29580870184822
1.29870445013118
1.26288307965348
1.2825693962204
1.26905256423102
1.19947264915281
1.23553575963651
1.18580526932681
1.14313122553732
1.12871133265596
1.11660909584048
1.09299882840441
1.08139273285286
1.01861566596502
0.995399757800911
0.962110522336668
0.909595345790518
0.866347359276299
0.831282496834712
0.807236550038859
0.761059742731241
0.724938780513451
0.705075600096227
0.66702208970317
0.637906243224963
0.615260480580086
0.591621270143462
0.565185542123948
0.548016772875601
0.524949335743032
0.510473939040925
0.502512588171366
0.49099396723166
0.475085903262925
0.47558792229734
0.466009411895177
0.459345651761133
0.44729249992674
0.447691142022561
0.448172799278751
0.45144937044171
0.45114271172333
0.445847989558773
0.450260729560876
0.447968445775861
0.45389937563792
0.454192063787119
0.454606367638215
0.460646571834913
0.453048485668252
0.448922109663868
0.445575736617525
0.44742909835665
0.439863629286231
0.438736123398899
0.433854076914514
0.437246985202363
0.424594279650211
0.424306103196379
0.416933397955512
0.420453149994019
0.412445707068908
0.41404668826971
0.409110188230557
0.409965765908428
0.407481252093168
0.413058446089876
0.416178008298686
0.416622831783766
0.416299604306862
0.42565928041759
0.42708996792209
0.438951343398916
0.434818846552065
0.438974425079809
0.437649540732184
0.440757704808004
0.445776827715022
0.446931727474272
0.457254756058427
0.452332794259381
0.451124918814161
0.460831133003226
0.457069137027949
0.457684016005047
0.456110625876069
0.462595806921366
0.457764739406809
0.461237244569023
0.450612017847877
0.47705667475248
0.467764565242344
0.481583754633586
0.477938174583686
0.480847802368277
0.490880228944548
0.499651060425547
0.495888459268692
0.524089220939172
0.538209241571928
0.552367328536932
0.564374278586932
0.582621219990343
0.591692281167555
0.598107699867624
0.61817102031768
0.623389410586903
0.610050415512162
0.61951559359098
0.614181992145436
0.600087403992735
0.597886317348752
0.601079199395835
0.572866812773115
0.57832899839055
0.565269526908878
0.552105917891234
0.541231168959264
0.546206963097618
0.53607787046226
0.536523435839394
0.538937484800423
0.559929844781803
0.547849043934377
0.545356979358366
0.538413924067566
0.547875426315793
0.542100973744378
0.542542188954891
0.535975522835348
0.520124827286473
0.525203024637756
0.505243212964958
0.513424828224581
0.50065490774475
0.502652432209311
0.508272237548131
0.483965334891025
0.492110911853775
0.480603321042174
0.479914947072499
0.479047749600214
0.471260113774764
0.476118986906689
0.467148129541743
0.463790512419592
0.46765316432606
0.463194136671467
0.468292716349238
0.444048776420127
0.470108031854676
0.440631230818471
0.446764607893314
0.448023186083757
0.453322423684159
0.437487301180735
0.43816928640565
0.434359553765989
0.435606899132448
0.426407296591544
0.44067723399559
0.414755653494675
0.419927413862233
0.418419825239016
0.419263336009223
0.423360292193263
0.412203381709064
0.399722205693955
0.418242421086649
0.398480054906529
0.401101546866425
0.392222122842988
0.394785363918794
0.398280212538143
0.404083968582206
0.39221759748582
0.427397814437998
0.402931721682502
0.390044454678666
0.39133236011382
0.394057215922127
0.409780873722215
0.418442342103133
0.402274293934873
0.40222695211774
0.407625864753574
0.420468120598386
0.406349091916504
0.423063729594964
0.399630825093646
0.401493297302603
0.421184694996234
0.427910918482241
0.417847005682647
0.428655081274379
0.433621725270657
0.435020419273991
0.428116469500738
0.439484756784312
0.436145842795207
0.449651752667947
0.46779377679622
0.465041488785647
0.473306517352579
0.468844380380306
0.466555366666404
0.481695871214686
0.507470819151438
0.502229038177497
0.490928624067015
0.53546870577872
0.530361666250865
0.566749033239391
0.597384101646049
0.601484122900053
0.612670806867474
0.62194417156721
0.664140938041249
0.670120795215918
0.675413088297933
0.669413490734801
0.734944976558598
0.697361540127764
0.706668592972236
0.727866800946651
0.660673033552214
0.71538890000149
0.722505264428603
0.745238302942958
0.707956657704181
0.747207018298216
0.741821442665207
0.726228157752242
0.716933565819153
0.733061933268042
0.690298074786202
0.722820412619043
0.663548978232582
0.701278692452145
0.684482143192561
0.693434978964048
0.677784275128237
0.702651129983313
0.672764988431733
0.670803866972809
0.673972372631328
0.700718055296537
0.659210753833917
0.621393525923897
0.655246703626329
0.656753627687824
0.616450308331415
0.652263900613217
0.620824018399312
0.618154961126312
0.600732707107787
0.621418491912427
0.627239630857821
0.626275820640093
0.613791980155825
0.619981488231685
0.597573680854342
0.619317405631579
0.607453392801999
0.59010385460377
0.617191791215723
0.64260401059719
0.648832434805231
0.608523770591665
0.573071038489065
0.65302570136975
0.63618232314764
0.645460447938608
0.585649364612339
0.646829814448035
0.584771443733752
0.616658784879903
0.600423981502014
0.636598702320209
0.612041430926361
0.686746662535063
0.631597970435863
0.634666302000578
0.684875018246471
0.687349473611675
0.698421312229785
0.747802030827418
0.645939931273275
0.703341412855919
0.654610348434638
0.709860874513646
0.696293846187848
0.76556054167835
0.675805058112536
0.736455702770765
0.74793152069575
0.71759344884555
0.771285812636728
0.777836468284798
0.792533943818489
0.774913240908753
0.700632680369092
0.798518019496635
0.834300892059503
0.816475401166453
0.726861428991689
0.91686442825326
0.802152924010407
0.873850631496204
0.937885372101989
0.941520486800807
0.842303467208216
0.92682581040346
0.735412291955867
0.958816058773212
0.938227908953364
0.858943475022929
0.898356911130309
0.948507907700001
0.804440442188962
0.972908918757809
0.734979752016061
1.03353199857187
0.781180942780699
0.881610596308486
1.01694604873344
0.907048314979464
0.618920785704864
0.805889455632819
0.747934274412718
0.810114092134088
0.740073316294088
0.991594073397707
0.729040973617617
0.789055014598678
0.715553366153957
1.00852606062057
0.812844938248849
0.629121681515241
0.831298422732235
0.971471729083972
0.716529520780491
1.1718728618848
1.01976359116555
1.00092311216201
1.19770286339235
0.921400902127007
0.484265977550709
0.619774248517446
0.941148739626399
0.805016272759261
0.987657621592735
0.789807530865039
0.958121514081257
0.983195503069003
0.781573293755587
0.724003289506407
0.878216004698371
0.979294630240503
0.640484965812786
1.8505733602561
0.529383631751729
0.636947759070876
0.854190221594203
1.97375344296595
0.747642834405017
0.723013260810169
0.800798185304728
