3596
4000.36533379555
650.420452594757
1
2
2
0.0603862673391809
0.0600680372830642
0.0571128437342841
0.0619119899728186
0.0651154606069387
0.061765350196961
0.066704513266882
0.0679487156879869
0.0645699893573586
0.0656794155486981
0.0701611165202356
0.067633355830656
0.0473812053110478
0.0597824459798303
0.0614994687060701
0.0587246220782237
0.0578404401246195
0.0537150583839818
0.0589783860732895
0.0544631200405719
0.0588716434541038
0.0617188251427812
0.0662441013638488
0.0526214252998891
0.0677947662919342
0.0639354429888087
0.0609486934491459
0.0612495052815898
0.0652603537031812
0.0634732698641819
0.0637432793933875
0.0585357828552654
0.0659482848872909
0.0634491941862436
0.0492190283320734
0.0627799101269982
0.0635858479064118
0.060188277206613
0.0564389997213926
0.0597571591158031
0.0548915498062145
0.0510892992424616
0.0544395257778973
0.0534133692501182
0.0569190271956063
0.0581093586129045
0.0652368201176889
0.055413592653958
0.06095564524769
0.0597920970147759
0.0564359371418274
0.0640218404510272
0.0485247049831413
0.0542043200528116
0.0648313680401043
0.0633450635493387
0.0559067267487001
0.0571038719028369
0.0447626776523397
0.0561733233312386
0.0582758276339999
0.0581688865210961
0.0562747199709569
0.0576349104481366
0.0721711705372118
0.0627207703982038
0.0542461858724916
0.0589525253534079
0.0489006267732337
0.0463189213989633
0.0646356221429054
0.0503634565459293
0.0493561820661299
0.0604863293086029
0.0420552901015491
0.0477386825610626
0.0517645016097444
0.0519611631351089
0.0533557901176208
0.0557828540103037
0.0572255125920023
0.0656660770527587
0.0579956158832461
0.0504728945637235
0.0454229113803066
0.0488858956031386
0.0557715270750968
0.0638669008601703
0.0601552944737498
0.0471999798879025
0.0584895883582126
0.0475190223192074
0.043216662508607
0.054464471809672
0.0546114434561576
0.052445055306172
0.0473235447232048
0.0558571947508457
0.0441420984733591
0.0594540482792991
0.0549050416936417
0.0539783260440756
0.0374977468438832
0.0540787134742051
0.0488987027906068
0.0314836657762303
0.0548334046227179
0.0373122874943309
0.056968022562033
0.0480476662597408
0.0459312744091009
0.0572962701699211
0.051352577380916
0.0413108314285976
0.0571028218271483
0.0364642605054064
0.0345817168679288
0.0483063697476688
0.0574520743701729
0.0474344214119224
0.0462191662222995
0.047274611647911
0.0279893024200822
0.0453392238498487
0.0550549970664505
0.0442084270984754
0.048403076760445
0.0370916052544284
0.0407709640906773
0.0496674578273956
0.0534228967255566
0.0346495307265228
0.040673608584466
0.0473556506958482
0.0441277483114784
0.0496561938003963
0.0460931220919093
0.0473702265156487
0.0487078084346831
0.0494473422600387
0.0352591649204008
0.0333193395293699
0.0428837209828195
0.0593900360344615
0.0493043849859312
0.0384206423458368
0.0479664387124424
0.037808933795847
0.0388885545367451
0.0443642257362917
0.0327364470698288
0.0534452825371196
0.046355121690296
0.0449046881980639
0.0496193565781797
0.0342012551975065
0.0160428344766242
0.0646696348164972
0.0319250159249841
0.0509062890695935
0.0425353892690586
0.0501683433883217
0.0412179281948771
0.0427990061369244
0.051025033827996
0.0520142371178692
0.0517576704325917
0.0480969526874147
0.0466218516715464
0.0452661416906483
0.0460644954221505
0.0472497535445517
0.0519383513807087
0.044536761105498
0.0383388119163169
0.0364279724182212
0.0401204698402162
0.0408885873815521
0.0354593101577097
0.0524602506676013
0.0388828447997495
0.0450710510214191
0.0392638957700436
0.0531867202444844
0.042530245420436
0.0524850824360185
0.0485283425506032
0.0584344689037296
0.0418021728512655
0.0507802763333878
0.0487993490384831
0.0487899555066997
0.0459585461124474
0.0373218294114862
0.038111474734858
0.0597917872934403
0.0561447440834688
0.0318751712920446
0.0365415750440792
0.044928043045223
0.0460834759771016
0.0450336896802626
0.0446100002401722
0.0386468348336744
0.0452428069107919
0.051879024696772
0.0431161590610444
0.0477049171133818
0.0347392018846655
0.0486626973328612
0.0483290894152175
0.0551728061208274
0.0545633603056441
0.044565655640925
0.0478349583568592
0.0450076997622558
0.0526282066620094
0.0414245300160251
0.0417512862401256
0.0442506378514728
0.0449961109239868
0.0453905882827685
0.044761686428583
0.0492916124449705
0.0475318260865887
0.0471578486512852
0.0452530553548429
0.0479189256780672
0.0452122615923446
0.0527725660485253
0.0456557911363805
0.0501854313148877
0.0458679918135672
0.0450735521813331
0.049659621239266
0.0482842336220601
0.0386646561790322
0.0404166592620079
0.0432703172181091
0.0564314373230744
0.0422837387385732
0.0441847203302761
0.0504691528250238
0.0543495161741412
0.0506453850833633
0.0540034005356704
0.0395567989634482
0.0421516492799898
0.0431946746648618
0.0436261673225384
0.0503784419713338
0.0398280444428256
0.0389621076779475
0.0495673130393396
0.0430590220475678
0.0447671043391548
0.0538977788878345
0.0486955362090702
0.0403837949696045
0.0573339646906473
0.0528232695537197
0.0482829436933536
0.0427949320176817
0.0420898145703103
0.0721763961497518
0.0531846880404862
0.0481435077634613
0.0519021754724548
0.0386993518007047
0.0427188735665717
0.048107237445064
0.0499076659299713
0.0719476133136487
0.0596697480400541
0.0292611168341113
0.0425006202141854
0.050032357011696
0.0435872636038818
0.0530855037274285
0.0503159061766864
0.0517014813725738
0.0664240167227153
0.038612966032715
0.052659779961197
0.0451302270415617
0.0621436448721219
0.0595701389175339
0.0413991157613465
0.047879584565551
0.0482166912452486
0.058147478237311
0.0565059058334261
0.0523292323973375
0.0513460072655378
0.0609534757545265
0.0509291106561781
0.0621252724693125
0.0593931479231056
0.0500728782887276
0.0512301952130634
0.0581833452870519
0.055143480679154
0.0611767371261038
0.061798901073409
0.0593802703776681
0.056927614343889
0.0526344751177881
0.0565694771106434
0.0584479282260086
0.0506946479788435
0.0771360732306477
0.0613319088290202
0.0582159538546508
0.062131054001643
0.0616422929054297
0.0647000302871493
0.0572380429709812
0.0689955888000574
0.0719695020526744
0.0652764828587618
0.0573754577096739
0.058893751154264
0.0651606518192965
0.0639610337630561
0.0659132098799067
0.069930938183034
0.0667911052772684
0.0663032445817406
0.0627751480062741
0.0685842322578287
0.0734534825005552
0.0582020758661192
0.083149029926999
0.0864456123979116
0.0521638513755579
0.0656328477357633
0.0604573254303746
0.0764673697515322
0.0784410015712864
0.0768118718481371
0.0796155344673373
0.0748158519848725
0.0816554279280157
0.0864041159920272
0.0832976805908229
0.0878621349649404
0.0868772520534396
0.0849047468312805
0.0628273082766107
0.082581422383551
0.0781678867626553
0.098514855144971
0.107667956506999
0.0747326219208923
0.101526647322726
0.0908213109440493
0.089714297517185
0.0934171140592176
0.0920084828571563
0.100389317204606
0.103673579657211
0.0995474934983084
0.103147615564043
0.100996014319237
0.10723106437894
0.1062547853317
0.105855846094085
0.121686754861275
0.1059588087699
0.103255823271808
0.114199207307383
0.117475973488221
0.131106712608418
0.134414309645389
0.133206965106783
0.144916829110009
0.125414360951954
0.126781983653925
0.120611158464298
0.1255823955815
0.133258872045281
0.132950383599348
0.142279391232176
0.152402516222387
0.148309999816442
0.147303441426414
0.145464514022988
0.153914974566205
0.157822600758712
0.156696406198006
0.162865552613741
0.162047018641364
0.173543704257312
0.166987909656293
0.17459435434382
0.183104506999065
0.21564983574537
0.184377744366539
0.185922452149967
0.165612204775693
0.187540263688872
0.179407192524345
0.188913975934479
0.183619371135725
0.203734492062984
0.204195341585435
0.220206055374559
0.203459389498442
0.208786882251961
0.205903415514183
0.212728134591724
0.227078847457806
0.232100090030931
0.219208369386523
0.254803275205523
0.22770352390275
0.225844451467394
0.228991240454102
0.250470303077137
0.247280854856722
0.254434477672772
0.240978438413878
0.260437559729869
0.254906636132211
0.268531010339825
0.254474279185453
0.273478948498575
0.270644106792237
0.287170664561186
0.278272068007293
0.288017966506752
0.287623670137531
0.298386159482977
0.305455309374885
0.298771570776429
0.311487190771144
0.31587015126541
0.325171124424704
0.313147162640298
0.313244514115117
0.337954548032449
0.316481019339004
0.327321460214364
0.301504897820058
0.34165725587709
0.31739804212534
0.334419837269731
0.350682701692044
0.381364323644738
0.358310934747866
0.360352355973224
0.366039816942809
0.369047061835498
0.372958880801586
0.38207845828529
0.389254756784877
0.410960918962373
0.382632738866686
0.396251696176017
0.408958820868568
0.407471352367077
0.414085870449758
0.447667145363322
0.422323962816163
0.456787083477151
0.428477044962156
0.420552800829786
0.438771488752436
0.440890650710346
0.436997868734763
0.479316481999094
0.456118499313172
0.469394109468541
0.444872701165147
0.485539037558338
0.488493731942182
0.492153372380241
0.45846783868008
0.492773306776695
0.507898031860524
0.506644743966109
0.473663183547333
0.527052913580952
0.516793407915121
0.525697796612049
0.523240274266498
0.5552143228371
0.556722304310115
0.560290018405881
0.545291120600124
0.555831369217992
0.556345846762316
0.572791726810096
0.543924873171087
0.592940605856255
0.593125511675085
0.590340779668987
0.562935693815911
0.596735640633303
0.580758860067966
0.609707107595667
0.601317812898486
0.609076392808893
0.626299547453688
0.653925229609688
0.614889407573801
0.672543755301217
0.653880937145761
0.686385401686723
0.650114224707223
0.643635052232973
0.712529542434339
0.698329525602467
0.667053933285742
0.674598782352258
0.680481074875214
0.725224444350987
0.683819034485047
0.724496301153239
0.728099981020808
0.743511747360155
0.744455205400118
0.728391854750036
0.710012603453772
0.799426031116095
0.788463940304218
0.755604538470472
0.725702146611068
0.742560933402803
0.758906663588282
0.797675377669002
0.778583424900956
0.775670025864695
0.801930463907896
0.83883051376532
0.80085955610568
0.806665371591564
0.769669411838892
0.856971361287945
0.843729953784702
0.82603715790053
0.851142876777974
0.919086002006421
0.891842228060122
0.847549614171679
0.82737113295797
0.922796849388101
0.882101816750749
0.958411979750672
0.894454036486492
0.893437833151846
0.869766623942595
0.88134085305118
0.89280238516911
0.964884822468253
0.912314111709829
0.943752788086245
0.880019435365904
0.948271400996805
0.986179056852969
0.999065545335997
0.942568390726871
1.0650501338058
0.97666596766069
0.987451402092914
0.962352662797991
0.970976373164673
0.936397871550799
1.01791862438776
1.04668309760801
1.05288802401441
1.01940550543627
1.06906576445818
1.03502355028567
1.07345558502278
1.07058110932009
1.05100231833214
1.05938893814359
1.11437819059518
1.10964898072761
1.14266487815705
1.10775346546581
1.11015896496844
0.997473834132537
1.0469363193676
1.07633955564962
1.15422300156799
1.1113056036837
1.1439812989069
1.13827340165599
1.11603036780505
1.14303978209513
1.21605277070472
1.10576434744696
1.21484527857309
1.19483145215159
1.22762952398926
1.22649607309528
1.2204656793118
1.23432897606104
1.21694668335397
1.17022652781966
1.16271994967358
1.09628980259322
1.16394073552571
1.20641925549443
1.24529705161622
1.26175374521902
1.32687178104177
1.18310883385555
1.26016411995272
1.2435290423772
1.19882925005647
1.18034375250009
1.28834775553581
1.34697673002398
1.2375502334884
1.3082624935924
1.35237880289962
1.28575440532569
1.38642430394041
1.42997976180147
1.45032871676549
1.39821637240055
1.32304245037018
1.354328712838
1.41082630384111
1.33034992291712
1.31695286371659
1.25837887673103
1.40385496097686
1.34532434241022
1.26743535875142
1.37501615220819
1.39316875900032
1.30182774380779
1.47671421777635
1.36713822578033
1.4501188430705
1.39378405768536
1.25663732478007
1.26228293009864
1.31957538528468
1.52758678984906
1.50048735712626
1.3945134278545
1.32310260138197
1.31413138129361
1.45261590562049
1.4035207252239
1.43673266837591
1.42367724107318
1.47277589243621
1.56269916153339
1.57248945828928
1.45458242537628
1.59374254260647
1.53966806689486
1.48237395914008
1.54065464360206
1.36915044449272
1.40865141515744
1.55425514218735
1.45481065290699
1.44639605585829
1.48246849484494
1.51132061313754
1.51979059379681
1.41535704007772
1.45803781728161
1.45546231300146
1.52032309907603
1.72896259037485
1.67938180316869
1.40469293544665
1.50005855443368
1.60354315252649
1.42633314987641
1.63909359544964
1.50066323813221
1.5939867585152
1.86025182778625
1.4902819013506
1.64837731278374
1.6326403644835
1.44039427062563
1.53939000380366
1.75443007649435
1.77719373815514
1.74371314275343
1.49970235166858
1.60317030333467
1.68943089251491
1.46138313387271
1.66434345247158
1.68450750311842
1.68294196336994
1.811723875971
1.55596493181619
1.55077934672033
1.56678965621153
1.53552925177722
1.47055037441647
1.56089652371603
1.55799284817814
1.56935704105116
1.57319960677184
1.54146271288346
1.52602121149077
1.60640629979848
1.52841908933073
1.54207379301608
1.50321176356398
1.57425761911758
1.83509055454197
1.66177422482573
1.67482839887253
1.84699019126152
1.55315988722526
1.56474319603726
1.6174327462281
1.63020700324086
1.42252131886653
1.51272779307833
1.51402884647483
1.77584877267882
1.71628678364141
1.70871458577303
1.53574337737176
1.68507145861136
1.77436044819079
1.56324164636087
1.71517883385828
1.51742441981455
1.55034861692858
1.76178499104552
1.68433401130677
1.76115657812926
1.5534000267531
1.46783983041816
1.50624146691224
1.65232091215575
1.83155350376865
1.62919502840033
1.51774786241685
1.70549808667746
1.70551943260459
1.58116866475393
1.48338021852118
1.60804204326976
1.62502857046345
1.62872220626011
1.42650708670619
1.52870648616973
1.50667218314906
1.46913281930613
1.72748440507508
1.60501158440299
1.74715390420464
1.6988987052279
1.49360318499009
1.67252002281721
1.50458115958824
1.54275259608534
1.68035082130503
1.8356123273136
1.55255579040334
1.88111004566959
1.79076382195984
1.8136920300037
1.68306753700056
1.69098029860419
2.07048823828261
1.76049408738308
1.4319713644556
1.60588471850156
1.63729092361282
1.63138955786161
1.57757058042775
1.53405378753581
1.48467204464693
1.67700497450508
1.59109281458143
1.66007770782457
1.59941577334975
1.67992572880998
1.56489219596855
1.6182387380156
1.63265249378765
1.51626370062727
1.47339962117765
1.62659045697947
1.61528991275245
1.83086920597845
1.51528113129428
1.73403141252447
1.67584801355972
1.5926168140485
1.50551818489595
1.5641184992467
1.64687981175561
1.63298031349478
1.48319315533804
1.57221789552161
1.68604316470349
1.57304203734422
1.56905562349086
1.68774805957357
1.54430574335368
1.38647758546767
1.56126220750364
1.55538081390003
1.4992911828465
1.65481138338264
1.59156948171106
1.6088471127004
1.5413946289007
1.55052210464779
1.34574513132616
1.47531114335802
1.57056107234508
1.49793906926306
1.47120721248529
1.59715857641014
1.53717067843036
1.48994191244428
1.37235929596255
1.42379458175212
1.47169918260549
1.68346305576263
1.4865073273304
1.54797083780412
1.50051058551624
1.47167554896566
1.45094861697802
1.37900719724734
1.42421076617616
1.52316986412943
1.52450049126977
1.50771024150577
1.41773416172905
1.43088043158943
1.45370410049629
1.41461796856386
1.43601916597881
1.4011296704429
1.2650912567042
1.46789565845973
1.55853499642751
1.46806237312775
1.45952823432917
1.51101120072282
1.36641816151532
1.43612841188196
1.40477157574177
1.49687389808845
1.30271744502035
1.42426886421008
1.36089053842768
1.3573973826626
1.40202321229828
1.34317749863744
1.32881383736642
1.47941040536176
1.3778756272499
1.29924354035188
1.34235388892491
1.46527437138718
1.2366309591227
1.2589458763015
1.23700269114278
1.37177402164035
1.33166329622745
1.26111193580702
1.31009618522247
1.34332580269821
1.2428321393944
1.298413935217
1.25627843634374
1.2533596277893
1.20893115282321
1.30045076540422
1.28389555692763
1.23695156487805
1.21173239259381
1.33630355045645
1.30367746293522
1.21483567401786
1.21909754769143
1.27091543266201
1.20864424392187
1.2513264273518
1.19170544386537
1.16278242848145
1.13556636086341
1.21775707985094
1.16574617145756
1.19679485649179
1.15620263559604
1.18985065573323
1.15277511848351
1.16924082778021
1.11831981067562
1.13899477192161
1.13973184385725
1.12966799275683
1.0962775396576
1.14599514402482
1.05960135022948
1.09235295965717
1.11868032250262
1.12203393226578
1.1176525103969
1.10158374159481
1.06043460223611
1.09096957500118
1.07218186398855
1.04721658458702
1.04967433567286
1.04879805215883
1.05813861100414
1.1049018752193
1.01942868503792
1.07422991817464
1.03965786482027
1.0577751664709
1.02660164070156
1.02959294257796
0.996464859223318
1.00076599318181
0.994373665847253
1.00089722823778
0.970703776597647
0.992256935783255
0.968540705459429
1.03783514463354
0.964490068567982
1.02223971075524
0.965511818063993
0.954992199506458
0.931769688418068
0.947865627756771
0.918186978176066
0.980147894226399
0.925708868622157
0.914695296192001
0.926515204517571
0.950230154681626
0.902953763254301
0.928869557876365
0.908740203154369
0.915041570959171
0.88904347948281
0.916943128049538
0.876980229099584
0.898527556148616
0.855197843462955
0.895018405529722
0.88623088811024
0.893211688398128
0.865661376252952
0.877340926910764
0.84567195144656
0.86703692235942
0.845330938824633
0.87281539505647
0.834982156468729
0.832258134419715
0.814066943677811
0.81189026956863
0.810083701702675
0.847872550070989
0.797584032748635
0.825605591544755
0.803904003466505
0.829737471426193
0.771995266956446
0.808108376060024
0.799961895442511
0.795068486614016
0.756096068015871
0.77771620801384
0.773855936206809
0.800712179619743
0.773452841353831
0.754764004927344
0.761393226218233
0.784060169686812
0.763503601313329
0.730186303822244
0.745784486480046
0.749557601723057
0.737107218845745
0.746435562220112
0.727305744880947
0.735991712354527
0.722569627862201
0.749324634674286
0.717376439180681
0.733912423569169
0.699141594655279
0.734906013266122
0.688919786836388
0.701996564333355
0.70403105689413
0.692630513786249
0.672952642676273
0.699626890067302
0.677807508112877
0.691651746332618
0.656947255307169
0.672918812103319
0.650281731891181
0.660808735032925
0.657230074925498
0.684660004064411
0.643401735435841
0.661071134324699
0.644377204995569
0.643106567859084
0.628189630633938
0.649581385845326
0.651801789509455
0.634614142599145
0.622511837960817
0.641587072291306
0.616749588529495
0.634249431251831
0.621171233913634
0.616722488870409
0.614030161682733
0.610181001077714
0.60440055607505
0.622458543901231
0.586815484125686
0.589462584359192
0.574896835261618
0.609323547736888
0.592394013930118
0.585842095071212
0.570139390983914
0.595104466380651
0.56737624700434
0.579605511049884
0.566824340729103
0.563071026256574
0.563617067059408
0.567665472933734
0.563633932401037
0.562597603512497
0.551640627000474
0.552627908764221
0.545464419976753
0.55316480124697
0.533431370510298
0.545021270927307
0.541096498945812
0.535689720494204
0.530454334920816
0.53512002033139
0.528823643840038
0.530271900053482
0.531926098503432
0.535382017673265
0.51219621927295
0.537209405410973
0.526646167832307
0.528774007233793
0.512255827120646
0.52014486013567
0.509843257661178
0.515192537981011
0.509450997862001
0.524838398460786
0.514988296053277
0.525429047793689
0.505172225260444
0.508257012568369
0.505620319399384
0.508983726482371
0.504824401419674
0.510722794081389
0.507087703354619
0.523450119524706
0.50190477418778
0.516638763315901
0.509069267057144
0.523892602228008
0.514831387769017
0.515816224240102
0.509985842969998
0.515286600334955
0.513919548199345
0.534529700724057
0.528256473245857
0.529770321548337
0.52392317068166
0.534626388390845
0.530033362100096
0.536084732016089
0.532520303731167
0.547676792654207
0.542097466812865
0.557246525425677
0.53847724852143
0.538469607080547
0.54326182728013
0.551561265434665
0.557173894109153
0.558584956207983
0.56676545454097
0.578048401376599
0.560894026297848
0.575348360656883
0.576368567117282
0.584331798837846
0.586832770131538
0.578482030855895
0.580260531838045
0.58748132428502
0.591017079822112
0.594810014403114
0.583911327930949
0.596411662296362
0.588804363469986
0.607787017245199
0.599699116975823
0.610839808917623
0.600834138996182
0.620860388704298
0.621587443449038
0.639626630286618
0.607913526686611
0.649886225941425
0.631236236390242
0.63528906704061
0.667047463999143
0.670034589378335
0.648475692693523
0.659826470333338
0.657750281320684
0.668426954314095
0.663795333738
0.659104344023525
0.667535839524886
0.671558839508818
0.678072590250312
0.697635553781646
0.672005172980168
0.706552945135702
0.686449282627266
0.701913712379937
0.67106750510324
0.700435769507579
0.68100991795755
0.669326989976482
0.689829578962824
0.703275637275031
0.689270017000189
0.692761067642917
0.671366796130311
0.700213886863389
0.683503326847331
0.688523332790431
0.691074785682157
0.676213291279389
0.680800606140371
0.692786658128796
0.691551127267001
0.700767095996815
0.679558613644477
0.68130497593267
0.668300877962848
0.680572944306713
0.682064963784299
0.694623258930455
0.664725496081682
0.684236663900694
0.667353864342586
0.707244622474582
0.66974101806516
0.699080864589876
0.662341231457156
0.701366049051538
0.682035852265862
0.685664906576823
0.680043119640533
0.710279710101493
0.668330499053059
0.685910975277294
0.67760056717943
0.714291365763488
0.681301681271311
0.70573591896096
0.679074893305459
0.683910891054309
0.681775548066062
0.708232253353562
0.68486674669175
0.692839425154773
0.684555952027412
0.688517869909255
0.664414998763035
0.684261407209757
0.673772986716942
0.689150633978367
0.660912961630119
0.688410221463328
0.649444285032519
0.673939170172085
0.669607206820622
0.650962111950164
0.649650327267713
0.673233046548397
0.647006540302407
0.637834861449418
0.626110563448163
0.642559204740083
0.639121679041579
0.624039144220487
0.623973061518086
0.623510008152301
0.604072988153158
0.612274777366137
0.604220209399212
0.61135515340568
0.59499456012351
0.60017953868564
0.580865243266527
0.578469270178602
0.590098361838528
0.581643407610839
0.564996830104347
0.566455826143394
0.569333104124459
0.569129240814242
0.551736727140673
0.544744743249278
0.551167116090151
0.553481818741908
0.541581746934213
0.540838343198063
0.531595386486074
0.530039228163955
0.513972651421279
0.528787362395529
0.510344019727555
0.516371331827143
0.504304604599275
0.520385722110431
0.507510995674233
0.509028528584406
0.494367455656136
0.506776175339087
0.493514944262065
0.495407539307239
0.493826550443597
0.491232978048478
0.482982287767297
0.493755407973912
0.484216589432789
0.485704057988249
0.472442700367652
0.482544934222264
0.481262571343551
0.481341766065682
0.475714945461568
0.473152508343694
0.469594880158549
0.465213873713513
0.458398169492529
0.454991663495988
0.452877775046553
0.456544506245985
0.447673725142791
0.446993819433779
0.44303922854876
0.46074685143101
0.449815850165629
0.449189251075989
0.441706715774488
0.451734672363065
0.441073088532054
0.442991748134414
0.441512278869585
0.439374161000049
0.438303395249052
0.435357957484038
0.431257297490412
0.443129562422473
0.423611395192314
0.42823188743824
0.43414359096481
0.43141978502238
0.42279315147327
0.426639622385268
0.417879771581665
0.413023410824239
0.421379866200458
0.419843569883679
0.414788716993261
0.414839643795802
0.411958798188038
0.405671415876646
0.403780380187864
0.409230613765771
0.404383173189215
0.408980595950861
0.403204421776193
0.409367555529222
0.405801716258085
0.408507418873435
0.405730970156678
0.411637718415166
0.394042665271654
0.402123657729937
0.401157533158599
0.401124843859585
0.396070937309859
0.394359988597975
0.383918621884398
0.391696557326448
0.391957649688048
0.391820425778301
0.391550961838101
0.389117999236144
0.390073163102407
0.396405566110148
0.386564433708023
0.389789794709196
0.376824964841919
0.384446437879788
0.383822282896213
0.385961034322123
0.380302329565935
0.377062346660167
0.378535466460705
0.379737512630652
0.376636908971559
0.379839232455302
0.374828247934037
0.376709219757326
0.371190332043996
0.385777014422504
0.376701965293421
0.383903421775893
0.375856877489679
0.372265524457911
0.368084082250638
0.371559777819364
0.370686486276486
0.372483443820021
0.369939699204476
0.370624790341321
0.374045913396716
0.375767973077021
0.367940785582388
0.373337102090899
0.367601404935956
0.37350456047131
0.366934908679948
0.369701914427246
0.361752710726342
0.36868401612384
0.363236459493133
0.367533657705499
0.367187846140101
0.373273494581211
0.362413309763011
0.366513669717251
0.358987618914361
0.364774923749123
0.358869556591824
0.361179857573644
0.35816647326535
0.360774706015487
0.358854667533307
0.363662343940941
0.363661091152089
0.359805225127639
0.349195242125021
0.3614847620678
0.359978728503582
0.354637166307139
0.348480507516527
0.352738775346646
0.353370051429832
0.359880234517477
0.346834179862584
0.353788452172647
0.354937871207495
0.350418144718595
0.349428935164776
0.346648364736771
0.344123431141198
0.346580550012042
0.339551443789988
0.341805873988184
0.347213256376232
0.349454444990576
0.346178456694203
0.34835283958179
0.344295024294389
0.348020787402181
0.342113051085978
0.33823870738867
0.340246774539756
0.340806715263231
0.342422117676183
0.342639730252825
0.333696606046922
0.334452223295885
0.333947079522443
0.339875498139505
0.336086525186108
0.336126693150894
0.334683724903318
0.333073830260989
0.332730274894905
0.33208093665786
0.327640759941614
0.327332016170727
0.324856240672517
0.326538215933757
0.319462622726465
0.324042950701585
0.327039384907907
0.324863249157162
0.319419043723027
0.320080730914985
0.322836851340245
0.32135227843494
0.318961623542279
0.317909739480393
0.315886663186331
0.317566646387437
0.317491648061804
0.316764693904349
0.311282493923715
0.315468392239582
0.309340758383713
0.312724140094883
0.309380646429142
0.317140483892514
0.307352778682136
0.305474941244847
0.304221462389231
0.310541746753596
0.303116358304825
0.301037957911033
0.302978811932674
0.304390032766837
0.300191145333897
0.301370849338034
0.298161319482885
0.301144046223981
0.301681657837952
0.298512833973222
0.295780277244671
0.297443234631732
0.290220206592619
0.291307053316447
0.28429129313589
0.296322180072862
0.29159728153352
0.286756541481717
0.291236117530673
0.288656634000125
0.283232469898133
0.285029074083453
0.283259939447866
0.290613876763788
0.284022584743344
0.285397821507521
0.283211404097383
0.282437730443743
0.277719942944459
0.278119090881958
0.278974818583627
0.280122121400213
0.27383589611214
0.277277405291508
0.278758041179468
0.27376502456
0.266482444200106
0.277975337154061
0.274707286471781
0.265682911750983
0.274085180338214
0.278178942177391
0.271167012617026
0.274624510990943
0.267901903393154
0.275576135742874
0.271033124264949
0.269271943706911
0.270339105901316
0.270667420475838
0.274358467562316
0.268938747380881
0.264991703118813
0.262895673300392
0.26110310473599
0.258052660254005
0.26007137977761
0.263264275286511
0.260590473562113
0.262487072670341
0.255775277436737
0.255819724702028
0.253891584402557
0.25470602122839
0.254704513901389
0.254182735593292
0.252253669020113
0.25404956525115
0.255726940773793
0.255514035848365
0.254163189060292
0.250486971099261
0.250353206020648
0.258602898075989
0.253334125915314
0.250696306618057
0.248810163643618
0.253651425316568
0.249060800850673
0.250695055419309
0.246752675322317
0.248286058027699
0.246927958335489
0.246727590135402
0.247276469719505
0.249712777484409
0.24960332101425
0.248047340102223
0.246590054962416
0.248977324080166
0.244821112937916
0.246571496283524
0.246271287409036
0.244995586190717
0.246755939927952
0.242011288622289
0.241426444943093
0.242764166262431
0.240693667560574
0.24487239933779
0.242026276883622
0.241532458043705
0.246489536164575
0.239988859150437
0.240377504158277
0.242931545746322
0.24162678444189
0.238934616408231
0.2381988400053
0.240408024582893
0.23612105029174
0.241697948934464
0.236133228288558
0.238882484335479
0.237369314013033
0.235199770222864
0.236180079862377
0.236055189987749
0.233791998992381
0.236957191151607
0.23631138373846
0.233076834733988
0.229081272661904
0.23472907089412
0.232910448266338
0.232031505630207
0.232807893529571
0.226270901669914
0.229028156459649
0.235267808250141
0.229224284683748
0.228433124170777
0.228739601001552
0.230658674424139
0.228403830991114
0.228505296269816
0.231755396161782
0.227098890621336
0.227144915192371
0.229692612331099
0.226869894464869
0.228091178445701
0.227981742090962
0.229405453687581
0.227503029300581
0.22872924406219
0.224864186906805
0.222341158060986
0.224134074078137
0.223418734924134
0.227551598335887
0.227598125801066
0.221584478794431
0.222008922783499
0.224513268157431
0.226320208407979
0.219686091081269
0.222551532511238
0.222822341668268
0.217799209673877
0.218109611861069
0.219800945653458
0.219651668346076
0.217715893385308
0.219234977469841
0.221083910255857
0.215713422636703
0.220369441431485
0.219285933241555
0.214402915493107
0.214025828717556
0.215806010452248
0.215981741604031
0.214281710395285
0.213935236692289
0.21651253133392
0.214188093046184
0.213127064576307
0.21139317135455
0.211552711022027
0.210660033599717
0.210093084419668
0.209763402691599
0.208810377932686
0.209506131312469
0.20999098939042
0.20940626679873
0.211417809781795
0.209290283852724
0.208343018266114
0.206818058675088
0.208140532762604
0.207281019369674
0.205451706987739
0.202969414384433
0.204612442347801
0.201099495436267
0.201057071009446
0.202913379427322
0.201803617823938
0.200420476126734
0.202582062723081
0.199203923465663
0.199993856218296
0.198818439012307
0.198386510703838
0.197380593422659
0.195230257842672
0.197038341924508
0.199072255960601
0.195997523997688
0.198399386076943
0.196569407198526
0.193023677175069
0.194101643387109
0.193964712507596
0.195210419696145
0.192864986041185
0.194738503134119
0.19287634981588
0.190904806186511
0.193185211743562
0.188833917860095
0.190946731395059
0.19192432577633
0.187340445592812
0.186028076860266
0.190328546643232
0.188940702750703
0.185523200265008
0.186499585668427
0.187267427499453
0.186148766776029
0.180758602156036
0.181152054626125
0.185218363430217
0.181089944607498
0.183494829568942
0.181060304864576
0.178358684912432
0.181562108429979
0.179758582046727
0.177889357359432
0.180440766860761
0.177991316122108
0.178890056554942
0.180172344001694
0.177641642987185
0.179100554154568
0.178653890134292
0.174586091522192
0.173918036128729
0.171461633002834
0.17501591912667
0.173230668662983
0.171946808513864
0.176711097857829
0.17434365543131
0.169967381524912
0.170869336317492
0.169928347727198
0.169428482532126
0.171548045066475
0.168486884357341
0.169782833125783
0.170275857572474
0.16651857980856
0.168207390019205
0.170200754980195
0.169679903288386
0.168810792388615
0.167140081321155
0.167450252767574
0.169083230406902
0.167865609152738
0.16682497312999
0.164585340249599
0.163925519734443
0.163852800683936
0.162947078907112
0.165317451447735
0.165338199688983
0.164806256133337
0.16289368865266
0.159042995486634
0.163127201448835
0.163329131801532
0.161714498974774
0.162456614814329
0.162414509685168
0.162679856774416
0.159642326825501
0.158506493989051
0.160907689011636
0.160256402554513
0.161868982116713
0.165641327156455
0.161188723335443
0.16029571836653
0.160800400499723
0.155096538832302
0.160034416157824
0.154788043742241
0.155738041838983
0.158452588860637
0.163238069940789
0.161038776016058
0.154312559411863
0.15886039853682
0.16564708654004
0.16297432644143
0.158608619080809
0.153162497695453
0.15387074157841
0.157398404921152
0.155079896420139
0.154650262793791
0.154695837219802
0.150274858462679
0.153579655176413
0.151225789118574
0.151992108013644
0.151960688714336
0.152466422352092
0.151808474398999
0.152839472426668
0.149260696433309
0.151628180972476
0.153592650423068
0.154190241899091
0.15086048943003
0.149221507041676
0.147544801944058
0.148279349181472
0.154418539666553
0.151855465039204
0.149077575375534
0.147613807922881
0.155747359215902
0.154207295479866
0.145246771116092
0.151804095518121
0.153662299656401
0.150704167675114
0.152560100690614
0.148070511880381
0.150908576933332
0.14740364645751
0.150495709836083
0.146322833455652
0.147100838311898
0.145020517640435
0.146636003270511
0.140966511759827
0.152480565872113
0.145853293803562
0.151482356076283
0.141046633517059
0.144916596096099
0.144387763212309
0.147588946366555
0.144993323886589
0.146635158503014
0.142444903300648
0.142897057642923
0.14945602080912
0.142654500413495
0.145587421862999
0.146152323095374
0.142636444380091
0.140238490841118
0.14128060021221
0.142820582936803
0.141776178256531
0.143073161002809
0.144472664746309
0.143985438780256
0.14466533269817
0.144266389102856
0.143629136748129
0.140510463157509
0.138499823950052
0.140668305657938
0.139039257064946
0.14075978598535
0.142667061191265
0.142900703005241
0.140219471716913
0.141028071993632
0.140988535649481
0.14150558632852
0.140189904980262
0.138769784859477
0.142202557342392
0.138579718832604
0.139220956627861
0.140628788003179
0.141754531303809
0.142096008686846
0.143152608008785
0.138687835816778
0.139247325276234
0.141468292441897
0.139483999071634
0.13756467336585
0.137229929800209
0.142489788286975
0.141691813618891
0.141023644991166
0.138290231150038
0.142861584710986
0.142133305699561
0.140086856975691
0.139733286177836
0.14074084995277
0.137783514318038
0.143150185911262
0.141669449173061
0.140382107583458
0.140192185957311
0.140452193777899
0.138423358931309
0.137299584979946
0.141166917992237
0.14110011934087
0.140039397341815
0.140180804888442
0.141397860202227
0.14155977252778
0.14298871010434
0.140147559902387
0.13718996604936
0.138869174392512
0.139641340085273
0.140574191565468
0.141700517308479
0.141411985404966
0.141558949758912
0.138719136840398
0.139882134953753
0.138984861350704
0.140000532695802
0.139245444423326
0.140306546149059
0.143155050485395
0.138849859958399
0.135939008703822
0.141475504297429
0.142168238423814
0.140646003096366
0.143975954977058
0.141920971094006
0.138811888204403
0.143910545509738
0.14181793726238
0.14116303094807
0.144036843526206
0.138360591704233
0.143117949628142
0.144246171847962
0.140543974199775
0.142891343571616
0.141863356806569
0.142156288739341
0.140393042177468
0.140726805547339
0.14127329635196
0.139087114068419
0.14332784206342
0.143417335487131
0.142977032718317
0.143307972271984
0.143404532716708
0.144289535374725
0.142658996746536
0.145432827771258
0.144364054305373
0.144467620443118
0.144602921021353
0.143336863761944
0.13973326221048
0.144897635563569
0.143889163222091
0.145212307137703
0.146064470188985
0.144865937955301
0.144521457049838
0.142653770958308
0.142984527459645
0.144403010196052
0.144246032883692
0.143968211891568
0.145213816030208
0.14658075652113
0.143214049863286
0.145723950964702
0.145248077423401
0.143698968251428
0.142873852135838
0.144932766423751
0.145443201941815
0.146420838555034
0.1424718069088
0.145962714814998
0.1476063921257
0.148058434710055
0.146799420925858
0.142464038954128
0.143334278843659
0.148223043650946
0.149381287036208
0.145494517261788
0.144747894181959
0.148962131576686
0.149585494387157
0.148307813086315
0.148888828330953
0.145295834170461
0.147999891127253
0.148970343239583
0.147408097553254
0.146915935851925
0.147638031284772
0.146916890281612
0.148919872848123
0.148437817803462
0.148742094925716
0.148448763551054
0.151560718122702
0.150613210541671
0.148418063844822
0.149861683842436
0.148352368577047
0.149846680821889
0.147570179043015
0.147376232307064
0.147014392875269
0.150119408685842
0.150813517721994
0.150213853359467
0.147467676405146
0.151361589821586
0.148489182170395
0.150077291482709
0.149711116863075
0.145926766260505
0.150084247344395
0.146898954519287
0.148797841053907
0.146797653122259
0.148385020260285
0.14447759841612
0.145172390101084
0.147842702573809
0.150067432293877
0.146452767177962
0.146220852047592
0.142489328364858
0.144250902768657
0.145873182263641
0.14199039099565
0.143808752168102
0.147807570764122
0.143258341441994
0.148241507558674
0.147417854417226
0.144033814086148
0.143310740734214
0.143885013617656
0.141699122802897
0.14265045593462
0.145049843701173
0.144388404417865
0.144495864312865
0.142880345394915
0.14254079709879
0.145466438904387
0.14309692822115
0.144712056403674
0.142625465717173
0.144950968776196
0.143556151799481
0.145813488658136
0.142320503191828
0.145703696591555
0.140978159880571
0.139114155730762
0.139836585276672
0.141204814891757
0.14221074822505
0.142025209018852
0.141897760467548
0.139580501344097
0.137400401259557
0.13875431034214
0.139515785977446
0.139275598429946
0.1403426060873
0.141862321009884
0.140992113160881
0.137821291582431
0.138783170886845
0.140884220804838
0.135107472743818
0.14174870497119
0.137723729534627
0.138278217285775
0.137800285443572
0.137176842054952
0.135832377590881
0.139535423074017
0.136333474550705
0.138190415624693
0.139183177408928
0.138319518173344
0.138303710240481
0.136658570930304
0.136051175239736
0.140149448968035
0.139153625221372
0.139484569268974
0.136109415066748
0.134579159444072
0.137102866718482
0.138866556611421
0.136643279583329
0.137847795882696
0.135602795255212
0.137491455385707
0.134893982501924
0.135939200430429
0.137185637210483
0.134736702145575
0.13822853762133
0.135183047979646
0.133354086401768
0.134532381639395
0.135082682844563
0.133570361325301
0.132429451926917
0.130891218343427
0.133785845244689
0.135377458116573
0.133508464614819
0.133937572540886
0.133284560178846
0.133005940359512
0.13358512072177
0.134281031712177
0.131192484915838
0.132910138981855
0.130523469495455
0.131646503477117
0.129607821543865
0.132017148490637
0.132325234509592
0.13271953918149
0.131650557993939
0.132823658719627
0.131143767704788
0.130315176973834
0.127361350424316
0.129839716338684
0.132191107636867
0.130964791529104
0.127801313212916
0.128060962959377
0.129735670495423
0.128489894837411
0.125636082111188
0.127049198689767
0.123948094750723
0.127722231626767
0.124020923534751
0.127353265297834
0.128080304516575
0.123600312064277
0.122807133794974
0.12288857191426
0.125279399822621
0.124424237826335
0.128404254593569
0.123941424250537
0.121510937552593
0.123028540535595
0.12229337677991
0.118863205781444
0.120305322237463
0.121284954814339
0.12018484044318
0.120883670495345
0.11985596046421
0.119860016522397
0.118872192193101
0.116380566804702
0.119219167391362
0.121268866343588
0.11598087801431
0.116383537343996
0.116159677002888
0.115647099546626
0.117229228052477
0.11509842869898
0.113866305810311
0.114562232741994
0.117189163135641
0.116491282883538
0.111901758502579
0.11379310699273
0.110595592377573
0.115241330207641
0.11059933704899
0.114525149943052
0.11322247517255
0.111727257102659
0.113154660313294
0.115982367152952
0.11362969642265
0.114431777073322
0.10988558486747
0.113155439177803
0.113650031738571
0.114157361240119
0.109242915221414
0.111853879272842
0.108675644641011
0.110509273007202
0.109549171173888
0.111524815996965
0.108510723971397
0.109032770541826
0.111892902588784
0.108916991785506
0.111692654364905
0.109842446252609
0.106508970534133
0.107252964172886
0.107657699674288
0.105720405758025
0.107920687460752
0.107926837600582
0.110006519445224
0.108179116819697
0.106767261022318
0.107640186829084
0.105979220998152
0.105704035792647
0.105402257368187
0.105981369744541
0.105563474038149
0.104927810161339
0.105473227448303
0.108347932885915
0.100943049625951
0.104166519541578
0.10516227945693
0.106028544113164
0.106175537090626
0.10156025747199
0.103167568228093
0.106054032447109
0.100889969200522
0.104080565970258
0.103294254984592
0.103118526525285
0.102684308118529
0.103528567690388
0.104994848525023
0.101414916344103
0.101386258988748
0.100605505032982
0.097749256009395
0.0998029978615329
0.102365035802107
0.102230362402425
0.102571196036356
0.101159864199076
0.101224734096222
0.0993845590021082
0.0997805494065269
0.0987455611452853
0.102204789886336
0.0971763999879724
0.0988767772087191
0.100835989154415
0.102189239158739
0.10129827683303
0.0980799489185088
0.100496985623087
0.100586721412681
0.0997622567159923
0.0972568256458901
0.102008464506867
0.0976064395707569
0.10195496339959
0.099711017757987
0.0974205018081935
0.0957614982546783
0.0992401272193016
0.0990688236101849
0.0967758520292468
0.099623510615195
0.0951646090614573
0.0990877449077349
0.099219079463264
0.095452381878236
0.0990842303479409
0.0987773310064773
0.0967992796202151
0.0989639091168401
0.0993777513676217
0.0979824213049611
0.0966129699144097
0.0975024166245977
0.0957111778086182
0.0955868845350483
0.0989449055555923
0.0981584490191428
0.0997617831241174
0.0919647327706056
0.0985184021041838
0.0960463787325492
0.0959861205360649
0.0974131795960183
0.098035892137278
0.0944683574091751
0.0984812602697757
0.0970006849654151
0.0975242056998649
0.0951572177293399
0.096377199228653
0.095706931852566
0.0954341164558022
0.0964655236524302
0.0957147422606334
0.0953831920428598
0.0951246073615096
0.0950371250286688
0.0964048697730889
0.0988208830961815
0.096637547614944
0.0971235520391717
0.0962087149958627
0.0958293977286076
0.0966268855349547
0.0952587321222263
0.0975289933650412
0.0945190958630443
0.0958775624603878
0.0903123178300702
0.0964689670978061
0.0967054217805991
0.100006993788975
0.0955024594003866
0.0956366149802682
0.0924770191878977
0.0981266851723971
0.0950839853237209
0.0957337117151954
0.0926439190695922
0.0980171279788554
0.0930034131440649
0.0959226785632697
0.0940673547584535
0.0968467311050933
0.102615175077151
0.0932567232505373
0.0928965942584543
0.0945697238973692
0.0932759797254579
0.093066188480242
0.0949949461580803
0.0966146212274443
0.0955241459481863
0.0964929799659701
0.0961517634282578
0.0955605291903501
0.0941774087652646
0.0956070563426537
0.0960389139155811
0.100882493159767
0.0972082070400852
0.0942253496632199
0.0977890310470347
0.098419878960142
0.0989267380594754
0.0944668955220679
0.0959170128027132
0.0991912232106406
0.0993871545079799
0.0965510509374052
0.0967313378813999
0.0981016450403132
0.0970796293753611
0.0976040953429414
0.099379626114602
0.100615697192652
0.0986107749710137
0.0963435230485013
0.0997518425341592
0.0996819802530836
0.0993901335267319
0.0984785189117048
0.101255856201042
0.0999004902558193
0.100217715556592
0.10254253797816
0.0994751885932713
0.102326636333801
0.103568727448393
0.104222483372294
0.101129677650791
0.101269241719361
0.0987442150315047
0.102527632474185
0.100912250499546
0.103327525171432
0.104007232881403
0.103573844718413
0.100996637573659
0.109721972637717
0.107862967980118
0.102334887377234
0.102442327307628
0.104848527520814
0.105136537907061
0.106342972422704
0.10640502099162
0.10498916896961
0.105819291540983
0.10300861524224
0.107618730945564
0.107453132236473
0.111242897767423
0.104877868880154
0.109012296497477
0.10762244616697
0.109609075803656
0.111255119725665
0.106575654820015
0.109348261510914
0.112654335614362
0.116401057073058
0.110960934255564
0.10954832297866
0.111642050539829
0.11594053315351
0.112210217971527
0.113588849612732
0.112601685632808
0.115279696790356
0.11374048807039
0.116017227287292
0.118538828530165
0.118002578195844
0.117237643862061
0.118394936339544
0.117633786432926
0.122877813861105
0.123986378666602
0.119778923989514
0.119078942855703
0.1228812375841
0.121855731943133
0.123655166999023
0.131040767817717
0.123541697335721
0.125534551860704
0.127388129767469
0.128994049016437
0.129320777478007
0.133962274995453
0.130406569709258
0.136183414097975
0.134698673851323
0.13727408654632
0.139671928107069
0.143896755687454
0.137323001351102
0.142085695455281
0.142028531088824
0.141284601572857
0.150493593725987
0.158359170093989
0.15103892842294
0.152019133074021
0.149214640435165
0.152716551048186
0.156804196176094
0.15714212299266
0.158311416460169
0.16217405814105
0.164490591153344
0.162162498804709
0.164903937586071
0.167433939925928
0.167742443889479
0.170284451437529
0.169943448047303
0.173528515310517
0.180593779078251
0.18650238514484
0.180207164559096
0.177600159363513
0.189693267821357
0.18520710870928
0.186231863316639
0.18571266007806
0.19007879054467
0.191330920372204
0.195062652984544
0.195404389592988
0.193893187635845
0.20754674610642
0.205034585657969
0.20621697139559
0.20931478773376
0.212614417556775
0.218013247228859
0.2306846988699
0.23670953484175
0.222583956979379
0.237424301677145
0.242586821178086
0.252629047097133
0.27353779603159
0.264497893175958
0.276329149702232
0.288737204653427
0.288463070186657
0.2967440912303
0.30422472580632
0.314032944875688
0.31972730412944
0.32666199412708
0.330984891112975
0.354892235103928
0.358957109672343
0.377560591995461
0.371236461888732
0.377887818797723
0.391478608076889
0.401606230301015
0.401885561076619
0.416973340409111
0.422310119604318
0.437133506499919
0.474302622561363
0.45559765346905
0.457993376117595
0.482217336813153
0.494819424724262
0.498138351984131
0.513029854751807
0.536175076160746
0.527900776906216
0.535775782869229
0.543753856089466
0.563180497221159
0.553160475563582
0.582536938673582
0.595882886108491
0.597568805513376
0.600607627098777
0.603474705799774
0.617312038401436
0.634251842165821
0.635629359388733
0.630161024046899
0.648870492918084
0.677612800019209
0.69123018375428
0.69097559415578
0.648278621843528
0.659649024402254
0.665128601359351
0.68862771905075
0.657091688972507
0.705336123614585
0.692750235270551
0.666342034139822
0.673323556127108
0.687980807917628
0.680440064052612
0.690590911729234
0.691547930855148
0.680917074762887
0.692451331282686
0.69090605841234
0.677153053455243
0.735591913199425
0.683022760375736
0.683069061650862
0.68964622026742
0.697339094494949
0.681193969301282
0.707217058800834
0.693329764049694
0.69566474676406
0.683963956023428
0.679122123489029
0.657288806877124
0.663452771761181
0.670779526589464
0.634504952022936
0.631830512619518
0.629111869584292
0.614995532575894
0.613050011992601
0.616407873411576
0.638456711119992
0.590294844870936
0.605166565728441
0.597034695785208
0.5905040839557
0.589065166996151
0.582959222359298
0.570492006019263
0.578920684565813
0.565060178302851
0.575640179993497
0.568742415398498
0.564855356426485
0.56046639233971
0.559724146801675
0.553852300753353
0.550477450311014
0.550434736392397
0.546861050781477
0.550687632979653
0.541843131293209
0.547645682233919
0.559386492974337
0.550344474743333
0.550920821556167
0.542753193506386
0.543969494664855
0.541104680651708
0.546475672720379
0.549755152604736
0.546153157081838
0.545548560548908
0.547539575774962
0.539446953333167
0.547934660295026
0.544315069891401
0.551692795994938
0.54206160306466
0.541410949619092
0.531980242587999
0.538296731970097
0.543580324192196
0.529847061541239
0.559038034026623
0.550274030435819
0.530775123530944
0.5294598783684
0.519578237018567
0.526079845821401
0.518433720463329
0.531753731640458
0.536484078590413
0.523809889060429
0.513132383581222
0.516762763703691
0.520695507686277
0.508401085102592
0.509122439734712
0.508896658241407
0.48895152255633
0.536969509362521
0.529131107048683
0.486545188614252
0.533839256655275
0.506457992787257
0.491014639262866
0.498937629743703
0.509265361427622
0.493518055973543
0.492267158189996
0.489854810304923
0.490330082180255
0.496710669630354
0.480450084376751
0.483892964362101
0.482166890825097
0.485765591824024
0.480170610495971
0.475391503421733
0.481250721353028
0.482746088740698
0.469510720823532
0.478742995524983
0.504255639044888
0.477690764963011
0.459957548713123
0.46235923573383
0.45436157489738
0.45074917260102
0.464223717115842
0.44729104465322
0.443892171758264
0.440091968231431
0.433099967409573
0.436181599237741
0.434076970229148
0.426381469446374
0.420798571514069
0.425534662125798
0.412546483974585
0.421672094776673
0.41386057053067
0.408862374126035
0.424335080402468
0.407460178956477
0.396916977852732
0.410872261345345
0.413497337298089
0.397848336899386
0.395737830741038
0.391626180179999
0.390004409917256
0.395204765677438
0.3771194246413
0.374629350550302
0.370231623202037
0.366568058339893
0.383994203438985
0.379652526650651
0.376671114636914
0.36423778760907
0.358230056140009
0.359332455211809
0.359114285293253
0.356554389408066
0.349118221070796
0.362251278204323
0.358926574481804
0.345619023895488
0.362581894200244
0.362837919501755
0.35759865701623
0.361088809490625
0.361853453184946
0.359720692723266
0.372742404848944
0.384030189990536
0.371894204788394
0.36891810475779
0.383225300309748
0.378708090546997
0.383148276498811
0.387854002505547
0.3908934213991
0.398944020793601
0.407833663059416
0.419504157266735
0.424518836650297
0.423044931780061
0.431170033370444
0.452046525359852
0.454044690122624
0.449585212408275
0.461646220491474
0.483540050056669
0.501192146183221
0.496124618028853
0.499486955675205
0.511088930044634
0.514449207104204
0.527831140547582
0.531524581619189
0.536984406446635
0.55502429836495
0.548737090474828
0.558119876380992
0.560001214755305
0.566533630837524
0.569329831181566
0.578611056870877
0.57603009543247
0.579277831120859
0.6036474949738
0.601163128411762
0.605061674694542
0.602710740599393
0.611815835001328
0.607496720585088
0.610894974090777
0.614780676278878
0.617101172436533
0.626191581428845
0.614013906960098
0.618788791832797
0.634087614805043
0.632556295151026
0.635224931643509
0.650412732710126
0.646850072410643
0.641979029175615
0.660562551275117
0.657980832994891
0.64022096045368
0.68725221644199
0.676102506898979
0.671584640556159
0.673844662071047
0.671847881412138
0.684191332645156
0.68568174223901
0.712629685364902
0.708314114625776
0.702159418838091
0.714394008417809
0.71495523797569
0.717419025460466
0.714295961886559
0.732842290898339
0.733128022933445
0.733575121289145
0.719219526936436
0.738903966700934
0.784171177813216
0.734809191550203
0.744985643587269
0.756411539646396
0.754427543151252
0.769148704264992
0.767222439058689
0.759484924737893
0.773926687147099
0.773931204232602
0.773355988293229
0.777084305064732
0.768760497811923
0.770397739748943
0.774363576994387
0.790629838423218
0.787494566524881
0.771185087004573
0.771308564793405
0.76775087546411
0.765466949124887
0.779016596041359
0.783589223839113
0.771221484085532
0.770324185298591
0.765327206192212
0.770058578978747
0.787504188408574
0.766938037422031
0.762957427233487
0.774116219141997
0.785437685819638
0.77868194456395
0.779369772882985
0.806571276134945
0.787180205639298
0.777916309247942
0.793445332568653
0.795882739320638
0.796055139680358
0.794141996926451
0.801435932169864
0.809963183696671
0.808541220315491
0.818095091386473
0.810816707318391
0.812964995155093
0.83191205607775
0.826534449920971
0.840420590546223
0.812857984539003
0.802373509768359
0.81654974283045
0.817151635753401
0.807798645928478
0.801233036299777
0.802263582696805
0.799482492583021
0.790859114063009
0.789930660851164
0.786516988408356
0.771768316069934
0.778465038132105
0.767026737169346
0.753132450119174
0.756577833421387
0.74917730387384
0.743074392820682
0.747274949259047
0.748874723458453
0.738488210379302
0.730240960878233
0.735867333237305
0.734743499118797
0.721618022772156
0.731432304133232
0.718141202970456
0.714682530686663
0.728260603077359
0.731758691367074
0.72079187376702
0.711449677433551
0.722109024195275
0.709025015849942
0.715119889042736
0.727211049150579
0.720421492820656
0.71783383868579
0.711214039626464
0.71834840689893
0.718278375236785
0.719707603020815
0.715351540155485
0.723791680661781
0.71805144826054
0.718789204972723
0.70858785806074
0.704570764316001
0.710408010559487
0.712654094307749
0.714681609094658
0.71134000063637
0.705806946317805
0.718227127306541
0.716520853579506
0.711352541475598
0.709062040857261
0.709139713276579
0.713046355904
0.717427127536344
0.717301621586589
0.715819164252269
0.707750002625777
0.707378362914142
0.709248517900006
0.713602593185958
0.716712447667976
0.713772459873769
0.713561006912918
0.722866167981478
0.70962209169554
0.713174650708047
0.718984565600214
0.700124748369911
0.705290152030358
0.707721745685123
0.696620972451658
0.701962132544832
0.692136558918006
0.685792817498644
0.674179129333255
0.675425687637075
0.667990729767796
0.66972208131668
0.656985255877806
0.654589866487231
0.650338600160179
0.645077260307874
0.640632584222381
0.647572265124107
0.633255337213166
0.63613787748169
0.633055810045964
0.635111363620086
0.631648668227835
0.623133128864628
0.623699208159598
0.621688621625594
0.621942592655511
0.626021137973071
0.620652091243734
0.615657747710837
0.627267933657703
0.626263721115627
0.626327919879428
0.631884648092695
0.624736076939787
0.629397818526489
0.630360212404696
0.62525506721311
0.635534920243336
0.64076719155002
0.632427248010052
0.644082073360584
0.643852480651314
0.651338456630615
0.648017783232444
0.647304389642397
0.654939028074835
0.654762912890691
0.654265280171802
0.663204027238723
0.66101655769405
0.658205679119982
0.663146070773285
0.663448131206349
0.65696078322578
0.658727546628791
0.656833048966273
0.66283364897149
0.652564812075078
0.652014580684268
0.648388342282988
0.652786899469552
0.646564885778392
0.64611253066535
0.648995453747378
0.645321939420071
0.641993216812312
0.64502362173709
0.644620356900315
0.641110038341715
0.634509695756596
0.635126622180104
0.63506604423278
0.634107970318368
0.635846264261693
0.627205544043876
0.625095010384458
0.629007788274979
0.626651686159144
0.623432401970393
0.618792039257832
0.615340019633899
0.615437863213897
0.618330116455413
0.613161904795403
0.609753525181484
0.610495622171942
0.609731340075325
0.611452051912795
0.605476889986714
0.598398625547818
0.595755154515423
0.602894725919937
0.5926340384972
0.593868764560226
0.589665560951144
0.583933366905621
0.582240105174064
0.57402060440594
0.568536677471317
0.566265936048585
0.565379162886867
0.560077684661976
0.55199660836215
0.550477452860005
0.545973172177922
0.541260370830379
0.540472719217859
0.540093172555672
0.541582811478807
0.53936391016542
0.536375185426104
0.53560600797174
0.529492287066255
0.531125852661477
0.527442394303519
0.525679207211688
0.522168491539264
0.517019450652631
0.511922775564175
0.507876091998238
0.502613367605024
0.494619753764691
0.490580085678862
0.480338399937781
0.475326666551495
0.47306651607457
0.472427702811767
0.469786888215279
0.469980832109084
0.473535367833488
0.475858459078577
0.479883936001894
0.490282869192908
0.502874101371261
0.512253355052613
0.522869767068865
0.538446370780732
0.553180754420993
0.570595971163883
0.591508194170475
0.60916408772628
0.631218610063602
0.65363933515742
0.670309118036365
0.689550204163995
0.712264236973395
0.739273620928671
0.750532794496394
0.767866103633654
0.78891168401705
0.80774509235561
0.835610066309537
0.841246883393289
0.868209877705114
0.877089430007348
0.888055347322765
0.906657183469788
0.928222507122309
0.929793576401288
0.940253961523559
0.95387668936546
0.971270737300727
0.972391319108148
0.972715186156172
0.975042825515413
0.990452243524421
0.994051034639333
1.00413645634614
1.00336709806221
1.00231386112339
0.991662977188015
0.996887191588256
1.00399399028664
1.0172615058079
1.02379469354405
1.02010085045589
1.01609295146783
1.01924862751797
1.01997400956881
1.01627259578575
1.03113658102419
1.02554989517895
1.02363203654109
1.04842745685367
1.04884465223309
1.05890660044128
1.07492731203645
1.08733242119933
1.09420407107457
1.09000490529793
1.11217587538641
1.13673535646335
1.13156007945073
1.14375266960663
1.15183152234274
1.15384758910639
1.19728857492669
1.19180919446628
1.20924948550266
1.24815651102357
1.23528602239334
1.26398056609653
1.25803836314012
1.26118228827399
1.29089733469935
1.25219593745412
1.25864387576628
1.24471349603755
1.26183278914322
1.2523697565285
1.25962898223559
1.23224439960813
1.2426508435124
1.22491881499383
1.23191193090173
1.2452345237768
1.24869093028674
1.27381239816177
1.27765389009196
1.29293892907964
1.30007372382259
1.32649564941052
1.35927184332791
1.3820753096835
1.38529714295367
1.41228297802774
1.39448898204154
1.42837118823541
1.48209863119438
1.4671782657854
1.50459769232714
1.51634997153451
1.49909611525764
1.56928070549192
1.60930570899487
1.62506066699447
1.61642975342188
1.64750202035421
1.66765391889514
1.7014512554824
1.828091607144
1.76206355450707
1.72815876941184
1.77734141204864
1.75144040679657
1.80555421781204
1.8636585526342
1.985952112026
1.91714856875591
2.06271921030079
1.79175533744842
2.03095711450989
1.98004020186757
1.96937830625172
1.93875483055449
2.24085318709972
2.04562903514748
2.14601586868866
1.92284702103517
1.962270943441
1.86959407359213
1.88703027604063
2.00575509599313
1.9206839884069
1.94060922881514
2.15567524793243
2.00848071062153
2.14081268941844
1.90740305207581
2.33562895978256
1.96478723575057
2.08537151874731
1.89357564622424
2.09430182401659
2.01454263138256
2.05069338468147
1.94179680919182
2.31507337925138
2.06693069888765
2.65980681013891
2.16597242841543
2.15777620235287
2.57511161223827
2.26899885699792
2.3481754424568
2.35208231164396
2.16570814989056
2.32252682412697
2.18578794782353
2.51437892762851
2.67591561098153
3.20575985089355
2.14443221280136
2.14556082059902
2.17816628720943
2.33706897949915
2.40089996916835
2.38169509114536
2.25475148856753
5
2.06043071346771
2.78718205961846
2.17060175079969
2.41124765303819
2.2058882990895
2.26595505311991
2.67512333146133
2.3265494775431
2.25599216312859
2.62147452524938
2.14659546353041
5
2.57186106748343
2.14348492249289
2.10188420893126
2.17642535168
2.10010987098115
2.11566260707573
2.09440245707658
2.15808193444761
1.92118180168894
1.98153988333611
1.88737269964439
1.96372909849385
1.85992887438538
1.99072973915551
1.84870965025648
1.86391325064668
1.72916112986103
1.8428702766218
1.77476250423265
1.84385085180715
1.72760459678045
1.69851399397532
1.5723803945531
1.74149185267527
1.61816612064062
1.74544602990384
1.65181747292377
1.67407204422581
1.60892544073386
1.59980346117671
1.59780204202195
1.62521077916331
1.57675905110052
1.58833370606892
1.50184070383199
1.45633051169799
1.44252691879958
1.51207975928906
1.40101776332417
1.36718088289548
1.29074155586242
1.28792519495816
1.23280410913799
1.1758105775149
1.13349709378086
1.10774718535226
1.07552985277841
1.06580034169584
1.00472268476351
0.985924054995049
0.942232905311311
0.922442393984083
0.872799959048175
0.872106276792326
0.835654969411197
0.826929653425182
0.794003458926002
0.791516392547052
0.769145074522777
0.771288736632283
0.761596397914124
0.752610196201599
0.730627613647475
0.744122484179293
0.732580620961806
0.728273553892817
0.722326629559469
0.73697835446865
0.727928513249457
0.725241611099986
0.73204278247496
0.726516814812698
0.720510559920918
0.720201900091416
0.730861140769117
0.723136102496647
0.701208567337929
0.708772311877196
0.68781695572496
0.697386399441898
0.681228829571791
0.693134159304725
0.693817803499281
0.681063807984916
0.663841394950109
0.670696624721967
0.664588547387409
0.666411622748351
0.655507862915083
0.659799913084103
0.660996683304219
0.667856841126833
0.672444948072268
0.674147414733226
0.671121151437059
0.691792122254845
0.686846855451562
0.682870172182717
0.67332275823285
0.699082257382705
0.696231617427848
0.699579146307916
0.702478795097077
0.713810905490952
0.693615548262927
0.723003472030175
0.709704932655625
0.69772936113643
0.723134397506486
0.713987052642886
0.698585707815385
0.702068772329187
0.720121776700586
0.713059501225556
0.718731409269054
0.745710774220243
0.721407207998246
0.74611605039394
0.748930284400141
0.749288600690995
0.757008139299623
0.790183915181489
0.814854949231462
0.800647082716409
0.827681811008962
0.846673274074975
0.892126118190456
0.914423042708529
0.910053214423929
0.895840872558531
0.918667815031618
0.903682421631194
0.895120731245343
0.911643872957975
0.859602475351278
0.898041626681325
0.848393228095149
0.880883179527333
0.845977785857213
0.850167738250744
0.847629008731771
0.833124289134708
0.809938351687215
0.838473407617431
0.81265488440108
0.847397258311444
0.836983208916326
0.834026852855266
0.845449271447843
0.821817988109708
0.824356286388539
0.83322490490603
0.809707501636811
0.844495263015988
0.81695392910824
0.823944380004358
0.780703255820532
0.793658364744965
0.789218542881682
0.806804646050123
0.76027926302482
0.776912881246666
0.773064089553345
0.737995680978545
0.74866416015867
0.762738181893874
0.736198693979168
0.743958639333899
0.744247106262611
0.750807643007127
0.727685505647453
0.746878936504317
0.72780147878202
0.749690325096023
0.727029425851424
0.7417213473753
0.70310085458541
0.737882013118612
0.701771217742907
0.705370212431564
0.701768858966629
0.726691983971321
0.687638052550796
0.705310696082131
0.701055855605988
0.697402455877559
0.687060419514657
0.715789620295037
0.667631213997389
0.675738716763466
0.677927025550121
0.704056195908779
0.661568955441487
0.696717601646078
0.65407432070766
0.672063679219059
0.668995653967556
0.65825441907753
0.631391100704161
0.674973645787604
0.657260630331803
0.66424853235388
0.650651861560713
0.676695422708661
0.650457121045238
0.679784409203078
0.669240044911509
0.667253231754846
0.676567966204254
0.694315217942393
0.684316432281311
0.681668609862828
0.673970384811034
0.661860665176911
0.677431331358977
0.67676542831561
0.670656707474584
0.687099112488544
0.690027286864143
0.71931046755532
0.748249258028512
0.719569676056784
0.7437335143256
0.733116205574951
0.741680379781541
0.723076490586332
0.731287898393869
0.760651790085253
0.732249069639893
0.785194551644848
0.785774071441737
0.798372321984823
0.817634239318669
0.867949780521142
0.804533162842364
0.907157071500105
0.902907574766605
0.8600302460676
0.911783592691023
1.00611499929727
0.913248894922351
0.99219061534064
0.969956566895167
1.02486055159629
0.955185945045812
1.10746445068599
1.07626790598751
1.08097023071845
1.098067044706
1.1350729439126
1.02199633397997
1.08177743629882
0.987606035345751
1.12147242113137
1.05527493802851
1.10647920117534
1.1072113076439
1.06470885750208
1.03224404875103
1.06527702760772
0.986139967583848
1.08498837690397
1.0085313533963
1.00198717399835
0.983578758930237
1.0163459004139
1.06065611926275
1.11449125392922
1.03783678994741
0.997430877632003
1.08842132802718
1.06939961921208
1.0206783366153
1.1037088885439
0.990335896716701
1.03911156040935
0.981842467351502
0.983933664970943
0.936373379242441
1.04849627946985
0.883133849710064
0.980374595137956
0.949186190375751
1.02518878417659
0.933171422450024
0.993120662720048
0.979580347991504
1.11032320075704
0.925317695099217
1.03251977393036
0.973750055822506
1.12064061904872
1.02324469755761
1.05373203541909
0.987280881502437
1.1038143218906
0.951494725216188
0.928961350815749
0.978094540624312
1.10231791568726
0.875229153676644
1.05892335435974
0.902747138490073
1.15470109632877
0.857685134009318
1.10521782592788
0.908657780717328
1.12715803057961
1.03177602162133
1.08365830775813
1.03002035212839
1.15343839699681
1.00743490040514
0.960515324964068
0.97716343519963
1.02356272295342
1.06339367663524
1.43156183161792
1.10979225092121
1.15175746604018
1.02120383456311
1.13020389639013
1.17540135410763
1.60479530521573
1.01504263086677
1.40889221458002
1.54035394799244
1.24683980056615
1.24086243679556
1.7439351636642
1.0855462469911
1.21942552052089
1.17023616312076
1.39955252921413
1.19941241304938
1.59404121354646
1.11402983377857
1.48052410639058
1.75500846952163
1.41660641286917
0.865743526653394
1.14368288575847
1.22367917779851
1.24168703035141
0.981089168531009
1.56038029419139
1.22277930022769
1.52302921453459
1.26451329374774
1.44621641813285
1.09967560060515
1.34705027550568
1.02906289004463
1.2789012325241
0.942109293654901
1.83938482263051
1.01406913993678
1.95615519308706
1.01101850962286
1.78159172820233
5
1.80582885109081
0.905709764453498
1.36627359294288
1.10072855623058
1.61818290205216
0.815380117724237
5
1.06415487933505
0.937936210391926
0.981526128930381
5
1.64820275496662
5
0.931609658292438
1.15325601151651
1.48099289931707
5
1.32192106417584
5
5
1.32581930340246
1.12706181746826
5
0.715375710175382
0.895208962893258
0.768660973864325
5
1.09556642776176
0.936940565869203
0.392693097903345
