3596
4000.36533379555
650.420452594757
1
2
2
0.0492619762933123
0.0431784332584154
0.0513665566732991
0.0497058386804931
0.0558095601129065
0.053544103272835
0.0505216774303142
0.0505153406361325
0.0521604737090695
0.0565415214641635
0.0485680669027565
0.0528859411730588
0.0488561257991339
0.0507190737826791
0.0461664810667895
0.0440675238431712
0.0439045387189759
0.0449044986704623
0.0521079361859211
0.0565444579370626
0.041736652102945
0.0478785242879036
0.0471759147190785
0.0454233775630207
0.0559727693241568
0.0551791122121596
0.0523871226784892
0.0519402978272052
0.0513577364721499
0.0439563898420988
0.0510640619693904
0.0456218570592834
0.061153176045877
0.0588565463738325
0.0493167498897685
0.0605794222209374
0.0492644152262638
0.0556768088562116
0.0494297892900934
0.0467840935573401
0.0449578498738606
0.0508783491883835
0.0473901917488412
0.0518405325945849
0.0607727162503543
0.0493105414586883
0.0563568878642079
0.0447554941496354
0.0576152401987657
0.0425556492680358
0.0455145273623822
0.0481645251204698
0.0407430290578785
0.0480119919303922
0.0444238818280839
0.0524943237175164
0.0426680522013657
0.0414516877114038
0.0337600318551036
0.048526432645013
0.0453911577335381
0.0555334022378877
0.0461125511290304
0.0485366869207598
0.0482421469283537
0.0482223769505365
0.0353326198167746
0.0498160010650663
0.0432805236660328
0.0428216410667199
0.0442866667462102
0.048508468376036
0.0408443135197878
0.0514259836367928
0.0375251632402653
0.0409071595705407
0.03316939240908
0.0475988323673263
0.0411335308350057
0.0529903561254601
0.0427955340642433
0.0489931388137305
0.0419927148061141
0.0473201997859815
0.0330080026765535
0.0446519118385072
0.0443497097328104
0.0479760660639049
0.0432498976305645
0.0453520719359477
0.0451039366407172
0.0439941421678248
0.0391903195349893
0.0469544695614421
0.0443812454326967
0.0455944646976923
0.0417558750922676
0.0394299057055334
0.0395184534336556
0.0518586255183596
0.0478103081731989
0.045450028289395
0.0339808747618684
0.0451703483662704
0.033447866499466
0.0285631244972275
0.0340034451820427
0.0463025890342532
0.0466663675284801
0.045628972369299
0.0374431523314241
0.0392627238657751
0.0406407181752904
0.0299511497966697
0.0451047461318825
0.0341042450037638
0.0450222250481369
0.0402964054647137
0.0409382056425944
0.0430329867016325
0.0356061602980306
0.0420585459591664
0.0206477311028936
0.0412092606766635
0.0378042671435515
0.0356053029841614
0.0497340582129917
0.0331712204136778
0.02763983709761
0.0407926926803437
0.042642263748117
0.0371288459039415
0.030297202978698
0.0431907829573011
0.0426950640128462
0.043244122051509
0.0360037612233854
0.0408420544384228
0.0368966012864975
0.0486199446975136
0.04050809862175
0.0402369251619617
0.0391971679085993
0.0463613659253576
0.0479050098466187
0.0424107145480259
0.0325729609666497
0.0361296078550373
0.0338274561265135
0.0360062707341931
0.0377160678208168
0.0417698775695159
0.0412942948690312
0.0482345152552458
0.0327055275952835
0.06274426162245
0.00359222724201154
0.0544060785541257
0.0373463452396586
0.0435836982527042
0.0333931685316476
0.0373965213155897
0.0375423642960835
0.0406317456284434
0.047538581466372
0.0404878093182996
0.047692555788612
0.0344788161643412
0.0385058108515304
0.0303375466887335
0.0357303106800436
0.0337873371305436
0.0526399487528892
0.0307954432927879
0.0356074605177458
0.0337393380087188
0.0351356956900228
0.0440706250090254
0.0348642749654776
0.0374157798399577
0.0474879553724465
0.0372488345114905
0.0414793573479967
0.0421539831075273
0.0430952648887567
0.0457013764625124
0.0340363494294142
0.0502764803958832
0.0360809513479773
0.0343465608766625
0.0347786464491633
0.0476344681397248
0.0402366026299499
0.0331808458750311
0.0350090136868863
0.0499627371255058
0.046437253128244
0.0364840322990929
0.0356951491641991
0.037469281558971
0.0389748259829574
0.0389803636013583
0.0400815226186261
0.0328991892043367
0.0395845458061029
0.0451705358924014
0.0417815471962613
0.0357301023945912
0.0323879659289999
0.0412063223348313
0.0391202962032836
0.0458419757479792
0.051806451498513
0.0427474093653811
0.0405190448072223
0.0360559806674023
0.0397536136921829
0.0380346399298544
0.0439926893116517
0.0382594945034696
0.0391363086809081
0.0393116165482517
0.0424394720553049
0.0366686967080208
0.0426240914215675
0.0425966637908914
0.037942619094548
0.0412489659341125
0.0395907348033001
0.0463404322098712
0.041523236968809
0.0491024581087637
0.0453382841861146
0.0454414374609298
0.038268494119437
0.0413651763649519
0.0401372266830812
0.0340453673160662
0.0366081403377971
0.0437423898490368
0.041845999209768
0.0396261433421503
0.0412683170482823
0.0504731044976145
0.0375600016103944
0.0400829171173582
0.0405577429682262
0.0400756318292544
0.0427261289492416
0.0408242740022775
0.050029971587552
0.0387672479831279
0.0437416881604078
0.0409501641232464
0.0343474761322131
0.0387573929016693
0.0427334624008983
0.0418295900596835
0.0378884622161407
0.0462717478992317
0.0481537473859749
0.0420020356598504
0.0359718806618354
0.0340331912211496
0.0540808072941973
0.0538919888782615
0.0403294927745873
0.0544252378521212
0.0418467547774721
0.0325587899723709
0.0463644064915412
0.0357029519520866
0.0496418017784528
0.0356264209267219
0.0367095326906852
0.0331205108421918
0.0460023751534567
0.0383717333593937
0.0511351582537897
0.0404295676869302
0.0391577377919907
0.0372915845778392
0.0420785205941979
0.050455567434832
0.0474808827651733
0.0454377394940086
0.0476024190669197
0.0429032970319042
0.038008061761197
0.0476002841063295
0.0480499387298881
0.0367668918013096
0.0443891148865348
0.0382403558698741
0.0587581721036782
0.0468139323695719
0.049692703508697
0.0419973591884782
0.0464585112495252
0.0432360876547821
0.0508101723841529
0.041842602852956
0.0511342057949831
0.0442556078010358
0.0504586852543661
0.0501103263246529
0.0501859713258893
0.0533552285211508
0.0456019133746669
0.0502406687088933
0.0682895467845512
0.0495411045837906
0.0439361184990743
0.0488675084646231
0.0537025355162258
0.0455421717468434
0.0551128563055076
0.0505184337380862
0.062433033911307
0.0581578530287607
0.0509417169925011
0.0489688556493198
0.0564104318392558
0.053335024746882
0.0634463013155149
0.0549925237694316
0.05070717251749
0.0562175426991766
0.0517706939538938
0.0587663965817819
0.0735009417864852
0.061857333689679
0.0545949838772348
0.0798783566237715
0.0542209156744706
0.0650775011910139
0.052511891183749
0.0605231773959272
0.0657886455535298
0.0608233751447628
0.0631582501843928
0.0668315767975565
0.0688610621405029
0.0718741395564562
0.0737395825195505
0.0727578407893102
0.0693826519723001
0.0761087297929872
0.0514830412885874
0.0785779203680403
0.0739088406674274
0.0655115964140985
0.0898441990262922
0.0629308572937332
0.0872986116546016
0.0765400108860863
0.0829833155589616
0.0776504781986146
0.0816576868001323
0.0778587699431309
0.0867342715724379
0.091933261166816
0.0845803719035203
0.0942135410355485
0.0914168290474299
0.086347145202872
0.0862456738973062
0.100433057000832
0.113600900708263
0.0940453133697132
0.0970620582487764
0.100654068262753
0.108594246290815
0.108182550412993
0.108186017868352
0.128741830669045
0.105819839836349
0.119295925325474
0.10911606265125
0.10093724670212
0.109438672327915
0.121128610393988
0.122117296965276
0.123609199840741
0.118927092710611
0.123240721071556
0.130792499364089
0.136244208565421
0.133390835494472
0.129028161590048
0.142909966492533
0.141250980200232
0.146998291731421
0.139119695551027
0.149962299130785
0.142610962071878
0.175608454056065
0.154241305712005
0.153825537630336
0.155598014200291
0.163577585285957
0.152380604937238
0.167269477727638
0.159139226207388
0.17288167996297
0.173406696342857
0.179400036543944
0.193410543605484
0.192824310878071
0.181222243740391
0.18421771307447
0.175815621896584
0.200070995269846
0.198069959763963
0.211005015958812
0.183852659268629
0.192694152172734
0.20617304625212
0.215726426020223
0.206877782754118
0.229960774675584
0.209867319052849
0.216851294528407
0.220264037229778
0.219289899420078
0.228412889838119
0.240780925571794
0.246062680418132
0.246484718268617
0.230180562016867
0.258389015396593
0.245293471629888
0.252430057047138
0.256980570820203
0.242404600143475
0.262702825079274
0.269158952222375
0.257743755104957
0.263025122473377
0.265933541004109
0.30106847596963
0.277881792750825
0.287785799937126
0.264236714748528
0.285900776614942
0.27692595567502
0.299232797879204
0.285795566447721
0.292301430456927
0.296287794513724
0.32329153598912
0.323484703547923
0.336102171599226
0.322769541310646
0.32338507630651
0.317103621788624
0.325237568416479
0.329210490527631
0.349908116775194
0.343550473213548
0.360052880618302
0.357884630661051
0.379311279335286
0.368491547780004
0.394606661848901
0.353077372059407
0.364632970313987
0.373170279089971
0.376811808014121
0.354784847713026
0.396233505312448
0.40347641239331
0.391710048226918
0.40070784120978
0.423037467207302
0.406884951143674
0.424119171337323
0.413785119286706
0.428169130206336
0.437165367222507
0.439384909327818
0.422353796978447
0.453349159512634
0.447344858604949
0.470330641219373
0.47206761268167
0.451089808401068
0.441306115225088
0.472217727274791
0.454743576675058
0.479908429642673
0.474040966592375
0.498049323079522
0.50837596396862
0.508640817164671
0.516355232922964
0.508909153303023
0.530276049559809
0.541227076144547
0.51000009202142
0.548749114335726
0.544782562870195
0.554688322521251
0.528947698492327
0.556246526225787
0.559014405286264
0.581490715624768
0.543945588888146
0.55787133780356
0.544263215541677
0.564605417939246
0.562341125176016
0.586652805430355
0.584342725206912
0.588750775148898
0.598624564241311
0.62586221776083
0.637267834011574
0.610523430292372
0.62404489912368
0.62011054981471
0.598908689508978
0.656107578556267
0.668012734656682
0.661372371158979
0.630147524146046
0.711519858073817
0.650841938742998
0.661225038734057
0.690706649364179
0.702918593964109
0.664074766345394
0.683635687058837
0.686946693207688
0.723547927967173
0.690022546740421
0.711648314908742
0.716821361587534
0.751971495333998
0.70548006565235
0.742279573488025
0.722918256436544
0.762850091622935
0.760623726596156
0.775245796479162
0.750502489091795
0.787391206464307
0.790309799482519
0.787577996620265
0.764011931397741
0.826970147695233
0.778568741368834
0.801615086218346
0.791146811299193
0.843613215506843
0.76016497447197
0.812103212220721
0.819787303495504
0.863233036173473
0.835716495605852
0.854824596777839
0.816666095035355
0.851473505071919
0.864219704339271
0.825075154332116
0.817949114671603
0.873786235223193
0.831014893194176
0.886810184064456
0.854588032192877
0.872288339567982
0.833850571463266
0.921862032803769
0.915070897680571
0.917101596478842
0.879141174682218
0.87319872085159
0.858713580838779
0.929493196117874
0.918962434763312
0.96948852636601
0.934541111192557
0.963414679165318
0.923868344922488
0.995545498023765
0.975454672858695
1.028997772257
0.985482322428156
1.01406438920882
0.994266770405665
0.924092618539595
0.956377376276637
1.03348341221028
0.989810406672042
1.02689946828604
0.960511740801983
1.06068832495256
1.04712960027984
1.04063557075028
0.967668019402933
1.02516101554048
1.05714341704034
1.10427685689733
1.11454298644048
1.09061948580339
1.00120240597427
1.07198370819942
1.05858033464453
1.11739495806104
1.15986735879813
1.06235438413623
1.04591099577451
1.1229397084743
1.06278574051233
1.13406855027083
1.16941312580625
1.18925081595901
1.09024393498945
1.11735063017072
1.14264242151593
1.16638256509701
1.14103056341274
1.15890029947215
1.17409502436635
1.16103410003663
1.126954570057
1.12233381492433
1.07075731275022
1.19310652726967
1.20884252618091
1.29510558107009
1.13737257993098
1.13000210701929
1.23492599583076
1.20042660738273
1.23006797731405
1.30601625605575
1.15547760838909
1.19182001884549
1.21203922368023
1.19606843708548
1.12489014012451
1.27700745656341
1.27447514075658
1.28467979042336
1.30850816059219
1.28933111141143
1.16578737145152
1.18808284427746
1.25889969446739
1.3100083117732
1.18278865581335
1.17603632718778
1.17231884692471
1.2352159169068
1.25135497406365
1.28167025779562
1.22922257437127
1.24076626863935
1.29016236668095
1.31715317709365
1.2282497406746
1.28464997725944
1.24643135604231
1.31649666449639
1.39334347416003
1.38389738663843
1.22324541744103
1.32452520613259
1.28888136927725
1.30715660328534
1.31385732329579
1.23259486668965
1.25141073422048
1.24868690859682
1.19943624013626
1.27180444578893
1.33701141650128
1.41251883576918
1.33362462517424
1.27659085566125
1.35695105249072
1.24973902299682
1.21962908434157
1.37699390247556
1.35023456834316
1.35262865829663
1.5173112877772
1.4586584235564
1.32303224574171
1.35321718698743
1.37136798964666
1.35057056940597
1.29555389135497
1.34309590402871
1.37119272891897
1.32585141594229
1.42538705336059
1.3834018466661
1.23158303393697
1.43857884391026
1.35314716009124
1.34297965813075
1.34814103048877
1.31771053545664
1.45039376446152
1.32134097897034
1.2995109774577
1.40446226788231
1.38990296137318
1.32027511080055
1.42289138610104
1.46151614426603
1.39138991713158
1.43775136467069
1.5550144978889
1.44411507860252
1.47231943165598
1.45699392249475
1.37190668938672
1.33106977726262
1.33419514784499
1.30811167328368
1.39923207680114
1.48457942350465
1.54619434457794
1.37025619753899
1.33517343333906
1.41882633852652
1.35555609494038
1.35266230920045
1.43469256912921
1.4698994608459
1.40029883593073
1.40969654920131
1.44259193920422
1.43267839611985
1.52658938631327
1.41688759180916
1.2351723974463
1.37101715699088
1.50218024416365
1.30138034853341
1.42882757568893
1.40267968911787
1.3189915485552
1.48652535764216
1.46455498914135
1.33144397392328
1.29451829865334
1.40840394228472
1.49074734751044
1.33040118988421
1.37039235935883
1.47148153626811
1.40620641705644
1.31386481132977
1.38396123564663
1.45508043898702
1.45623196468899
1.38073266323442
1.54208734952089
1.43567900744171
1.60803854870504
1.62511080836412
1.51064831327261
1.40811592135418
1.35172926539547
1.425571411595
1.5056408578117
1.30511480936076
1.4199307680844
1.49043496433771
1.39973788342781
1.38750267316153
1.37799770608511
1.36250424738987
1.31544475320192
1.32824173606114
1.40771328187902
1.41207386793655
1.45470629811264
1.41995900119405
1.31687790829222
1.29946024490941
1.44132549841648
1.3416464355366
1.38621807573494
1.37920217689098
1.44464822527435
1.3408080129577
1.34689112129103
1.38089749512455
1.40364318581302
1.35488369696754
1.40281837185911
1.44196522742685
1.32835702865932
1.30142406645476
1.33150570181596
1.27786013153249
1.34451067770505
1.28125830091007
1.34858795885343
1.3698768536468
1.34004812030094
1.32852803527489
1.37076089573147
1.30477077779863
1.34485380673114
1.36385763353085
1.34934311032002
1.3771847132299
1.40919195114374
1.31020080972994
1.31700362120322
1.32363429501213
1.33930298912072
1.24874334722929
1.31711339491606
1.29201175140822
1.31970387700535
1.28492313311079
1.31037920920297
1.26224989875364
1.24554670254081
1.2583060410509
1.33327426567159
1.33755176150079
1.36479891209268
1.29625337629334
1.27642884143704
1.22378861360479
1.24964939376122
1.25464824748963
1.24450524020157
1.27231301135584
1.26914619943062
1.18972282935119
1.23799941788269
1.26965719052459
1.25313654044434
1.24057389966256
1.23089190872293
1.24394299605436
1.21510093333359
1.13448421914388
1.18565714555429
1.16949328419614
1.16916814054545
1.19258630409825
1.24828211030994
1.22829889564033
1.26161095639348
1.20835704400115
1.14105354250659
1.17743894894055
1.28450984034302
1.20080183657352
1.20717740594674
1.12576411256498
1.20570129487505
1.19042649057192
1.22098529314658
1.13855286280976
1.15233959053353
1.1250276026008
1.10036480772043
1.0705133298451
1.13332676141841
1.08688166414366
1.09856295633938
1.08430526842268
1.14271296052324
1.08090273155355
1.12582091531821
1.10333540559883
1.11547246253975
1.09471032731813
1.10297828832879
1.10198951799412
1.09024727786198
1.07926478505856
1.09563222807708
1.06514621186991
1.09452121840762
1.04791022311469
1.06541675244154
1.04965603889654
1.07775807782527
1.03950550297871
1.05516234636596
1.03747166486549
1.02155220802431
1.00191165001313
1.03321321095516
0.994467074622604
1.03016362762434
0.996625567093282
1.03822453601536
1.00884688328536
1.00895120226553
0.954619030578331
1.03954399292098
0.990998490751845
1.02271451682081
0.984198944315103
0.97225158487722
0.912931231497259
0.959357422994187
0.945750082849068
0.987253931143201
0.942392399630615
0.955184752284836
0.976010299854233
0.932841062629564
0.905375971465364
0.925822375876571
0.904581089829409
0.927521086004349
0.892604835655428
0.891926264488164
0.890202186164455
0.907875654846793
0.882872785428355
0.921408596615944
0.890000016259776
0.896562691879192
0.861080331806616
0.884091771242111
0.876055981872826
0.875287942040048
0.842254353549278
0.872145854596078
0.846317884333186
0.844189311989796
0.834804179092906
0.862499810500637
0.83815692511573
0.842412736205145
0.816503548530509
0.830524677787775
0.781885836725883
0.829215986843875
0.797342648557977
0.787089413224458
0.806300229100488
0.797303092760127
0.795156626658461
0.811292329754951
0.761841594543278
0.786440845904746
0.798358597576513
0.788549075175003
0.754334832788523
0.775067750023499
0.779678668671644
0.79441353917873
0.744945966619952
0.764850392300935
0.731826223314676
0.758107512878038
0.754219641304256
0.749960678049598
0.750313675028966
0.741366690064762
0.731100580119564
0.742079214612452
0.721618825726236
0.732692684944832
0.71573139002447
0.719436938045874
0.703513327788013
0.724478660917136
0.713406989720532
0.679276381637415
0.697393997945611
0.712216537727653
0.688348794562318
0.686903395849002
0.682241616092033
0.68217232259453
0.665048135382333
0.693056903052154
0.682892719653286
0.687453946128024
0.667052648658364
0.672357452276369
0.662579909308207
0.678731828043208
0.659781611644195
0.665582159031451
0.643244668946113
0.657398928277677
0.630526728730605
0.653015428225079
0.638269927199639
0.641730061694205
0.623944354142732
0.628184041745981
0.619054128007329
0.639477265958333
0.613219596208576
0.618267519279633
0.605982239189087
0.614709831801136
0.59854239266094
0.614371805832274
0.596926722169047
0.589719703850179
0.572780260842116
0.60050296594162
0.579591215477353
0.591402650476208
0.583785978851101
0.580732363538448
0.563236538887908
0.581723850301311
0.571160186180855
0.565818119221445
0.554745234125607
0.572172896986219
0.576116944846505
0.56451118727389
0.550391828045238
0.549951613166603
0.526819680259811
0.555604675367566
0.542308439575342
0.546471998903844
0.543892644411959
0.530257073832234
0.541981162549457
0.532938338464815
0.53157572857141
0.513638361644195
0.512990335835916
0.536494456203796
0.519837279985569
0.528619077227902
0.514909594367574
0.507331053256602
0.504038090461832
0.517274536330831
0.496077993815285
0.495990092267679
0.510043678607132
0.500145300990946
0.494860638539465
0.492125266567577
0.488888357304446
0.491955142883571
0.491521297181366
0.485918226878759
0.472448987831245
0.48814392280254
0.476050185504285
0.476244525663765
0.480719614536939
0.47949654113623
0.468534114030792
0.482197933656197
0.464566104045512
0.471885766017293
0.466151494746131
0.457681015957453
0.461741871268284
0.469636792838204
0.462998145302825
0.46544918804722
0.453541442042086
0.45712221048113
0.447922541769451
0.466691430245565
0.457881416803793
0.469356520207373
0.447228294606522
0.453138742509617
0.451453240036514
0.459857180408433
0.452661771635184
0.461319175954
0.448512569223414
0.461055137719814
0.460728250963055
0.458390156399473
0.447621827737659
0.459401280994825
0.456515730743822
0.459221525174383
0.452365394300895
0.466090070887608
0.465595051730551
0.477690123975433
0.464917044190961
0.479978497248634
0.474764166694612
0.481171145794315
0.47134919409706
0.486155874254471
0.480170303451041
0.489235764494509
0.486208051096314
0.493644322998068
0.502051452404659
0.496806971654607
0.486153626151201
0.506737478433511
0.50123616974968
0.493676574884545
0.500305906787432
0.511635636308847
0.511074333602799
0.520783384987916
0.514552012212734
0.502832736373773
0.509892200682469
0.508085055509311
0.52054841495117
0.524756831460334
0.514854581181891
0.541103918551149
0.528443756314645
0.552168101995068
0.538536817090181
0.536984699819975
0.532407326279493
0.539627451132241
0.542650963331847
0.562817953484584
0.541559886353697
0.569381177849747
0.567395590928135
0.574490965157702
0.57496695605912
0.5795889253938
0.581055681480831
0.580922633971294
0.576674749479556
0.611461200419851
0.593298665091295
0.600390719602794
0.595829774265023
0.599705391815419
0.618741236089071
0.612967620447369
0.609807025364443
0.607722379988476
0.616014020696909
0.630421316620211
0.614868463212162
0.632771134091208
0.62711841507799
0.624751820935133
0.598711182744142
0.623898586921958
0.608302117977544
0.618492786677516
0.607243738575711
0.620988660040956
0.605046680809807
0.624445801740598
0.618171796421635
0.627239220769574
0.613846783364076
0.606839247441129
0.601719404968954
0.604019777865301
0.607796147983736
0.601550888953361
0.621695097644666
0.628522127874369
0.607411900633334
0.616406336556117
0.598107976739657
0.615410950930465
0.616879221344796
0.616821580723823
0.60665244470478
0.613629395974504
0.607385700652934
0.617502550253731
0.61002806104589
0.61806411063687
0.609327555876816
0.619388021894519
0.605405678241484
0.621608130694357
0.595933227799945
0.616243057703409
0.608497181923431
0.618452763721554
0.609392139238116
0.625987455405534
0.59859777180799
0.614573486258298
0.595250315346042
0.616508625576186
0.60815074901193
0.605411255390664
0.609815593769789
0.609049467700557
0.596924442471389
0.604315020835954
0.600424491432966
0.617031031520646
0.604054247273681
0.606781427113141
0.582846221467102
0.606073806895564
0.578780805648225
0.589453627803232
0.588194041854
0.579391781541013
0.582772996751696
0.577690661647552
0.560286618751308
0.564680337984976
0.566465027593598
0.572940885335864
0.547011707208558
0.56712358149729
0.553428199218706
0.564257413990872
0.541832040671406
0.53986294382403
0.538362910889968
0.53345221427071
0.522356773885768
0.520676590005569
0.520128090391876
0.518981228642383
0.504802723514848
0.510905931011129
0.501770734034233
0.524763810967037
0.498392323591754
0.500196080590442
0.489538567008753
0.491906584931589
0.477810844195302
0.485888390254365
0.473844161854629
0.47874065000135
0.466740453146099
0.479948061590285
0.455007415712905
0.462230879203553
0.460550699340857
0.464542449350023
0.450723305851657
0.455712625697455
0.444799770603097
0.450123490634988
0.449735238451557
0.445715304148671
0.440301044757228
0.442316557020602
0.429787180762864
0.434563290447629
0.429592145499638
0.433039565099563
0.426768099640156
0.433529793975476
0.420217021641025
0.429750923166269
0.42250793111274
0.412575017157667
0.413159409263487
0.420283298031166
0.408909405072137
0.41487354844241
0.411619698523176
0.411418460056447
0.401270171666384
0.413603246328299
0.394847454113298
0.404378443864662
0.40361583201695
0.409382555923615
0.398309293927568
0.394213155769259
0.398003312254759
0.394524992914109
0.393120425395119
0.394293190814389
0.389777218336922
0.392193896612537
0.381450876601721
0.392605922268834
0.379672351895038
0.384044226141429
0.381624189714702
0.381960413328018
0.386982242220209
0.381847573294063
0.379827041203036
0.379194595222284
0.373503527973752
0.379005982709032
0.369385146339657
0.375556966189002
0.369760431932587
0.372262681777237
0.36609078327362
0.368286884737868
0.356808296970414
0.363776163881533
0.368058845023389
0.363570210976424
0.364977566736227
0.368054633429453
0.356069322024651
0.363876069145892
0.35706622208515
0.35689593504045
0.350028006371788
0.361204586802371
0.357142166875427
0.362308260965341
0.351485589363085
0.366259146194583
0.351719060672305
0.348825849549701
0.34813587866239
0.352551503193736
0.344859481547276
0.347916582200656
0.340012191445618
0.34146608090797
0.343586408860753
0.347808226632089
0.344049440806951
0.347553079067023
0.340059592939421
0.342307946927739
0.345795930296322
0.342280705620317
0.33936734736852
0.344332714468323
0.335201109694984
0.341600170792551
0.336578806240903
0.335128906100696
0.331300846081089
0.334763976762076
0.338478191530871
0.340729252205473
0.336110761336379
0.333735589498368
0.341097452962958
0.332455863199452
0.332429396553
0.332751250829083
0.334927622464403
0.329039339009523
0.326639413860034
0.330597328777587
0.334564414469315
0.33621052222817
0.329686359957857
0.330801927594201
0.327604654810335
0.335576714484591
0.324629415610746
0.324172906899727
0.326067501772369
0.326821552377307
0.316975091972004
0.329411572242565
0.324436107075707
0.32056474881551
0.319357747472431
0.321241073649585
0.32068975813341
0.318308546776118
0.319177900345471
0.330971642774433
0.316126165285734
0.322890827252822
0.31538958689037
0.323457289918012
0.319831453443575
0.326627246372157
0.314275191575016
0.31235640745655
0.316618162848591
0.32050012836534
0.31134857279182
0.314097615940077
0.31002676615566
0.313567097342425
0.31562132415041
0.311941183665692
0.310641377771632
0.303992688692782
0.307032349051532
0.315039216751501
0.305141018651294
0.31208936179908
0.309190877344815
0.3075484205609
0.306970709853018
0.302174554804965
0.300970697699684
0.303214093839474
0.304873551818301
0.309904201229148
0.299663846907812
0.305203721340737
0.301312440523617
0.302806191475995
0.296312381047405
0.305035847771488
0.301026187361675
0.294968348136391
0.296178952940974
0.29973424810434
0.289388673034628
0.295639217449943
0.293531498952214
0.292025147129473
0.29284746109419
0.296187345645572
0.293241336921382
0.292138611141039
0.286826971348109
0.288549160171572
0.286441762193898
0.285759957659668
0.282294208265408
0.287402752742302
0.285724531723729
0.283491644719066
0.282738584555812
0.284351016530124
0.275679137007563
0.277446975318822
0.279551349808605
0.284885997519079
0.279549716960527
0.276403841699452
0.276245728928613
0.280303241609381
0.276525862194658
0.27878691579364
0.272193388420897
0.275228890104903
0.26933182397957
0.272596667856468
0.271090083334364
0.2677528062942
0.273008618687432
0.271632824231179
0.266920063082799
0.270358266640841
0.26751091216916
0.265614544337683
0.260143276645025
0.261957822969259
0.258823640087243
0.263067388112906
0.259464355744708
0.258457308759906
0.253735164501501
0.260020691929682
0.254672810969019
0.255008752833262
0.252979044642925
0.255424126451988
0.250589052926641
0.254458969629362
0.247747845608111
0.25128337569342
0.250671157134655
0.248228257001705
0.244573621162848
0.247960208530678
0.24838511084266
0.248536346956669
0.248943736259669
0.248574014416725
0.241042969585731
0.240813811244468
0.241446219128085
0.24617385745809
0.241749578406173
0.243469199107203
0.239207236043807
0.236698588393802
0.23753920290411
0.238886007353321
0.238872681117721
0.243660513665195
0.234900013795478
0.243796805072701
0.238070994284853
0.232091038675476
0.235180977502673
0.231724886643018
0.231237081908978
0.228257131506502
0.232182782074278
0.233463553614119
0.230747369345485
0.229459485936764
0.2292959085244
0.227561742622942
0.225723493814133
0.229626853389603
0.226985079766472
0.227285267374165
0.226538010429789
0.22175596246408
0.220031708574024
0.22679743808872
0.227835805486853
0.22975997767772
0.223268421927338
0.220637618398316
0.220675652114132
0.223079628825001
0.22164496097367
0.214734247682277
0.217752431213866
0.220484215001603
0.219166118053567
0.2183167894318
0.212552748809234
0.216843908296886
0.216901445301338
0.216189759680351
0.218868112843761
0.216640094784592
0.214211769015932
0.217318078234927
0.215257236353362
0.219178915982114
0.215704579385363
0.216776991794192
0.212467333314162
0.213776392637498
0.211525419190157
0.211914880502266
0.208168147992787
0.2141987105204
0.211622132912707
0.211847581979112
0.208363333206714
0.208029609067268
0.213142493416838
0.211977546718609
0.208302791495945
0.215340917842463
0.215520144761202
0.211577270173058
0.208374859498209
0.208147949688879
0.20926186024541
0.203319052359456
0.202603313598361
0.207269743351395
0.204647751565783
0.205654307930159
0.202998947518929
0.205309699076546
0.204963511171468
0.20612275481904
0.199454711282433
0.203361282650126
0.205765556419653
0.204440559805667
0.203608883141114
0.207194200184423
0.204312115227446
0.202271109151516
0.198424289165346
0.200708037815451
0.198611961791299
0.200615361274847
0.197709492116183
0.199585771625514
0.19928603321348
0.20118510699144
0.197898932024674
0.195953547445346
0.199857878555076
0.195504062837332
0.197445749781046
0.200861518703148
0.192008725765439
0.195103565042163
0.194409459453869
0.197281348809614
0.196728665351248
0.195045027687937
0.189636955433546
0.192631261447642
0.195449019272019
0.195376745555318
0.189955885632807
0.193405233255489
0.196001152200727
0.195647615198271
0.192970538793144
0.192486393936059
0.193123522692347
0.190803432780226
0.192357177808594
0.190413068833607
0.189191461263299
0.19113971007286
0.187095829708785
0.189078015574891
0.185183623149794
0.187450154104326
0.187432515586643
0.185780704762086
0.18656283188055
0.185703161723221
0.184361394914844
0.184351653948857
0.181752534849431
0.187732009514091
0.185485943977605
0.181929743306285
0.181673082784249
0.185964479166599
0.17980430888268
0.180252565910718
0.178916641238888
0.178716201489755
0.17965376234629
0.17876993869134
0.178121589160759
0.177458099410061
0.177343127039193
0.178316434163785
0.179324691609331
0.179392532820078
0.173315818397958
0.173801683587465
0.173433051669355
0.17207197626649
0.169338400176805
0.173426916443916
0.174323395027166
0.17247677885828
0.17562266423118
0.172268652521981
0.168904600406361
0.172732430271988
0.171548723213704
0.170092068389375
0.165030362218188
0.164153783707515
0.163767417273629
0.167629688840435
0.163133755098403
0.166272506667612
0.166488221933325
0.165947372033595
0.168333006510599
0.165225833930931
0.160579031064156
0.159906657294638
0.163985167245208
0.166957638100108
0.161910551030966
0.162313157375205
0.162845548934822
0.161115388238679
0.160615049403616
0.160428688794441
0.158229921681294
0.158328843302894
0.158629965745426
0.161676481943567
0.158107949382863
0.155903375637842
0.154267300823065
0.151786292098626
0.152473700303988
0.15737714588271
0.15495574305345
0.154523924788955
0.154887402056435
0.154551569924067
0.150830735538431
0.149725323588682
0.148690883625974
0.149420153174616
0.150310889294507
0.150512068369459
0.149491601030333
0.153578233351973
0.149782798440046
0.149137152838492
0.149491177230375
0.148128363448941
0.145324294641508
0.146994852395682
0.145571029623872
0.146845382627946
0.146701189709232
0.140782744402457
0.142905674717799
0.147625196979498
0.143196539095164
0.143447558753879
0.142359261014773
0.13948085603938
0.142862759260546
0.143920095882153
0.140882775769342
0.13987990141391
0.140475974256469
0.140572191220113
0.140754349481497
0.144184495243995
0.138954810252296
0.138733407225328
0.138757212987178
0.140150018554611
0.138928864509109
0.138339174505936
0.135521773062028
0.135142964001391
0.137095509784677
0.137023329049576
0.137580711675846
0.136169298257386
0.132955230215062
0.138128805874321
0.135170909011597
0.132624065809888
0.135666342514707
0.132503647904017
0.133446613473656
0.134363074796025
0.131817097034202
0.134232573601857
0.134343469401173
0.136475308289615
0.135044141331388
0.134448846827375
0.137475100554919
0.137664997121863
0.132234728165668
0.136656139361563
0.133760783813705
0.138512141757804
0.138405082237375
0.133844108942332
0.133999036742278
0.137842063054243
0.137864642152682
0.139898307805465
0.131705233348382
0.130164274757727
0.130845168263333
0.126169923448805
0.128086401697031
0.133217397421743
0.131374202656622
0.129090605305084
0.126551116403676
0.132739992950453
0.128590273761261
0.126651513235826
0.127489938208945
0.128086509506332
0.127670357352949
0.130550637185911
0.12494063311294
0.129372244207663
0.129055199577295
0.132347288038372
0.127831344225402
0.126097240722659
0.125456880962369
0.132429873728256
0.130029241401242
0.12804371331012
0.127402902058132
0.128764219493765
0.127014931270212
0.130674066516074
0.126866315721849
0.128608265554951
0.130812272135761
0.122908331926927
0.123969126261858
0.121160956624719
0.119699637473578
0.122307747935161
0.128542375690088
0.120638746469431
0.12535247402675
0.119876070795186
0.129100927363761
0.120257268653583
0.126575472806236
0.117649265233437
0.126690908728645
0.118079171819256
0.124126062528264
0.121368748788943
0.123158562200477
0.117999125796404
0.125366809368148
0.118205915932136
0.121603364300528
0.121826231709399
0.120621820893237
0.119160220348251
0.120724203107583
0.122612878402129
0.119028120897195
0.11993448006937
0.117792522232568
0.11808500704763
0.118551357548537
0.115392332866559
0.120093341981524
0.115838901393974
0.114722648890354
0.117619858944486
0.119329038865777
0.117496130058857
0.115412555002062
0.116646990662436
0.117169806518729
0.119772901293723
0.119956458347563
0.116489255661547
0.115703772608563
0.112360476172264
0.115333550995317
0.116036086392554
0.116120257641725
0.115794416060923
0.115714294219632
0.111319555887762
0.113520510613279
0.114946076384318
0.116676855822204
0.116992347995714
0.114293479774798
0.116933194707858
0.114338806961736
0.113628070704288
0.113686431078206
0.115565233848461
0.118972727612379
0.116403877278153
0.116994410465718
0.116031413931051
0.11573724477835
0.115288323590002
0.116506805230091
0.114123106055362
0.115275084331746
0.113159701526882
0.117177237696466
0.113802283216773
0.113886989093689
0.114613760708902
0.115789655000234
0.115108154311966
0.114517730238476
0.116535535828144
0.115389410633806
0.114413186067187
0.115933113524045
0.115979420288411
0.114375214030278
0.112686032469892
0.112475682605104
0.113274458507645
0.113835949454213
0.114500143755884
0.1139069350098
0.114187916238633
0.112533367784815
0.112505856216783
0.114733188738544
0.115037100146149
0.112949087559166
0.116640561179629
0.115327652908677
0.111594077641647
0.114585257396601
0.112421036157379
0.113165104678658
0.114869604522052
0.114810208348863
0.114995393358286
0.117399850570636
0.115075375128133
0.112598375288459
0.116202162155554
0.114469304531757
0.113815726201488
0.114458733221432
0.112519186177457
0.112868556517048
0.116696866815032
0.114575083073443
0.11511468729259
0.114575213770352
0.117495701701722
0.115756382351863
0.115211848531642
0.11459040436493
0.11569911018927
0.115953211968423
0.115359389558641
0.114746855350537
0.113895387426461
0.114818162589268
0.116700385769785
0.115131634488662
0.116086156903838
0.118660031095244
0.116087693044178
0.114255185975754
0.115861196295905
0.115461798346196
0.117134597899408
0.116233401992218
0.115304428193108
0.117717506718676
0.117025729091431
0.116212939307869
0.116206460202895
0.116705301294994
0.11724871223778
0.116754725871089
0.120702618695996
0.118700400319383
0.116843456571593
0.115353128042651
0.11711604722911
0.116744658323462
0.115961808367757
0.11506902412886
0.117368894577742
0.117775020214631
0.120486772504158
0.117452449901197
0.119027666596252
0.118722019797202
0.120127227354194
0.118142631784217
0.115292473720494
0.1161217631278
0.116563443044425
0.118481145259695
0.120022505968191
0.115871753330554
0.119494389619904
0.121442405927768
0.119738050948824
0.119594521332226
0.119702305595375
0.119798915304298
0.119693049545502
0.118022001906093
0.118035060661143
0.118592189106159
0.118632253887688
0.121113070450219
0.119617271342483
0.122564312927015
0.12073311504749
0.122018179528558
0.122195034085302
0.118980152394164
0.120475942225399
0.123592705359982
0.119810901772987
0.119609099125069
0.120037902935643
0.121217362261266
0.121107260046391
0.120783750642233
0.122749212061604
0.119629826593727
0.120554257594938
0.120214645584987
0.121674359783528
0.122501678353005
0.117923423050797
0.121647593163035
0.119538798766005
0.120290548172577
0.120170873520251
0.118347969399841
0.117312616746761
0.116819792342386
0.116224749704537
0.117025615045012
0.118394879577933
0.115340062470794
0.117159151561286
0.116995279946538
0.11633572621637
0.11655363367656
0.116405663291289
0.120656481034838
0.117551514829946
0.11830390844483
0.116677140523796
0.118365849181069
0.115788461611255
0.115852797622979
0.11556072468976
0.116704714519403
0.115569604564663
0.113639575531675
0.11431362313914
0.113689391490503
0.112858031083624
0.11504447421016
0.116037374225697
0.114167504118394
0.113138927997119
0.116707469294318
0.113658405421554
0.113061110132561
0.111463631930869
0.115573479422574
0.113471591467057
0.114459390408675
0.113505933232381
0.114351020159003
0.114658820559405
0.111824191350554
0.113179867597401
0.110487023535277
0.111014653418185
0.112688329547341
0.111593168652574
0.112195101708767
0.112704489842987
0.112421471504177
0.111713478774526
0.110619578395158
0.112547605733929
0.112169015179221
0.109143711931488
0.111147260051608
0.109499221941267
0.111682436402383
0.110246585695504
0.110495756516619
0.109330543192736
0.110670515230473
0.109656023671542
0.108011058441442
0.108187246844335
0.110502427027234
0.109799823382578
0.109778185694079
0.109031441068009
0.110809034163023
0.111408681360596
0.108346644541144
0.109478401106991
0.106690151892698
0.111906349321049
0.107593939209574
0.110003504675636
0.1091990866373
0.10970365444719
0.11022781978027
0.110190117259978
0.107178412886841
0.108895351192022
0.106829506858737
0.10973214151204
0.108501867329786
0.106464386792462
0.107595134786524
0.107520213057579
0.106476597449933
0.107674498194537
0.106869652935607
0.106747679054595
0.106463015589732
0.104165661124804
0.108747694979313
0.10699728699916
0.106334341287201
0.104626193153257
0.105709203931291
0.105494971706304
0.100541375499641
0.107629785689944
0.104187348109653
0.102693984918956
0.106600740540566
0.104898745630101
0.106964436184532
0.106098526831536
0.104887230383649
0.105152650838615
0.102939206300385
0.102898762243364
0.104345411616258
0.104678839780093
0.101194419237204
0.102505591672032
0.0996939977121415
0.101227209811287
0.102739272017089
0.101599239910408
0.10356350852208
0.0996874040273626
0.10298753743316
0.0983619988181023
0.0994749607768493
0.0992989266064851
0.0960987644335372
0.0998287092303557
0.0982857929837727
0.100565134273434
0.0973999737398692
0.0982518461103423
0.0978468647792638
0.0955011081039257
0.0963003575267228
0.0978557448414344
0.0961313355884937
0.0927262324133107
0.0976038219140576
0.0936090799749351
0.0950788849802451
0.0968841741182227
0.095678526226753
0.0922420327023926
0.0932728268389965
0.0919708926116593
0.0929647791894198
0.0920955437092841
0.0898319822637585
0.0914144432617156
0.0914870672791949
0.0924210672587704
0.090866926732211
0.093716208019969
0.0925068990277637
0.0953010998470091
0.0938807402167602
0.0885483029476889
0.0899213577420108
0.0890130889781743
0.0896798333978442
0.0888843741524562
0.0920521376381079
0.087792435618999
0.0893613107153886
0.0895470605156839
0.0902120216879492
0.09051484886102
0.0868153978690036
0.0894051033903576
0.0900441610924856
0.0878823045482318
0.0856076702884713
0.0904738946067495
0.0884679123466548
0.08754392054994
0.0888378899281078
0.0883402262954343
0.0871180343739107
0.0854887665568329
0.0869047294738613
0.0885909025568436
0.0853237113251411
0.0880048347037327
0.0843288057798304
0.0877693843310694
0.0857162618508548
0.0878742217645843
0.0878030173460937
0.0860341263545222
0.0846707547681916
0.0861971847294927
0.0847082495125182
0.0840525737078578
0.0843246775511848
0.0850902517966843
0.0834471897781
0.0833452565606971
0.0828246451173749
0.0841847402835325
0.0820935661227536
0.0812985193488547
0.083350188324232
0.0828442944232497
0.0818163953013321
0.0834356811205728
0.0849018021806833
0.0849886070507583
0.0806820159868986
0.0807708822886497
0.0833813800472262
0.0806495818105866
0.0824389656379542
0.0801635458161627
0.0819091132858872
0.0822322325212028
0.0789229001746711
0.0825378488185078
0.0800594005960765
0.0815949949720576
0.0804009030252267
0.0790502657183016
0.0782740360068755
0.0790432671243091
0.078738574872597
0.0796471217210567
0.0793978476362339
0.0794900373804695
0.0761397586897399
0.0776362664044081
0.0759545983027738
0.0832358130207747
0.0800200645623599
0.0783157904800034
0.076317782960891
0.0797935680362358
0.0811467986618083
0.0777000735056804
0.0762394263983586
0.078549276580446
0.079326539913382
0.0787555120229009
0.0817266694008243
0.0758715043086134
0.0785997471641456
0.0786307183341418
0.0796568641316681
0.0729816426903868
0.0787093826921526
0.0763693206721236
0.0796007060325796
0.0765503149712061
0.076622791878037
0.0778215196266794
0.0758903753421847
0.0752635639156848
0.0745953929425256
0.0769305259648194
0.0797894988488248
0.0758476914750773
0.0794668806778806
0.0761408864261013
0.0756130248415075
0.0765143313338989
0.0760272006180352
0.0749017281087598
0.0764536947473155
0.077782163636767
0.0776892922980109
0.0715614240413704
0.0790395543411982
0.0762205740401954
0.0744647065253278
0.0770862900588989
0.0758777946902857
0.0739119454048124
0.0775426901480178
0.0773190738244323
0.0780145835601413
0.0763193541939464
0.0752869923765835
0.0730173959835806
0.0747917306225478
0.0776685092824489
0.0756621271904614
0.0751735704745291
0.0730044712657246
0.0759443496105755
0.0758793255808823
0.0772096165236017
0.0764995977365333
0.0758109018826807
0.0750831422410792
0.0740308518097477
0.0721911918059849
0.0748101515332643
0.0760798130951217
0.0738358777337013
0.076124783585522
0.0749997395736707
0.0759461992904625
0.0759589707347026
0.0771997519893114
0.0763135586064713
0.0770298820365061
0.0735900519559655
0.0739635686755722
0.0746088196013092
0.0759049983759081
0.0728777844697399
0.077970099243959
0.0734025580080821
0.0766828703018272
0.0752555096916506
0.0760449750575341
0.0822043062793366
0.0725327185021586
0.0728404129551366
0.0739493117445689
0.0766522797657662
0.0745715395627453
0.0741557830753163
0.0786329145796176
0.0730143587707661
0.0729014510724959
0.0789872497071498
0.0762154455914097
0.0763253371327482
0.0739251517066584
0.0739999149654099
0.0814225715352299
0.0790618896356138
0.0775007577463589
0.0789130252137216
0.0769823439004764
0.0781031352509038
0.0766777576824029
0.0764122365670587
0.0787170447485556
0.077792291640665
0.077315487933243
0.0805997878150647
0.0768187426577427
0.0781692044367299
0.0791892414311301
0.0787905491834957
0.0811877827675064
0.0796864011514699
0.0798570445681023
0.0781510768625659
0.076225568928693
0.080617214832132
0.0769809821469746
0.0793603686994448
0.0825253202700227
0.080215454986119
0.0797871187069191
0.0816974347013561
0.0865920679403942
0.0816603997369256
0.0805098548963938
0.0780100818670237
0.0819226346363643
0.082909105365135
0.081804977290492
0.0789245387802724
0.0837560783324084
0.0834728179200013
0.0833755512498675
0.0798673036437527
0.0889016107477279
0.0837507425608831
0.0846865209888256
0.0837038353604339
0.0839484164376293
0.083485749273302
0.0856777404589182
0.085404620402415
0.0849399837318832
0.0877995884882219
0.0859564602050265
0.0859319217012135
0.0858821175072863
0.0881151506358959
0.0891576294790864
0.0888080554845784
0.0875219939737356
0.0894225245798972
0.0903333982827113
0.0897274482315081
0.0881314850584438
0.0898848418458031
0.0947199626337451
0.0883119435460306
0.0941219013732904
0.0914813548277031
0.0897180045704383
0.0915572561011993
0.091165567417835
0.0886442081811489
0.0924740939074151
0.0935103464067479
0.0934563872118351
0.0972844325098394
0.100604811878307
0.0948774703600736
0.0971693881001243
0.0983215149445888
0.100484940785186
0.102536688464416
0.0974187756252432
0.0988050604322669
0.0985126430482434
0.100508954447528
0.100057398888623
0.105549344155704
0.101706301805714
0.104098959482096
0.10612714905653
0.107378865626203
0.106580930809751
0.11213275815166
0.109588524772794
0.11223028737534
0.111243413029298
0.111628224544066
0.111503915596144
0.121522011306938
0.117996172209794
0.12000707106818
0.117843497105594
0.119087893716345
0.120992163618433
0.129331416265218
0.127860444860186
0.127365135754833
0.127241756705228
0.124875711424263
0.131731463603126
0.131671964239256
0.135744301991851
0.135646291583459
0.136988421699576
0.134687974848513
0.134525230313046
0.1414495195136
0.140988006911846
0.142740551978275
0.143811090810604
0.144952789268209
0.14402118706861
0.151866357015928
0.155481729072859
0.144648320169307
0.160058297224682
0.154374404336702
0.154418726956081
0.154654187633557
0.156418522208629
0.159754593968468
0.164019165459791
0.163006495372728
0.161262395459833
0.170807895271354
0.173336185781107
0.17084777347686
0.176514204271839
0.178105019678985
0.18317020962703
0.184979579700196
0.22628233025611
0.191596795672186
0.206407883591456
0.209039269690617
0.214887201004137
0.239206344457814
0.232995812893122
0.241356256376552
0.249019153006753
0.248074196514809
0.258848436681988
0.267279729503359
0.274566715185782
0.279178803741738
0.289534066815514
0.294255144841244
0.307725716301817
0.318676079451874
0.325394216443074
0.330562161251974
0.334577914387608
0.342371257253061
0.356491855390489
0.353938383925264
0.375333721481905
0.37814743542125
0.383170301306529
0.42589909862414
0.406373596630093
0.41035086823477
0.423348281273528
0.44258513828156
0.43707897580838
0.458745235954897
0.482619341803321
0.473207521225451
0.492030546511077
0.484889134325838
0.504429783149124
0.50119359374633
0.530194706109613
0.526486531244288
0.539031003438312
0.538419193118074
0.547643147404677
0.562210913563009
0.56291295872401
0.56318577218965
0.574759708892859
0.600997227164118
0.618129682651482
0.619302543701945
0.60431559495429
0.591337361009708
0.606707848357481
0.593018707200202
0.616948090073678
0.608733446732319
0.63089213004602
0.621492131766453
0.614354152370422
0.615203998350653
0.626787280747984
0.625106150472486
0.621402399064603
0.620939303087468
0.621709000078158
0.603965557849303
0.617035922107827
0.615880674651973
0.674757150073686
0.633405994213087
0.621253384943717
0.612304006592249
0.62371068460781
0.625142288618047
0.625280098841607
0.606612628286593
0.641466443713546
0.612070799972789
0.601223887873341
0.589489755255529
0.604280530898289
0.588276213877681
0.575424705830899
0.563892225428011
0.560056647612728
0.549787272090214
0.545164449996578
0.53874290746548
0.579925640335462
0.527459030562427
0.514078933409176
0.51553390456499
0.518435853039563
0.511783530074946
0.510116086768037
0.507709071275523
0.507642382579952
0.496737585141883
0.506683040038256
0.499869152557587
0.495964548491294
0.489631505943133
0.485187216950599
0.481557838448125
0.489021530342003
0.489577351115695
0.479990366821298
0.480328967985563
0.48099593392061
0.477793000269771
0.472398519358916
0.471912194065859
0.481904796719413
0.476685969739067
0.483389411971374
0.483039239657439
0.482722743324933
0.48141762992978
0.483923407850502
0.476246874206985
0.483254371434969
0.479148736057995
0.485630628769271
0.478076650937343
0.482580261175526
0.475459046088108
0.472039577820683
0.47198488741236
0.477213308662953
0.478048449514149
0.463700649352952
0.484609703082064
0.482097175675642
0.467831141181606
0.467146007654578
0.468647094501798
0.477008074661559
0.465448642059637
0.478996056994425
0.464611428235785
0.460081212671959
0.460782435409542
0.45363468403339
0.461240744830374
0.462879804744668
0.451119144896681
0.456295956500964
0.446898259299633
0.452804360174635
0.453982368742576
0.447195755848751
0.495970942484383
0.453279868535486
0.448170302619755
0.461278485956722
0.469073706320961
0.452585961443691
0.451309397735618
0.444334847720797
0.452169629096766
0.460540780314317
0.453400975658861
0.450704143468574
0.442197364656165
0.447437249188288
0.447464078322181
0.439643665036971
0.442126691362585
0.438098269324151
0.429329126409829
0.441675814962728
0.460721143633106
0.43725676867602
0.421840634847407
0.431124695660088
0.423273851964438
0.41526576956169
0.428659274335938
0.412510185903676
0.407378099657818
0.405215135494166
0.396578318722676
0.395519143052604
0.394932355075177
0.392603938646446
0.382071848089677
0.405663065488619
0.38472446326671
0.389835647879437
0.380087914277158
0.380287451394669
0.387153150898015
0.376503528105962
0.366581601202542
0.372042185163993
0.37662633438563
0.365378039064419
0.368680303785021
0.358310201700332
0.353427644783991
0.358521408987733
0.349631245306925
0.342516773244839
0.338477384567068
0.341802174083288
0.342382661091973
0.346226278383999
0.343972519133496
0.331205626727979
0.320990126269851
0.321676987045935
0.316850529183399
0.313939748183869
0.311882271838152
0.32419378967639
0.320413399790197
0.305509372319512
0.325485619343653
0.31916142139153
0.314807519458489
0.321045209507405
0.319978275820006
0.321916712469321
0.323276172259536
0.331536935985215
0.32340384829365
0.323824614612427
0.337281185249418
0.330199904408122
0.337290420587534
0.341682712930951
0.346929138803245
0.349701626926829
0.357643158900911
0.361960364263571
0.365496725706021
0.369155283576775
0.373705534147802
0.384768865113256
0.397363507508064
0.392415931970006
0.410070920842963
0.411694230433403
0.439443539347619
0.436843800974171
0.431118420380335
0.451603917891375
0.452149907332138
0.454208064398138
0.457921241803149
0.464444038501134
0.491089728832701
0.48311787652223
0.481561081598056
0.483718440188864
0.495216185544088
0.501730087129197
0.513635044327008
0.515525498228406
0.522748138741541
0.537469098238748
0.532737340286684
0.539328554401006
0.526397674323626
0.535178506878901
0.538497340680156
0.53699805188205
0.543623459955659
0.542302937341791
0.55932463585325
0.553920966236781
0.548516658893528
0.557025728488599
0.556495852448755
0.558842229010972
0.563243221251645
0.571865355997568
0.564534454701797
0.57209178068889
0.584335444070054
0.569619893300778
0.608828364778477
0.59650491703106
0.587153673060324
0.591262687822487
0.596282236528969
0.599740785142032
0.597296090700754
0.616688474638605
0.620470911526874
0.618433060000171
0.61758181490895
0.620482630333629
0.62375176683042
0.627554556909076
0.653656528416492
0.641600428937156
0.641929452294526
0.640937563281591
0.658234654481508
0.690045623253823
0.6501166485661
0.656050298022179
0.668128118868388
0.66903550089107
0.665978364628852
0.662217547316622
0.667687029333518
0.675340609813814
0.67993292105505
0.678885952655816
0.683481859161644
0.691621398649465
0.675147823324298
0.664550321338402
0.690564032469609
0.684121452563735
0.671813416533203
0.684064358770379
0.680486796173215
0.674211425226783
0.686439079490722
0.685310927894012
0.671337505344991
0.665146356588301
0.673534563000665
0.690253057901737
0.693494143463573
0.682110580768192
0.682539680908323
0.676892527175605
0.674656138076003
0.686547778226527
0.681110115435381
0.692270455353074
0.695132297479137
0.696940191281737
0.700947726719858
0.694181767067362
0.696045418452495
0.699101198730287
0.705319219856634
0.706049437282577
0.701930510602827
0.704515881615068
0.719544243517695
0.719629466788969
0.712469014344486
0.712284148413142
0.720050746730538
0.704058681684661
0.698718018031644
0.707251526644068
0.709761477206676
0.698079419656103
0.69458045036273
0.701165505052942
0.70072900204452
0.685045143048055
0.675162210548353
0.693846949631965
0.671959396791085
0.674784949131925
0.675220870635973
0.657319261466359
0.659016412166725
0.65084204168235
0.648498579355268
0.642701849671257
0.641236211194074
0.636795917568455
0.635102401743361
0.634912170716707
0.628071988422078
0.63311857887604
0.632377730810339
0.634924221769296
0.626467302794335
0.624829476855832
0.623068710297431
0.621349580932849
0.620523973566585
0.620720346662747
0.62495662795151
0.621891828588429
0.626914288049196
0.62221579897366
0.619678706664461
0.621155776843963
0.626104579334544
0.624014488768336
0.621440629374256
0.61590783373799
0.625591882322983
0.617828553906986
0.61737571325263
0.620610740468109
0.624458237144276
0.619336878405414
0.618863003931461
0.61746565436616
0.621388358019086
0.613562236420698
0.614203220394368
0.619071449562595
0.61891416830633
0.621301903206889
0.620573993184806
0.620644167894023
0.6242891766805
0.618048533285205
0.618056043018726
0.619235536967139
0.616907028403982
0.617288011140142
0.621244422612587
0.616031070279657
0.621530877908857
0.62027561161567
0.615527661297225
0.615407979090547
0.617622464972144
0.6156345138552
0.617450465180601
0.610657765117827
0.605204494442083
0.606694854363974
0.599743461066898
0.599221401845608
0.595670557017877
0.590390115411532
0.58613386300521
0.578910088129791
0.575018757858034
0.56810589248222
0.570488309699568
0.56485975369605
0.562120930025256
0.552312779946989
0.547218903518077
0.551590891629367
0.550119293969114
0.552499112650525
0.541192021389352
0.541967555179271
0.541246161757024
0.542830018964088
0.536530666035352
0.533310482643687
0.541033060621758
0.537667170523331
0.533087090129654
0.533648989418656
0.539112234340959
0.541566828421257
0.542291205510842
0.54091060154972
0.540155046717901
0.547178400339898
0.544911374531725
0.543177692072244
0.547760988563022
0.548591767344643
0.555013306987762
0.557980822646122
0.562847521505632
0.561400512080547
0.5618926503324
0.568884725505693
0.56757065919334
0.563396226151914
0.567253324919093
0.569393763265192
0.570958213391815
0.567446539411505
0.573157553780496
0.571468992434889
0.571789743332816
0.567495873940899
0.569166259506944
0.567743733810158
0.561480121670244
0.566075658879273
0.567045266961756
0.562139232246784
0.556936546243511
0.55826623823284
0.556849791901649
0.556972997030133
0.557024784665467
0.551226196419187
0.554932894978795
0.548354108210384
0.54680923507282
0.54605220292046
0.546378036301864
0.545940176325592
0.543132174583068
0.537837064555495
0.5417214397877
0.543181243100606
0.533646741516847
0.53571947866317
0.537372490168337
0.535673313692804
0.534789771596886
0.532341956192719
0.527326230513833
0.52507225858781
0.528414061689432
0.523763280063003
0.524757827893862
0.520777546403053
0.515996650720552
0.511843328281899
0.509076031196462
0.511280184581762
0.505659729111469
0.502597079477325
0.500211157398895
0.491149121522973
0.488828218636546
0.487633264606639
0.485309413458079
0.481101939049703
0.478995745546872
0.472522496145056
0.47074023131019
0.467507980429554
0.468094535412171
0.462755134900026
0.464786345858482
0.46274914427579
0.459934432021605
0.458470428100813
0.458278623351202
0.454694247288198
0.455914004663027
0.450028716493271
0.446508782573177
0.44192073986253
0.440603029247478
0.436300823309042
0.428661426254599
0.427844300960939
0.420505165201248
0.414285078222513
0.409651009373049
0.40636536492538
0.405970922363202
0.404414187326479
0.406490218301155
0.408758783217228
0.411430853490652
0.416762510341024
0.423093345116168
0.429940181522096
0.444609495414431
0.45462617795083
0.463481853774412
0.478277145682673
0.500288502936277
0.51323706196489
0.537010456263956
0.550904263118659
0.566285012679224
0.585266936514069
0.607482717103629
0.626145103890985
0.639806320272159
0.661289335428774
0.676913583017256
0.688003459117253
0.712187392237008
0.724799932305188
0.739088851567056
0.75578186813411
0.770832166734639
0.776572136098343
0.795663097836972
0.811432474892262
0.823121216060934
0.828509011537825
0.825883874172107
0.837912003169448
0.848919260384271
0.853030527346264
0.862046712739611
0.8636646493936
0.874388629869561
0.876401703367817
0.862885307624555
0.866287904509021
0.8782573692706
0.877911195558651
0.878152898601005
0.87379975835594
0.875263513750559
0.880749193827982
0.885045496315116
0.882312062382914
0.889107129557179
0.89297207439555
0.896646593094936
0.899133914381695
0.909876148912444
0.921718928198548
0.912277416361382
0.916601632956276
0.930665591368907
0.948869150004908
0.948808282850501
0.962936239502485
0.967741919534702
0.978056854278634
0.992415831589987
1.01118420873198
1.01553641022247
1.04695538831475
1.04828452253228
1.06587228198592
1.07042432543715
1.08357195516964
1.0819618629786
1.08783514106962
1.10537969348457
1.10438647758331
1.11377702379307
1.10982277404112
1.10925425717133
1.1049595473068
1.09398688228014
1.09550806777074
1.08609821249091
1.0962236805797
1.0944861791498
1.09196310563066
1.08895520970773
1.10007496572018
1.10307483000474
1.1199123490626
1.15174004997402
1.13401910793274
1.16072014444845
1.16634634981891
1.19274642028577
1.20454627161847
1.22672178489203
1.23876223967806
1.25197917334674
1.30279705838019
1.3058715695898
1.31718723759346
1.3230221190822
1.31657750567746
1.36250101996378
1.34604819615498
1.37724215141603
1.43525515203876
1.41012955823373
1.50533772025891
1.47618123687726
1.50021382937869
1.54539847429486
1.62180506969233
1.5323723543354
1.66845609546056
1.66802019743991
1.66419193904533
1.64097213834963
1.74513432935826
1.67939109503945
1.72087953679295
1.74076396057865
1.71352278347026
1.77234296039869
1.71287259892983
1.76707460722097
1.74294545233161
1.7279967729067
1.7366262338573
1.81158857284843
1.911765929686
1.6572626337432
1.83374107861147
1.78507214056261
1.82202390281319
1.71937741400037
1.74352932610866
1.75202635998834
1.76729217228816
1.71917853986557
1.8807598655288
1.81461504138171
1.94338763515618
1.95863040758699
1.88657550747166
1.86437103675674
1.91445674631556
2.00916727259618
1.82878841803064
1.79929471295108
1.82893878535941
2.1359527168927
1.93365087695871
2.14660763205549
1.95970327751691
1.89346367364159
2.10450427330467
1.83331167649199
2.31956624986482
2.040187378241
2.01239047683912
1.9019905817345
2.03658692164552
1.99929919911615
2.23500506566882
1.98039458362662
2.14343414882941
2.07762051502812
2.31614385549635
2.05557204369229
2.11921376465765
1.98143917492197
2.3166154569876
2.04652697630274
2.10411136219007
2.11969957239692
2.0747892033981
2.10743104514483
2.13970111148206
1.99496049713505
2.0483106637381
1.90048635573686
2.44613335043246
1.95222195015661
1.95459318855238
1.91461370969869
1.93896452930169
1.89986526824413
2.01043562092579
1.81907001026021
1.78800888318244
1.74651112774544
1.6762143233271
1.69484951674122
1.67755567644032
1.49196450391372
1.60314132045956
1.53846193761841
1.59292569803515
1.51787056641894
1.55867977410406
1.48023637450828
1.49613113735475
1.47149904000073
1.44594290622126
1.44534817657145
1.44832341991462
1.41710016685881
1.44661937952442
1.38938489555687
1.4823004953626
1.42209141964168
1.40809205650517
1.36355263987008
1.34279648927994
1.3105210491673
1.29162938806501
1.2868126898281
1.27593329823974
1.25463798560016
1.20824716825531
1.14620832110196
1.12345800251228
1.07242241723137
1.05393985101756
1.00280421924359
0.965379711471244
0.923480275591882
0.894127027872124
0.855949244375992
0.839895924929081
0.811557838268042
0.789693077261025
0.74446552174969
0.737043885145331
0.698260720736209
0.67418219119192
0.652058951104785
0.651991830428361
0.627912461759716
0.625533488789816
0.611581680010084
0.602048982030942
0.598422516599088
0.589676739873421
0.596811499494361
0.586793567089972
0.577927194134191
0.576943837487175
0.584459851239364
0.582497598097662
0.576686621238946
0.58845943128379
0.585192436131422
0.586753310560991
0.59407928456481
0.59550607114599
0.578793887749903
0.577780324430804
0.574272708707381
0.572008131839705
0.564271787315292
0.565425540394021
0.556507688240772
0.551223204130755
0.550914522375088
0.547876484519013
0.546114765856814
0.551966945867905
0.53892242084105
0.536522293969064
0.538486518863233
0.536579163485839
0.531261561399738
0.543034237648866
0.538157635432247
0.545058376450254
0.548652304040284
0.55600302630303
0.555399869297937
0.558874933487869
0.554921382950424
0.577668096406605
0.565989582210593
0.570127537705358
0.564965687346651
0.569545581111675
0.578966098071624
0.578361368635581
0.58279716725459
0.579407379710676
0.576396446251307
0.580997562534801
0.573052224485961
0.576365405479732
0.573652338848676
0.583191903999618
0.592075588037948
0.590382269567137
0.594391048603949
0.599602831012626
0.606462700449891
0.621535055192812
0.62880634371605
0.654003362100645
0.654430448471264
0.657665184907825
0.686679649736138
0.716564951175765
0.716049522635146
0.723246483400501
0.726091059832163
0.749070151090832
0.741484268606051
0.728488126809854
0.74162916480125
0.736872117347709
0.710442856292232
0.718914795308775
0.700249582044837
0.713415902903798
0.687589426442618
0.680623709425039
0.67033640858766
0.680067676596543
0.659052239135578
0.675899368429668
0.679367882325463
0.683262403293819
0.680058513904198
0.693799796882254
0.668230865256867
0.678044258661401
0.670472528194522
0.685743216940909
0.660363146794359
0.646434828848772
0.667531213421588
0.669672945735559
0.622517104111166
0.64651786440929
0.64077482505699
0.617457853790669
0.621522047822935
0.631322087570308
0.613283344077898
0.616561611647218
0.620031846637805
0.614451113490165
0.57685049884074
0.598472313834743
0.595970800341316
0.622598178652382
0.598255718705065
0.57442208989387
0.574758390357875
0.581505851129908
0.603823415329001
0.580374202865757
0.572187562031
0.593672537678895
0.583079041959986
0.572450629195609
0.562058872326885
0.578856214044554
0.537441382628752
0.559999948348046
0.551668535433928
0.544990948837544
0.54986246226915
0.548584397623567
0.544315018724494
0.560348435270179
0.517701757111726
0.536904841233591
0.522509945300828
0.548322990558445
0.524964191374176
0.517253511756073
0.532101355752531
0.526784049584817
0.538058489027033
0.543475723823174
0.515329897796025
0.521835306321825
0.547880278248374
0.52705786039551
0.527679803875589
0.536002236374573
0.542137947160842
0.532618593566924
0.535607546265969
0.532447984766003
0.529674927826075
0.561343086020495
0.527728006651359
0.548520942608486
0.545998734446161
0.545305516716532
0.543573739325034
0.554877125510858
0.544690932447408
0.569230745027028
0.549384790249527
0.592451296948261
0.562907369755212
0.576109955397921
0.581394149952834
0.595189837703374
0.583496651144905
0.622474891929266
0.607785509581579
0.632482358816609
0.599551987843969
0.610800298316839
0.638537004692599
0.661302346149581
0.67555564722741
0.696625462857542
0.679077055310424
0.748167714929917
0.741304460363598
0.767317388064276
0.769694921332299
0.853747896620158
0.83720596641088
0.814483190361858
0.801449167181663
0.844026548981859
0.892526875136189
0.892317176300883
0.862520344694413
0.880124904880133
0.815989345360468
0.897486294877388
0.940060337862173
0.849563950314011
0.834909567953606
0.839873666357696
0.874351138342946
0.864503100595067
0.853543799911933
0.913438604428676
0.893067447154381
0.897246254694635
0.826711526681992
0.804848922229258
0.817637367384687
0.821534537279516
0.8524018252007
0.86646439636617
0.842491036305599
0.919753601241197
0.836516057716307
0.796902461402924
0.754565149522509
0.808703922265172
0.839709211956471
0.762621900119558
0.748021587210867
0.849156622885315
0.760653797278198
0.774825417002671
0.783263247926511
0.808868378988197
0.798584185656534
0.865490817884379
0.717620782094392
0.790448084495622
0.793534835122025
0.769383765354329
0.735898613032862
0.854242348592888
0.783283174550679
0.831953000160435
0.770536013207833
0.771627150800772
0.800912023316305
0.850199096038708
0.762371912002923
0.800224781156529
0.747326847078472
0.820199810583815
0.860959529938195
0.804161490008653
0.742380422287952
0.811996019483686
0.714597305278014
0.926990241708615
0.768777075314328
0.814523607897879
0.816953765189453
0.836481802205648
0.837258997028055
0.905541957769958
0.924992083850368
0.9875644381353
0.855580910012709
0.877522679845749
0.917925984873873
1.02258935674268
0.798707537589009
0.906879026667826
0.946035937423546
0.941203821369806
0.801652367662008
0.983102787725315
1.07759101207249
1.12183073216891
0.963726051578332
1.14584786859039
0.954651090556876
1.07051632735333
0.904149876841306
1.24070800274423
1.14123140058212
1.26333949102813
1.23818920414213
1.10441148897744
1.29144282400584
1.34187266884867
0.900498760551495
1.22936213815108
1.20990817498974
0.979779063968419
1.01261812005621
0.982367112780273
0.956730700801952
2.0717861590751
0.884745601635916
0.953235657930715
0.941172699141812
1.15154824782396
1.12611675468362
1.63566469023457
1.05681495291738
1.14497872089898
1.22428547330938
1.06581233453215
1.09289573239713
0.947522992364741
0.8312527321791
1.08718958718469
0.988543066018536
5
0.750308392209873
0.864077378758627
1.07713299606908
1.25174160252436
1.07426984124414
1.69672603535759
1.28731037998753
1.15524889782074
1.08803604412737
0.84833560346275
0.551668986415326
5
1.93067050330359
1.19782751098852
0.812270536203148
0.986080729584811
0.620375587400761
1.29655492267344
5
5
0.885076853824036
1.51910050160265
0.819252839042191
0.510879706117988
0.717024066987669
5
1.34439731635103
0.586382844163479
0.460107336804282
