3596
4000.36533379555
650.420452594757
1
2
2
0.0943369247201929
0.0923817499984962
0.0949009655302252
0.0957974092981424
0.0939759621267438
0.108530329679337
0.0918662880761221
0.0961784494925069
0.0963585987457662
0.100133454244108
0.0946004355962101
0.101139560776715
0.093629312537056
0.0918756924866845
0.0883582613839605
0.0889462096342141
0.0859780541281024
0.0911185503758702
0.0934357931085703
0.0957460392158093
0.0891833922364322
0.0878675495962982
0.0981579219743688
0.0972931598988729
0.0886162603425179
0.101077009514373
0.0918371001611368
0.103863521268395
0.0947760687248145
0.0873357287024766
0.0909336361140448
0.0960449760353103
0.0980160244564083
0.0941695280946077
0.0879998286891273
0.0981589241136297
0.0965183626822296
0.0953423897094234
0.0900843095005962
0.102611240311338
0.105594073282818
0.100265376599101
0.101137371261964
0.0999006296499861
0.0956840155373902
0.10625497829764
0.0891639401942181
0.0952480013004511
0.0918535092913758
0.0947340092552494
0.0966933261613264
0.0880648064851883
0.0990206858473949
0.1020128113787
0.102234744555143
0.11237332049765
0.0944999508216914
0.0928261406440168
0.0954156834441053
0.102810264339934
0.123194720084239
0.104020328002988
0.089814960328114
0.0821656484063916
0.0785130646018868
0.0931539650661316
0.0854987591910678
0.0855197553432777
0.0888539333931108
0.0899048331812815
0.0837343213078052
0.110367730439975
0.100965538343358
0.0990569121630953
0.0981898569801729
0.100792929815934
0.0794823701055345
0.0906491750005574
0.0915761765822614
0.109452761012782
0.105127185052476
0.0975105150414847
0.091527730440014
0.0861853094372613
0.0928648461398955
0.104261036993874
0.0770641982183279
0.104561737726675
0.101589856079174
0.100652921347724
0.0893127844020815
0.0901192421620391
0.0806513989605113
0.0848659122915889
0.0798499506328327
0.0902603797145673
0.0786592696114862
0.0925638244605206
0.0847716124994842
0.108082769812958
0.0773207567328856
0.132415409815863
0.113419978649058
0.10678137155948
0.134814605117089
0.109064655098979
0.10502727819607
0.126047708258563
0.0990777803167965
0.0885422706890378
0.0854344493523025
0.085655645713186
0.0950101630818657
0.0963537259447012
0.0846618828715844
0.120653381435775
0.111968158656038
0.0938545631171397
0.0878163593408878
0.0934908062920917
0.060183245725991
0.130227079792264
0.117269832272603
0.0967158335198432
0.0852382802804174
0.0783519321700997
0.0744095216886612
0.142956040982814
0.105288057319156
0.0905926586195502
0.0713572089860958
0.0924361422657944
0.0715786572569257
0.111416551336112
0.116817308189262
0.105134981495205
0.0825125042347927
0.0864151918536735
0.124876175829762
0.130938251477958
0.0986316001957339
0.0904305214460214
0.0654287130655126
0.102875842938031
0.114597626708139
0.0928053684463377
0.0818845601947705
0.117750982874775
0.0807742075471501
0.0902696432666592
0.079392421351052
0.0892652185254467
0.106931553761953
0.0933048239586711
0.0518749484023467
0.181552251276132
0.110506381082914
0.166746336694616
0.11667427296148
0.103464857654188
0.0934416460815513
0.0927640400674243
0.0805922591438522
0.0836185941143991
0.0783935280219308
0.0773901438692847
0.107374822263643
0.108654147935308
0.0774633654936512
0.101371948763868
0.126535100468279
0.0977560068167798
0.0865499919179107
0.162754858162841
0.0871346792120624
0.097382503719342
0.108250126921185
0.0977632543284722
0.0616020875503703
0.11993964229935
0.0962356615610818
0.0932231180895669
0.0786597181762616
0.0787548504768484
0.0850803306253439
0.110840459631192
0.0804464970784856
0.0916693887923837
0.0711601626575866
0.0847165741768344
0.0952933062262384
0.169058632134699
0.10193088668847
0.0990072389035361
0.0837547491299117
0.0842996039080885
0.114574209414769
0.110887575315657
0.0789659012965852
0.0848394914399522
0.0786343535672621
0.0879706303070309
0.0729781175048526
0.0902765421915415
0.0547132618597934
0.0804603545954018
0.122753264426648
0.103202516122642
0.0850512677048526
0.0873160823400145
0.0839992698948415
0.0907274051186781
0.149221250863332
0.109597552929957
0.0980937187617674
0.0866421687234041
0.0846872581915677
0.118735024338304
0.0929548978801473
0.0858444725606973
0.0783347321385237
0.0890405034644637
0.0819343915032329
0.0765707776414531
0.0755818873601781
0.0841815698331047
0.0809163912547136
0.091234980645009
0.0701855646623687
0.0934330298749154
0.0951507822416881
0.0868861251782114
0.0822855144972277
0.086394315078964
0.0722233904932753
0.115395326331213
0.0954667530486735
0.0978332500983574
0.0823426869840479
0.0908791980401614
0.0777339053935415
0.0807921079667295
0.0790125121654041
0.0922310679506398
0.0645393891955825
0.0997970887725107
0.112017805747327
0.0981544908882956
0.0814722871204147
0.0757575814365491
0.114945501016649
0.0960156313213819
0.0864644410285469
0.0827715711899927
0.0852892099699434
0.0691483549269252
0.0901472346274479
0.113795525179691
0.0927835958624607
0.0889136434281046
0.113197825249222
0.0992553535896599
0.0971423711749773
0.0725852509394872
0.106288143720097
0.16485507148023
0.0895308926521476
0.116167315629217
0.141925218331672
0.10284661549035
0.112566936276171
0.0794405419123508
0.0887555759401907
0.235556038437974
0.133275977903326
0.0873347956670612
0.0972439405683749
0.116002813112908
0.0811224375779704
0.108948019450796
0.0797107670290574
0.12806790679469
0.110277086004761
0.189749690524993
0.134908227279602
0.0861405226455443
0.132355809540231
0.109985386373175
0.0946075534245532
0.0934376837321567
0.0883569134206835
0.0839920099409602
0.111840499774057
0.105737286679261
0.122393508933688
0.0898836830433124
0.102959305582163
0.118131533858734
0.100173699046652
0.0894326855473824
0.118849849147844
0.0941700481864088
0.0894613361332552
0.0918441106629241
0.0883742583735732
0.1157453755164
0.0824343027913618
0.0948864743327754
0.151584674260798
0.107306690847318
0.112328378434651
0.132675741870906
0.092880836878992
0.0959592215192053
0.0945139581879216
0.0998969211410752
0.0978661817603117
0.0920171751618522
0.0940318664877548
0.13749952706774
0.0950893577207506
0.104410636912754
0.0923312578059761
0.0980384847401632
0.094944923408396
0.100434945725632
0.0952598570862881
0.103860534756353
0.0955984728405876
0.0930978409477497
0.138909105957312
0.122173519942932
0.0859323667914825
0.168679293751111
0.118431828022425
0.114572722981076
0.0935723625145315
0.112158786437252
0.101780728116929
0.111386793355888
0.105190893522738
0.114452632383108
0.109857610504845
0.129506386930095
0.113420062152758
0.123321956105191
0.122391910035703
0.205049884729538
0.170673380240507
0.141018312114282
0.112052037101933
0.110123668601668
0.164639979944904
0.129553476331386
0.162427731687585
0.151172405746218
0.123653672251398
0.133249492674984
0.119807259843301
0.136279808692906
0.12228226195339
0.134071209088085
0.123069410857345
0.140826910374398
0.12395296275635
0.148454504520765
0.112648461575518
0.163201069770317
0.179611544589534
0.14868710433872
0.141059879397764
0.150823122153547
0.124301891108513
0.196179041757569
0.16762864387718
0.259972750879539
0.164932060495132
0.21879492442491
0.182671699117935
0.174746136233056
0.155275966174036
0.162009075718163
0.167996389349447
0.181447520946429
0.162091524126013
0.173310267308054
0.1728500390565
0.189225936417998
0.168947792715037
0.191460458287265
0.167694526491671
0.192229778091381
0.197977579467355
0.191405658021201
0.190885482723654
0.192551611359818
0.216413190089246
0.264810653747799
0.247325616576244
0.211905833861852
0.222842800015174
0.200511388764174
0.214727539578418
0.21148911237071
0.225223467185642
0.229746642298022
0.228211354105982
0.267634034580394
0.221638511792209
0.268522324992438
0.228512475974627
0.246364864663396
0.254887617558114
0.234576572939983
0.260837234385357
0.279195282779159
0.256159232523787
0.242802515609509
0.29700655772976
0.273674950482897
0.268699724801961
0.294904251222987
0.255145731853754
0.265340756337387
0.260138693021768
0.294490385817103
0.262345985450339
0.31569625337648
0.292898202822672
0.301500850838642
0.302102696663413
0.299718837135526
0.288036171786772
0.354113349674805
0.304733379089858
0.336419928123232
0.30754811091963
0.312713090362136
0.320959633364614
0.314871068197912
0.355140075866876
0.326000675447781
0.37499880837266
0.356653641013136
0.321407479089408
0.346786886212186
0.334631418137946
0.369606612878702
0.338599355836411
0.369741433794323
0.352270104249631
0.387132654222613
0.355836225322847
0.38402662040876
0.357709774399764
0.387060347957411
0.369672956681811
0.401699396824917
0.375811326279121
0.396272630376413
0.411140750625405
0.386719421757823
0.453000500432037
0.446160268701132
0.463675476966464
0.458145635747129
0.396937994974439
0.438812787352095
0.42863607200359
0.447752976274182
0.429364796825375
0.455425307111459
0.436710970166174
0.472074976033593
0.455083730970611
0.462182511494089
0.448527671735713
0.477244316024908
0.474911662432017
0.491162531397625
0.450424104025985
0.496006914845135
0.452019274258485
0.513953960127845
0.464561946553593
0.557821591789474
0.47769738521
0.532520309721787
0.506282734528927
0.559176238056537
0.501030192368622
0.536685671767509
0.508826650914066
0.549070325754632
0.550570066620955
0.571829010158924
0.529682612083206
0.588997755912948
0.548433595321481
0.572130055640956
0.562001051867027
0.60189269868786
0.538432235855285
0.615138083438037
0.588547786607738
0.620928236678092
0.595307352574557
0.589784337996099
0.583790379831217
0.639442559779131
0.609858163248114
0.654669404902686
0.620457692803483
0.633903789373711
0.620609522461427
0.693675030328121
0.624532851152938
0.656974093312659
0.640354494944444
0.675800908496393
0.636110766415624
0.663606288425956
0.676630949525398
0.732329942433269
0.666551763347182
0.734851625269739
0.695654498196529
0.706373550950725
0.685268353222519
0.711415384648694
0.689818146273568
0.748188919177838
0.677952499294847
0.758523762804543
0.752788273393331
0.799746477076435
0.678923249337476
0.802643186328364
0.750349026976026
0.812448130116444
0.749282718744062
0.757857201377583
0.720650869054601
0.795105203330388
0.771181773459093
0.831896910246681
0.746458738415083
0.834097583970771
0.769174055426663
0.840041546391346
0.795063480779675
0.945192556445576
0.802393540363093
0.844746862288185
0.805988950440418
0.83524215154373
0.81441164236534
0.889027586451555
0.789653983621734
0.856113654130545
0.840314521471892
0.880097833176144
0.849270620671529
0.923052962259003
0.849792282305631
0.896912279423602
0.894459662225964
0.930861754030706
0.860575735445523
0.960087341464931
0.851072697150665
1.03437888620804
0.898364682532419
0.964711432630045
0.839897966322616
0.944049413081711
0.974264174649405
1.00731369423886
0.895433264797301
0.972328550029803
0.883480081487351
0.994764051295218
1.01606073148313
1.00081746188562
0.962250039253541
1.01012289286334
1.01472167211017
1.0077947180254
0.961477115841736
1.16381985080447
1.0501281119254
1.08365674970299
0.882527591018858
1.11958586416908
0.983854737869412
1.0359992802703
1.00345034767051
1.06203262265292
1.00676216068223
1.08459329952965
1.06946547661919
1.14594057983816
1.08620295997868
1.11498585059829
1.02184152970787
1.08238360793005
1.09545550483341
1.1893476772147
1.00618339380257
1.14992943052263
1.03639550835871
1.26519003640086
1.04549859971881
1.15454592189868
1.15806091466032
1.22699863332219
1.18088687832333
1.15338088386185
1.042529742299
1.23983929149455
1.12467405076984
1.17550197744022
1.01737548435289
1.21391855993962
1.10061959839886
1.20805443626415
1.14116693149497
1.35759755012879
1.14277357450742
1.19149266062699
1.10236872316187
1.25406084891152
1.1906654958129
1.2824885611695
1.24061044691731
1.25530485368161
1.26617858313624
1.32923339905664
1.23976990943927
1.26363979042895
1.20562949893451
1.17195249442038
1.17880343454891
1.32327319020919
1.20094130949754
1.2647988446771
1.30123259419413
1.263264223127
1.14770862750607
1.40326675914361
1.22931992791139
1.28069943968334
1.22221074998049
1.34445696812861
1.29471746644896
1.39620411892814
1.11605797663113
1.35826200603018
1.30197712330976
1.45955932224995
1.29062491833201
1.34989386268102
1.27515565153437
1.48270151128311
1.25358518035837
1.40922297750407
1.24487026030569
1.53053829093066
1.17044272666054
1.40330809644856
1.36276815387606
1.45608682782926
1.25075092440822
1.46349883438009
1.16545883350771
1.33878088925677
1.31312448380532
1.43637060504328
1.32482683218475
1.45453703737174
1.2829181552538
1.37517060908796
1.31191599652182
1.46153277932007
1.3475268592415
1.56310379589367
1.25307246919604
1.4967267103993
1.38982629589401
1.54125133702154
1.55444385638845
1.37187269145869
1.31826566988408
1.56256450701946
1.39257986338962
1.44705046987348
1.25975502136987
1.58593085029854
1.43190266249907
1.50236623352382
1.41351343370992
1.49284254023175
1.28389000690655
1.32833946016669
1.52961756241763
1.47901016592894
1.45131803183047
1.45038284567797
1.33852709129857
1.5400225265241
1.39805492396919
1.64436867786228
1.41698737802956
1.60343462732905
1.39899251827589
1.49749188052203
1.44949293608159
1.60858462343372
1.42424489091749
1.44118538291819
1.37754650521533
1.41580598232949
1.35297656983164
1.46020891070493
1.44301585540495
1.63840172444033
1.29357230605992
1.4026897299003
1.36428775159441
1.49726423620654
1.56230838954508
1.61395779796232
1.42211976834207
1.51563858146915
1.34004966342106
1.45094176356149
1.50190326776841
1.44378659212525
1.4205416304279
1.37806039360262
1.35135092618556
1.48217050021551
1.50007654903434
1.7160157325766
1.49945640505598
1.43272397713197
1.38095870083512
1.5763685762219
1.37279775547676
1.41383199389376
1.41602800672493
1.57755390649431
1.3481303424952
1.45041531593044
1.42462957297865
1.70980719246881
1.41074361664656
1.47343947655358
1.39589203449402
1.58920067298378
1.34642104341776
1.47126852048988
1.40932063385134
1.66497070664805
1.31602759504218
1.53835573830912
1.41278415773661
1.47085825289092
1.40787069278641
1.46444935323261
1.41566817878379
1.41130035941181
1.37628418011762
1.55133994537335
1.39868107912456
1.58079219310079
1.41293873782233
1.52226917888526
1.38579892798141
1.41635467200349
1.58421782897946
1.47664694589759
1.31298175470089
1.55148052153039
1.52646051928042
1.46806333124042
1.39638490087826
1.56388849855377
1.38231282485968
1.41844078739627
1.37749561994445
1.51645496014444
1.39359268321528
1.38313999773591
1.42415278087581
1.46780722359024
1.386357714295
1.4956986124537
1.35793433823222
1.42158800842299
1.42095623582935
1.39353900013906
1.3391419664119
1.49948439146193
1.44880322894231
1.47903802698157
1.31019560926633
1.44706049337629
1.44628346060591
1.45416096837838
1.39778820427322
1.43701992077927
1.42690046486724
1.47628733856816
1.39514625518843
1.41142247084575
1.35767527588346
1.40342621602875
1.36563250009568
1.40240420242143
1.35744399700992
1.3953306499495
1.33058107611381
1.42331255148685
1.33756044889612
1.45628870858045
1.33704946465719
1.39767165330381
1.39216358901739
1.3745107368333
1.40237204513711
1.37363204945372
1.3067131260576
1.38756017503391
1.29802688961415
1.39783704829062
1.26080344584841
1.44590953305566
1.22569721729504
1.32250390955593
1.29076860671301
1.3504451304538
1.34407081699116
1.3281437972559
1.26612933799819
1.26303285722393
1.22357757419166
1.33226680390369
1.33043956688511
1.34207582944315
1.24267027124833
1.27337710177512
1.28309210163213
1.23354803922273
1.22394344249711
1.27653919362884
1.24796660950729
1.3156613171324
1.21634890278326
1.32534710798031
1.33668761168664
1.31742145782121
1.23498003763823
1.21115918153477
1.29902068458251
1.20551453960989
1.17705303027798
1.19851360938761
1.22538523563287
1.22390461151081
1.17194922432889
1.21547268788983
1.12238303572407
1.19949171636542
1.20414499272514
1.18233077359557
1.15136885531217
1.18946599443431
1.17284497972627
1.22347313621397
1.10644095011899
1.1217487166753
1.1949465188661
1.22184612807212
1.11163610022543
1.15245871421865
1.13315579569922
1.16974881318837
1.1003434981394
1.09511191132671
1.07966476951012
1.11980182407246
1.0862704449692
1.0791816151581
1.08793977262965
1.09108959447903
1.09332469271209
1.13420008964803
1.05435571278232
1.12819700035035
1.07310018538293
1.07492891732486
1.0545115506343
1.08911318248399
1.06053312238619
1.06928609831375
1.07598788273526
1.04203127220836
1.03524866003095
1.06152948984517
1.01487568081569
1.00992273700223
0.990623677150735
1.04982520521517
1.01079227141429
1.0069137505329
0.977199106810273
0.995320252106392
0.967849168821896
0.992493962049775
0.96646898280009
1.00348468845508
0.987438752467985
0.980899774378245
0.951462908956423
0.969628437561645
0.955219768878166
0.951360375152486
0.946553877574064
0.94767262424253
0.936499664208222
0.949641195365714
0.91182946908907
0.919472870038014
0.903842920156724
0.899126747738481
0.887031196643065
0.933176048851948
0.892960070064461
0.904070571483217
0.867156064171733
0.880551222009936
0.876811120646766
0.869758193431664
0.870306109480736
0.851762443808259
0.83087938951013
0.854142932118539
0.863938866170915
0.862028914986445
0.847435805307656
0.859367215247363
0.847821810658919
0.865755946286192
0.835860811037869
0.846033097466926
0.817140240830106
0.8309041602746
0.829182635901425
0.82923949700227
0.808828498631924
0.818262300155297
0.801615986876269
0.812110224681077
0.797662438791635
0.7870660042752
0.774553033981856
0.789411217854047
0.756582982464249
0.760408762068233
0.777082462721284
0.763251819057275
0.755070722932001
0.754231216597544
0.723289424942918
0.737657626590354
0.747287372713776
0.747969234091691
0.737999327740545
0.758779747821543
0.746747083278765
0.737633176414712
0.723580589507943
0.719748217997227
0.710361146382388
0.723829275612515
0.714881935491631
0.716749039416948
0.702685212454619
0.704620825459483
0.687334356481678
0.698860381043007
0.690181419702922
0.689065536254623
0.668224441275177
0.690083161128507
0.681442005841087
0.680843242874831
0.684807172553954
0.682605262733624
0.651216719805381
0.676884926898082
0.654955813820564
0.66210355544272
0.650717678445349
0.658912494140877
0.648649688480744
0.630638315920928
0.644508312689982
0.651502163954423
0.628624169619449
0.634670306029183
0.630738780230078
0.629223041133957
0.627434050152923
0.614231297729049
0.609480576949121
0.630140438384102
0.615792596344485
0.620815045342182
0.613458338145308
0.607202225124875
0.599596525470541
0.606961521629327
0.591529521903317
0.587294561007511
0.596136367400331
0.594783571270229
0.577362841450551
0.570778687763748
0.575469737652645
0.583010542473754
0.569297583331106
0.566615265736041
0.56269961591919
0.569766948824001
0.562686711889328
0.556698143240666
0.56015109871504
0.556053912717608
0.554018864510733
0.555967715261776
0.54914525733825
0.549999381921072
0.53251602633006
0.533023098174486
0.531739610366239
0.528477460594177
0.53164569680881
0.53768020010276
0.52483188395147
0.531990330568226
0.523952073429362
0.527365561819832
0.519986450664778
0.522172702503845
0.520374452095667
0.51833407060714
0.514763877924779
0.520133387356468
0.518930450164933
0.522484847091663
0.510429133557699
0.509506092411813
0.502889568303749
0.50317492043893
0.500590499161934
0.498946941837523
0.495913519255
0.499588260343096
0.490661836773328
0.483941661284586
0.498157718570217
0.502561260896983
0.498802983203457
0.492138758643203
0.488954259147324
0.502366947835259
0.486765833265778
0.483585602094247
0.487359561208981
0.499611236189892
0.492603997714166
0.493546719621035
0.487647620508688
0.485464402058496
0.488705352734639
0.499918046284729
0.486286827395613
0.48997493435578
0.494013619412463
0.49287165557381
0.496317495770737
0.491366895964516
0.500507097616526
0.508512366430974
0.490936847573957
0.50159422914492
0.501169364682237
0.501404135992724
0.506092253442153
0.515728424002605
0.516896228028468
0.512255297224055
0.516342542880611
0.525924700846175
0.518249080265603
0.521178565088692
0.517163802551923
0.528679136750411
0.526441987305874
0.513560796334441
0.528203692113883
0.538475011493039
0.53933412357682
0.536104790712624
0.535760862070264
0.545355546768727
0.542406177213727
0.557570537736834
0.549123723183895
0.545001662368609
0.549789929392722
0.551427355960023
0.56286786179629
0.56385826249712
0.562899668314453
0.57349721951536
0.576165960462452
0.579872224832946
0.584111011142122
0.585069691764328
0.587446866260548
0.58923225803937
0.594087916931491
0.613044423675085
0.603744622383466
0.616108392523487
0.626649139160312
0.61846788980111
0.623172137877753
0.622589376827313
0.619033934207052
0.635264792737899
0.642705683882739
0.64898336770059
0.64703963418407
0.637402449473326
0.642587015086919
0.650439407603708
0.649211999404571
0.642325552402576
0.658595146180706
0.646088262546569
0.632283920807034
0.656397749411422
0.650081020730098
0.645953308265986
0.646259964767127
0.645990780044915
0.638193502308755
0.637937616897085
0.651953514268105
0.646531387195537
0.657402032941295
0.651377189224531
0.636002882878396
0.647009067374369
0.634743749015417
0.63324368199747
0.630869459958863
0.642314485974731
0.653898577198581
0.643511098380461
0.644628884319185
0.647638524544165
0.629764211294014
0.631275579510323
0.638308469853168
0.625218754678919
0.639389678549237
0.648078024611073
0.642224074136325
0.644695106889953
0.649632818010275
0.654633339977649
0.644247309756296
0.637904435743484
0.647862903013848
0.65854951959894
0.65044889630468
0.650850007404737
0.642717595227539
0.637384069586067
0.653310536575773
0.640653446112886
0.637275374228777
0.636216210712675
0.636204151599691
0.644939072327007
0.642852244427342
0.642067358822226
0.645604002209337
0.636121498857395
0.639290634422828
0.644471138247056
0.635368904316356
0.630525085321518
0.625894258923133
0.627359808216683
0.625380915987356
0.612696616438198
0.613342675486748
0.61401308952361
0.602832315221954
0.609911674524945
0.608577447338981
0.593838450788465
0.598821079179784
0.60608088319834
0.602430739649747
0.582191211323091
0.579069231340276
0.582868223524909
0.583127759735601
0.578033867365435
0.572448597273413
0.574856096497211
0.564190327254377
0.546106137887279
0.555917420853487
0.547098761297511
0.539005747068331
0.545482855018115
0.537282976197536
0.531752565342932
0.526097069673612
0.526293080802126
0.527596310619604
0.52515277613046
0.522065118931301
0.508766453331965
0.502274521827906
0.502776882153582
0.509045347195707
0.501453470085224
0.499118004431121
0.49501775589119
0.491378703676969
0.48735982172127
0.488512888590974
0.482358942153845
0.483031186632439
0.482416639702692
0.481357932511421
0.472288527629586
0.470828511942646
0.475617171934533
0.47469456527532
0.465018350603456
0.458715283076648
0.473697223171902
0.46587412583348
0.452625655527633
0.455838603983898
0.449934918909928
0.448945228424207
0.454204366169725
0.439391287391424
0.443600807825458
0.448512823293499
0.445460405034869
0.444575031879156
0.443212659123076
0.435111687748341
0.434132274377998
0.442861510627477
0.431234194925249
0.432380135355368
0.428225602957805
0.423670082186875
0.422852998587094
0.427340667574301
0.428063765654359
0.429207508859669
0.424168263574818
0.424835517994234
0.417997140200912
0.421720983909459
0.421856092100834
0.416996144734421
0.407694533169162
0.406225836022784
0.413231721582005
0.41218660906029
0.403521318921289
0.403917404031117
0.40461798015776
0.405258608395785
0.402948050110982
0.408558258661005
0.411786705120152
0.406068735500348
0.401818041682754
0.401015104498598
0.40314011057574
0.398623602862276
0.389069246920906
0.394196276801543
0.393543340775542
0.388060748998851
0.389126849898391
0.390220773738165
0.387296995947249
0.392641997528903
0.385505588866283
0.391980411292063
0.380403879731373
0.383314596000688
0.3861186236326
0.380821005345919
0.375994772632434
0.380886906744269
0.380719002333622
0.378324625985654
0.378304031603465
0.380884052322829
0.375443462392063
0.377714293466437
0.378550331380035
0.369686016018672
0.36934925000386
0.374835697164577
0.374726263259248
0.371241271564559
0.365973186522611
0.368608828620158
0.364893020918482
0.364727470969481
0.362479610786515
0.368115404274804
0.362870991680949
0.364396762861441
0.366542063206013
0.366121067711222
0.362785982073458
0.365693289586751
0.360333282100752
0.364720162338288
0.362689335706868
0.360830328214251
0.359663804482785
0.360419499911296
0.357766572598889
0.363943034502503
0.356759049782006
0.353744933822526
0.354151994900402
0.354175441021975
0.355345567192168
0.355443546691663
0.351208401420337
0.353138524223585
0.355292213198343
0.356802171413279
0.354288708338993
0.350409127755618
0.351906178938412
0.346677060089468
0.346088540563219
0.356109139411934
0.348988751703158
0.350143285076088
0.349616469080875
0.3469108342128
0.339889520131643
0.34597486740444
0.339777204846651
0.347857593319553
0.353595250286759
0.349151141720097
0.348436221771424
0.347157174446893
0.343266349205392
0.34186599874099
0.342924046901058
0.341222004334052
0.34085947348321
0.337502381557383
0.342389174639773
0.342455998246389
0.334907298645503
0.337173111032195
0.341936412840408
0.337456571874494
0.337282574578708
0.337481778453821
0.333585774792374
0.333742505235723
0.328304340038678
0.332579059299534
0.327412737723154
0.325060469560913
0.326511868517676
0.33096686012323
0.327340890953786
0.325069499029738
0.325059659865638
0.32244945555171
0.319638621684766
0.324006268358413
0.327427367201271
0.32159116611902
0.324198568932415
0.329573796582973
0.320880904036781
0.320056826036166
0.319197061739772
0.322082784366526
0.321894164105718
0.321284449145623
0.314985103677499
0.315132527030417
0.315458950079332
0.314100304170192
0.312913698969611
0.31050538247085
0.313341586507275
0.314394980304932
0.31371595451111
0.310366923536189
0.308532514083821
0.310140316263074
0.309865166922246
0.311949492277366
0.308766398330413
0.308049381576854
0.30392045670599
0.301405164785964
0.297640786409182
0.30214016598752
0.296173543483834
0.300523597174957
0.298274899515836
0.295664591863725
0.293382676233354
0.293139483779156
0.288709067775869
0.291986087000764
0.290222279145573
0.290844643358683
0.28891219265207
0.288507796138673
0.285224149241261
0.285865778440284
0.281967862516454
0.285760882964871
0.284212578649029
0.278727374080621
0.282635919985798
0.280346126174144
0.281740092999861
0.276556211771511
0.276253444795094
0.274684887771549
0.273617665306131
0.277480528769563
0.27100645653089
0.270442876713992
0.270201161762896
0.271107929771671
0.271708443139233
0.267087011489354
0.264498998784913
0.266564975852633
0.271039430611684
0.264991575636852
0.272190898707918
0.267411512039133
0.265312735751218
0.269206746864401
0.264496938143784
0.264827362258693
0.258264032934047
0.260740041631456
0.262052475070505
0.261018274261112
0.25491306278054
0.254741744374489
0.254099537091142
0.257022589944607
0.258751542334723
0.259778472394872
0.255296172335089
0.252938295141357
0.25484780278085
0.250469295967273
0.25444022735527
0.251818579550676
0.253218096552643
0.249666417352437
0.247644897877498
0.248328713225794
0.250153161657463
0.243993836099164
0.247823320468472
0.250789582718158
0.247377941817261
0.244331632128789
0.246836373411849
0.244844065266955
0.240492597234267
0.240438085971048
0.245070207793235
0.239164519470654
0.242162289012566
0.238940662303439
0.234775292969539
0.238497605542495
0.235957905905333
0.239254297512669
0.231587574292727
0.232302926667147
0.234955443295505
0.235234170547369
0.236875682364387
0.233547359561977
0.234400844691702
0.236397814897796
0.233298446432669
0.233672717196307
0.233457235029988
0.228720294027488
0.227347935689311
0.232157177043704
0.226860339261456
0.228633289044192
0.228323491342216
0.224882252571937
0.225731105834369
0.227097845130385
0.225467410896779
0.227846446033813
0.226087305067184
0.226433575981753
0.225019778855055
0.225163652875006
0.228367033243221
0.227854361940196
0.223790053502555
0.224539241402642
0.22589184820289
0.223938469310647
0.221772142884597
0.219823705460605
0.218931799757567
0.223042891811488
0.217343158692551
0.222541780405706
0.223638907505148
0.218097989883034
0.22315497871783
0.216074874784165
0.219429393774189
0.217186308967906
0.214477814616008
0.216307912230193
0.21265935216484
0.217529616716413
0.220286317437413
0.218285459960627
0.215343556290591
0.216023750793523
0.217451558982443
0.216131855086333
0.213116481270682
0.212359654360493
0.215754547916695
0.214009220019858
0.209740212154776
0.215384821998207
0.211711566355729
0.20698018402214
0.215905667293674
0.214786661996072
0.207749236200753
0.209878097775603
0.209402718215989
0.207159557606749
0.20704927855716
0.203703379477626
0.209287300662047
0.21061051553552
0.20493754888272
0.207987914845676
0.205668575891733
0.20614984973781
0.206815276551149
0.206025813403283
0.206460118908017
0.203072433989589
0.204030280750687
0.206265859663737
0.203576553951631
0.20142327937482
0.203771528107702
0.202445784545811
0.206231540883329
0.203919490311411
0.202812905513393
0.199374732666695
0.19824521794261
0.201495754881124
0.199994383815352
0.199594270096424
0.202782861532155
0.199512904869934
0.195282753503735
0.200209551416335
0.192348236532186
0.198143055285739
0.195475399989529
0.19484574180625
0.196449130413563
0.192525208395765
0.19579954885276
0.192774993490765
0.191820013735362
0.197416863633994
0.193788492597893
0.191876704642481
0.18950424720861
0.190568661284016
0.191545687085497
0.189218574719472
0.187062835992857
0.18788461738878
0.188392269830517
0.187626339006288
0.186728515621736
0.188403518929307
0.185983254372467
0.186982178631208
0.183975957740874
0.179349790202335
0.180673071010576
0.179644212558257
0.178010473686484
0.178907049946038
0.181599583390236
0.180949098944264
0.181296737995442
0.174865016690679
0.178012562996825
0.181528234556672
0.178675774330905
0.176102097257892
0.176853109327893
0.174733193725414
0.173146546044928
0.173129922242669
0.173117566126531
0.167728985757541
0.168785882345232
0.168934383464355
0.173849379332174
0.172450950905875
0.170441381304247
0.169328366297253
0.168723503599759
0.170040708138519
0.169366156504439
0.169197526138833
0.172865942156944
0.164261546714627
0.168102944158275
0.166067151604534
0.168197435166053
0.167181427790135
0.162344476329914
0.163902223831374
0.16486450455886
0.164058702923457
0.165537702737245
0.162731617749032
0.163233250907461
0.158741396674952
0.162411244250411
0.156849454255016
0.159209258722718
0.159383197061496
0.15612771174871
0.159854451978471
0.155884780263438
0.154777571860269
0.15456981740006
0.156393659058904
0.157732072880499
0.155225579352943
0.156695866736946
0.15501170142788
0.153832895592471
0.15302777426363
0.156228519045776
0.151610202583876
0.152367053520623
0.150241098146773
0.152447889403899
0.146849976092083
0.149652235113981
0.149761791057819
0.151972529152326
0.147214783232427
0.147645980105321
0.145216791402166
0.148459486036784
0.142641427066045
0.146224997957752
0.144459510825063
0.142803801029479
0.145466066143557
0.145141992966799
0.144167442542998
0.144026393119541
0.142098268466177
0.146636017080437
0.14111946294742
0.145457673592725
0.142043829251384
0.142025397957409
0.14257127365736
0.148992484188775
0.141596979668428
0.144718980952591
0.143385030655891
0.144314536849367
0.141622992689978
0.14656609302703
0.141667543478858
0.150678938275249
0.148396705177888
0.150388992277168
0.1487413787677
0.146847349875934
0.148138811370602
0.146824838665759
0.144291211110725
0.150320197767406
0.148596447037153
0.148811156790355
0.142907969389874
0.143707386584543
0.14056592159033
0.144320202181338
0.141705738414755
0.143022808443538
0.137035051924641
0.141813370895853
0.138170776279575
0.141309370603002
0.135687458505067
0.144162712563054
0.140610654031137
0.142429080119739
0.132876627437427
0.136772661002569
0.136800558900417
0.150170635201939
0.137199847681885
0.142901841883831
0.135697809663173
0.145354791416576
0.121440328485004
0.150459038713963
0.126287682799509
0.147838202946316
0.121798817271036
0.148248466532123
0.116030100155049
0.142791877141741
0.11890762615416
0.155158543075876
0.120549438589174
0.151157892839881
0.118901969637722
0.158541394985234
0.120331643519218
0.153841632104088
0.109280406438127
0.159143506832549
0.112862931285346
0.163267546755005
0.111378710621335
0.165989527764784
0.107837659190114
0.164251486151324
0.105879789300119
0.162069910975832
0.114042934025561
0.15414928350936
0.11946293104226
0.153777688152724
0.129784146974242
0.128387481254796
0.13768342149571
0.127743877218988
0.150190368319239
0.112390627065085
0.156789024298111
0.108750002428121
0.16547215966694
0.108818895739643
0.154599400313321
0.11105698772112
0.150794086949474
0.118237983200083
0.136660816168914
0.124538934102545
0.127020070138777
0.127949252557978
0.124198099439943
0.127651298684433
0.129404312589254
0.122835230869765
0.127613816966247
0.121112898179035
0.133852068288319
0.118583360444462
0.131016077235408
0.120840146071742
0.127307923580902
0.121926921565399
0.125096092618629
0.119503044660121
0.123357869207545
0.119653728437971
0.122726105532873
0.120086783113543
0.125899744911632
0.118915325326099
0.124136000366707
0.119435278457255
0.122423073490181
0.118899724129053
0.124085911167611
0.119575042688804
0.124285154254414
0.120978352299807
0.125104367590558
0.118001043268871
0.123828216254579
0.120322686600931
0.126597593535576
0.121338530106178
0.121751338543578
0.121346656827772
0.126802426012087
0.120019206507354
0.123571315787805
0.118015797094869
0.120498308846864
0.11787482680147
0.124356862025492
0.121029750626281
0.12668099221293
0.120865445434619
0.125824986328299
0.116352726077327
0.123430995614848
0.120930633034238
0.123279674477004
0.116804317301245
0.125033601231699
0.117223269553027
0.12438714429129
0.116014244408597
0.122083085455678
0.116379177908101
0.122367278089891
0.117863394428769
0.121169841018203
0.117237616487401
0.121807923041419
0.118543559127727
0.124100469043493
0.121953962633918
0.121242250522378
0.116504818545005
0.123170031146278
0.118898916896122
0.121996496539209
0.120719096924387
0.124272908100703
0.117439539985223
0.121589916183181
0.118383331245088
0.120907737368723
0.121090308588785
0.120351928152434
0.118094337080833
0.125918898254877
0.122674092007396
0.122869289105482
0.119029663245883
0.125416088467359
0.120218253116952
0.123491023849902
0.118747780019274
0.123129780773013
0.120145576230359
0.124066682136808
0.121607172488108
0.122496168886436
0.123133658645499
0.121067112628888
0.12175569233702
0.124861917532606
0.121259367131007
0.123311194146488
0.123190995850059
0.125372961516793
0.122140220810359
0.12371660619841
0.121841073240042
0.12624985928125
0.123430299414954
0.126940484625693
0.120808772222405
0.123122065004277
0.12434800083288
0.123960559509115
0.122231680655991
0.124733790259341
0.124917436610841
0.124694132952773
0.122989436425253
0.122039201143052
0.123006249614612
0.125837359462153
0.123566753103325
0.122827223253436
0.126157134753539
0.127814501270689
0.122903771660538
0.124230720990722
0.125451084813762
0.123400431081644
0.127733691922927
0.125198327880392
0.126908194138089
0.128095124223294
0.122227926139054
0.127409382439131
0.12327227477984
0.126225486800669
0.122927624855949
0.125862217395138
0.128098506123621
0.124062507527618
0.124465638523472
0.125606802852982
0.124131799504464
0.126870067405993
0.12811272392065
0.127301779938887
0.127759506267307
0.128284434778907
0.124256868987419
0.127413320911724
0.126340345575855
0.128195252537208
0.127803340889597
0.131856418540313
0.129566797449591
0.12847905335121
0.1276278221092
0.128743148984285
0.127783685647104
0.128900132722703
0.127997273211392
0.129466154897181
0.128139576659102
0.128972160170807
0.129555789433306
0.129319427671182
0.127514864831564
0.128858102010716
0.12751429362546
0.128752397247759
0.129220500911686
0.130301618549319
0.127090879306238
0.130106397907264
0.123508872572705
0.126334288527842
0.126711102161934
0.124645429512998
0.125130241655406
0.126790473316431
0.130076824737471
0.127051360026298
0.12734724419621
0.127882399203856
0.12713513831496
0.124834688335498
0.126932732699627
0.124399509445795
0.122562710442826
0.127407641161739
0.122174361735466
0.122683453113206
0.123384221771319
0.121248520812788
0.124079021699411
0.1254847871447
0.124977162456945
0.122174931972235
0.122157049829289
0.126152935744445
0.12048823155387
0.122847199121332
0.122992325547001
0.124358595972096
0.122677498502246
0.122996497634484
0.123157485927682
0.121875946304762
0.122391587911447
0.121050394634817
0.120779250852536
0.125482296274631
0.123040813658148
0.119627857655561
0.11933450289179
0.120862546874458
0.12181754604831
0.12083319450026
0.120540520616563
0.121327992973032
0.123298282811214
0.122313738440282
0.119954355927063
0.11876866473889
0.121763969837284
0.120784337578994
0.119764143617287
0.117589448588994
0.121224214351901
0.117812285071596
0.121243265245551
0.121451738300636
0.119467613824751
0.11916362954082
0.118155165729866
0.120262040940141
0.116911111520141
0.116368330271047
0.11584804404253
0.118808050985229
0.11882140110919
0.118754550351114
0.117581634794564
0.115563047934702
0.120005102479883
0.11574912055916
0.118287366117497
0.119658985277778
0.117855737242213
0.119413817821724
0.115191345885553
0.116234125475676
0.115855630871531
0.120358951052078
0.115869352863842
0.115460291716685
0.114249527368047
0.117358897260665
0.121613574167693
0.117252843554247
0.117845866140272
0.116460120035829
0.116234187735201
0.116588932999559
0.113077620556071
0.115693226892329
0.115267108350363
0.117487347957005
0.115754889002936
0.114486959974121
0.11590274364354
0.116739252254426
0.116966978919786
0.114280221383851
0.116351903581994
0.115234455817431
0.113835051807054
0.114095584612246
0.116017310035212
0.113216919856301
0.111497462567377
0.10887290544681
0.111883710728484
0.117768355085396
0.115210830657392
0.111629400081525
0.113697619368761
0.113933960033485
0.109774081394622
0.111336636839096
0.109825650579443
0.110858183944583
0.106849959877876
0.111219800184688
0.109520882652053
0.109164117967521
0.111704846461451
0.109334041838893
0.10832202757253
0.108432073501493
0.107631146979064
0.105923426867265
0.106841846536054
0.110221021809738
0.106243730039372
0.105647057948638
0.103052838164973
0.107540217389272
0.105068460980813
0.112767796823585
0.107505450469195
0.104166934309238
0.10439642978965
0.100599378923371
0.105473180435421
0.100211179260385
0.104035977200072
0.10345857203489
0.103195406325133
0.103502063175635
0.101005784030839
0.0990693697883149
0.100391686468358
0.0999174248594733
0.101041107092336
0.0996110443566314
0.0997236584070322
0.0983662191363933
0.101179881544705
0.100561668868679
0.0991954684486325
0.0982264403133123
0.0994786226501015
0.0974849834722884
0.0970096869484382
0.100041928102861
0.113704635697261
0.0997853039224918
0.0960220894368287
0.0999693564567134
0.102673387504013
0.0951843286829955
0.100290022984021
0.0975839140225625
0.096010189089219
0.0968572497824225
0.0976214388890277
0.0934488021473615
0.0933186390829812
0.096680361704496
0.0981067312544952
0.0962813888803417
0.0971900738970449
0.0956395339333815
0.0947190495121554
0.0947226871635891
0.093699313513594
0.0945346236592689
0.0948078121094882
0.0961738314709425
0.0976316347939237
0.0956979372070773
0.104810025045656
0.0993257444434905
0.092853820454711
0.0935143658870597
0.0930765566574757
0.0925442523438977
0.092579123390239
0.0931485955623351
0.0909007281071517
0.0926694380755506
0.0921713241179137
0.0916645803389172
0.0929760702875503
0.0914009606318075
0.0927928867792885
0.0901825408478347
0.0909274376114386
0.0883680035341204
0.090504054752988
0.0909984530256455
0.0911127214840459
0.0904306809609107
0.0885479396430993
0.092122231577295
0.0901108816909816
0.0919741196073881
0.0923743102406162
0.11130831875872
0.0910360086306532
0.0901739905582018
0.0880827205553075
0.0891384899654983
0.0892916792218123
0.0877342630670632
0.0880845596353692
0.0889145447935652
0.0882045489120908
0.0899602110809053
0.0882134679285096
0.0895830683193927
0.0886781167514192
0.0874146740387033
0.0881548037942451
0.0894856983726154
0.090455732411112
0.0897004861931065
0.086810097230943
0.0940051913607057
0.101055985759804
0.0960747644889074
0.0861672317822981
0.0938610431403391
0.0879444598295313
0.10252788846786
0.101471162361928
0.0809319172057714
0.0928488174279494
0.0827051820724302
0.0912084248091627
0.0839938370663171
0.0927678779336728
0.0877041222461897
0.0978364332653002
0.0859689365619385
0.0930266287024047
0.0867866110373936
0.0879379300279837
0.0846362488332581
0.0920848203115079
0.0867653345868798
0.0874906069221675
0.0882902701441792
0.085315032401393
0.0843027808402047
0.0856494211635921
0.0850900458659735
0.0881962135840466
0.0851785514204448
0.0970747335739957
0.0851477734064002
0.0912410861026076
0.0842457243374692
0.0879431486075237
0.0888877365480252
0.107115804601876
0.084549079870049
0.0871111352607277
0.086161282884236
0.087149397269348
0.0866767422745868
0.0899031033899282
0.0894711504565975
0.0876891802691094
0.0842790648390691
0.0869808029159927
0.0866152419250555
0.0859381332326629
0.0874803215224831
0.0863138192492065
0.0846793508287891
0.0835987327543176
0.0877246017815053
0.086279491241864
0.0877875016074576
0.0883759658260236
0.0940292282620137
0.1165103054294
0.0958635879249398
0.100886835819181
0.0891700115028155
0.0916823757260401
0.0828826782214751
0.0919923450120286
0.0820604083845983
0.0904378332151283
0.0846202619703322
0.0902591356689459
0.0869839606996409
0.0892640486366491
0.0851900189925223
0.0909952329445343
0.0815564484828082
0.0874115906994902
0.082871111758524
0.0877348093809384
0.0828987440400077
0.0846870904762871
0.0840636764889172
0.0954549290260606
0.094213864557609
0.08936768318897
0.0906613769650272
0.104469531332997
0.1259788531655
0.0846617445723645
0.0969259166511236
0.0848171703711038
0.0875926520981253
0.0857868227429681
0.090309469862062
0.0942742134534862
0.090871242352603
0.0870240368328029
0.089943353317792
0.088863905410279
0.0891010978101724
0.0884734007038039
0.100035770352048
0.121150721997604
0.102672988971054
0.0892334811308142
0.09453445837849
0.0953654761739843
0.120249809216944
0.0936862783868134
0.0899404167620967
0.0955255091588558
0.0888529115191114
0.0934882474742264
0.0873366259358909
0.0912606845374618
0.0919122191270641
0.0934233891001316
0.0853066207455929
0.0917964243754961
0.0842444836792924
0.0933352469826913
0.0967961099866129
0.106100050269438
0.106932619942531
0.0924725378654505
0.0950135305104188
0.0994051624941039
0.0874217862603376
0.0984050034737995
0.0932014798832137
0.0993171982057633
0.1058751640698
0.114216224118861
0.0991396582431073
0.111317634786599
0.105264192600115
0.092065648157969
0.0969963735840329
0.108467750371924
0.0973574742350957
0.102093259792872
0.0957064941159106
0.138595227997809
0.11250383777363
0.120145384841439
0.0966072865418334
0.10020179480988
0.0964219216578106
0.0988220015019496
0.102591892489938
0.114887611880019
0.108603506071388
0.0918495417380888
0.105549966435604
0.103626865230607
0.118047508090694
0.0995176188109426
0.109371114149699
0.100736825766267
0.110868208707639
0.111094282310041
0.114525776106401
0.102179600707974
0.135430295943122
0.143999575516471
0.121809617785234
0.115704782676108
0.100818667099537
0.136115736203534
0.119089371962587
0.103552877551024
0.109372043870529
0.10095975812246
0.111617431678264
0.112286846329402
0.140935269013049
0.122076050780344
0.102307196245816
0.115461258347972
0.110338603605726
0.131433753754806
0.128535853035497
0.108979989535667
0.117483274098771
0.11664912878849
0.124635577411655
0.14419865833208
0.150957982375705
0.118040665217626
0.157877232526107
0.13526470762098
0.140844581484
0.129200550241745
0.133149330164961
0.136930095315364
0.152124330485011
0.129740402517814
0.129112887261919
0.14262589123686
0.160649833204066
0.13513853891772
0.136700198159003
0.136490876738872
0.134693940857408
0.180661090865386
0.20042332285351
0.169453496719408
0.150450791681089
0.148436702884196
0.169511361873003
0.157495428812515
0.144243086178714
0.146927176131193
0.146050880480652
0.149779966249205
0.153013063010626
0.161601904118664
0.16342501387636
0.157934433219932
0.160784117640724
0.161685566243243
0.197586684512329
0.213215741536504
0.211512069541873
0.186986253321406
0.199786614569763
0.206822587201209
0.177235400629389
0.178729957288693
0.173012779128385
0.191360723399008
0.186452158257299
0.179684242769111
0.184875055833536
0.20582892537426
0.213882579341445
0.201969252510057
0.218801425012482
0.201533254966466
0.20675021271737
0.223536174735778
0.328283223625412
0.264833201121558
0.220492985925867
0.252994721297949
0.216529751651939
0.309083315056178
0.252037913863662
0.243384727027443
0.24326289355872
0.25077203121906
0.261771545984123
0.279413845436029
0.28150428957363
0.298553999039662
0.289414122568202
0.298561441641561
0.301774127973646
0.403431073294275
0.374053788541075
0.352295558011201
0.334226478700857
0.364274093915218
0.359663856917592
0.361893143152648
0.350475174490571
0.37632740003786
0.372930924504848
0.447346099270089
0.401871774006678
0.402941046192677
0.414975997225237
0.448407096376122
0.435282571515342
0.455129235545612
0.489949072058327
0.450310497235777
0.466233073602796
0.45835153747351
0.473947206865333
0.476890531602505
0.507231364129221
0.528052280319839
0.49794106792386
0.511667318348918
0.509641609058438
0.528075505741196
0.531617907350557
0.545176418197676
0.546184628723783
0.585373600883877
0.619908240520384
0.712003974006641
0.602996219608382
0.546278108783511
0.559411559337342
0.552057623818617
0.59513517500727
0.619306093512118
0.597097854587839
0.6059882585597
0.563685705463466
0.574737689488813
0.568812711848263
0.576125601313091
0.575260820619693
0.574177494992323
0.585603783715032
0.598374564904036
0.604661342006193
0.627879098137645
0.655431776729516
0.598026709468281
0.574607846283618
0.584045429951258
0.582778787736298
0.574798971306959
0.570631569256177
0.581616967465322
0.589025768445341
0.571311052236169
0.565429543724804
0.570059328917436
0.565810404618371
0.596004300891014
0.565000179129122
0.553000883933412
0.536289515995036
0.552017191403631
0.540792020943417
0.558791534662965
0.589221704445643
0.541288574142322
0.515180326392545
0.524982429834258
0.510809707651872
0.520333772424562
0.512475687105789
0.526293076709194
0.512186678918411
0.519889104781315
0.513571582365982
0.508295886884076
0.503975917527026
0.517260189227004
0.507701096502244
0.507714826420799
0.502672055324121
0.509892334435807
0.501208218398359
0.50451097941969
0.488594429341835
0.497069183531609
0.495951327717786
0.509096951814994
0.495246431171202
0.49178364495915
0.497401834105234
0.491621095799351
0.485334467149382
0.503825680943323
0.488193216123809
0.493329706094075
0.488515998614622
0.485579808573708
0.480769024743936
0.496817050205626
0.48472051620874
0.486376325287058
0.478669402144338
0.479908910361515
0.476642098372526
0.489681883937041
0.487791255966883
0.538717435232004
0.50439847717122
0.468532359572385
0.469023215185607
0.46311514868827
0.453777528792015
0.459157168054539
0.504711778087079
0.477966420753927
0.450518405766521
0.443743103179917
0.433222454025289
0.464243557433221
0.445631887976734
0.434376161103434
0.425045053386096
0.419714903953894
0.446581482792377
0.520876464070495
0.485681542491703
0.52895918872675
0.432317586691148
0.412411344509128
0.429433028037231
0.453030971131037
0.409986491212775
0.4005854649937
0.395424687897671
0.439832149990245
0.423470648603385
0.402855903681182
0.391708706463763
0.394835580102799
0.416652209405741
0.427510275642275
0.413932621116404
0.425631111027789
0.435324740819778
0.417202872788233
0.440629701564294
0.475850971518881
0.400802256399173
0.374789685997735
0.363055784354778
0.364151244399711
0.373475041065548
0.413920331793826
0.376152321010922
0.371332594045618
0.355515042621259
0.343054999513575
0.348047593228499
0.364913525208739
0.352568342245954
0.366492149303771
0.373713472386706
0.341605873267915
0.345843021537082
0.374553771751083
0.379099717549727
0.401110614571814
0.339397420099757
0.330589474002761
0.371595582900874
0.383381018807118
0.339322342303014
0.338475596216731
0.311097686196519
0.33138781883851
0.332194538183535
0.317471828545797
0.330371892891565
0.343539360060832
0.339940839049266
0.395045731362615
0.404948495300828
0.377325774610966
0.323759542781987
0.304168581237014
0.30385420422761
0.312341427172513
0.302317224384186
0.302164514467153
0.330696582354504
0.317878709121274
0.302086511360638
0.357215309242716
0.322602667137591
0.313745406269195
0.312020373300313
0.309907809829752
0.310629089377137
0.357105084569509
0.371749963692389
0.35592471440662
0.353882509193856
0.368118975378058
0.341929234680987
0.342205991103534
0.347173696794587
0.355711819249712
0.362756706098923
0.378031589929226
0.363693319548433
0.380006044401697
0.377506337326384
0.38502200162443
0.421067061947023
0.436758102775483
0.407010641125733
0.449176743928934
0.458023618550024
0.500072636519238
0.455929006364047
0.453711348967264
0.451684851471893
0.464092656874573
0.469284621738462
0.47769891370779
0.483485271744872
0.532108420016314
0.490469887069331
0.503430017394082
0.500849094708965
0.505000697682896
0.512928588921872
0.556198683809094
0.546171787274643
0.591756826171421
0.581448618192513
0.569728862697401
0.548794234884942
0.542336127242981
0.549657223397958
0.549351422183287
0.548335686910428
0.546397497657433
0.551375356023287
0.589408118694779
0.560531365417433
0.562245513787865
0.563935416456388
0.569420649382613
0.56446420590494
0.580320660266549
0.572251001036501
0.584280880518824
0.594984675451928
0.590015013571362
0.592487062727854
0.678748695530824
0.624321221630877
0.611037313815106
0.610485252235938
0.625032771378453
0.619557177048291
0.637154763092651
0.659549506771291
0.644871275419515
0.636312985817733
0.647157643427374
0.642709473932854
0.653118345708138
0.66633049164153
0.703304853387715
0.660299732858129
0.669277117548255
0.654523785905716
0.709106979726065
0.726063882319608
0.705213591032639
0.700868643252907
0.697999861947042
0.68834643335747
0.69427057467181
0.687582653743735
0.696234417686316
0.70244836210342
0.711005061074153
0.7086260431375
0.715632389575217
0.706584536723052
0.708182599716749
0.702986645230202
0.730599754319049
0.702015415513648
0.708833319640511
0.700972386150961
0.698785676741446
0.690694989783928
0.730758451488533
0.727968445184892
0.706567924212724
0.708303509785865
0.714177044761212
0.733241385315249
0.723732505158242
0.696981121795207
0.700988497316087
0.694860885106479
0.707008133374866
0.698187305509121
0.713316295232968
0.751202128592835
0.72998088487466
0.713772998129713
0.719539815610439
0.722620620879846
0.723603600612223
0.719447828793804
0.73561658121186
0.745263694507703
0.749411831439706
0.748633432690284
0.747559128275246
0.726052571233831
0.759215596754746
0.76573638124376
0.770601493926078
0.734020552049185
0.745183920773542
0.737153125097983
0.743310887364278
0.730095585648809
0.73537394226289
0.715799004884677
0.732353924637252
0.716083066395042
0.71779938884527
0.748077903180108
0.718506378169086
0.719804716727429
0.699222451139434
0.687715069201938
0.686088122879821
0.674901302191744
0.680793216204273
0.67231846930959
0.675832211968943
0.664542480535281
0.660008388202989
0.664062917072404
0.661997506576077
0.66014776339328
0.664037056375
0.648441919653931
0.650828429681219
0.655205556059406
0.653547251981772
0.641488475670773
0.645249817465684
0.6491206430995
0.64713031042571
0.664001719752015
0.666748642450125
0.661707593990891
0.659298875831011
0.656740303336237
0.648447801882906
0.64308285122776
0.646778157538083
0.633314979366864
0.648196632184542
0.640011326395682
0.643417511706973
0.63831612041625
0.649578740728923
0.641232305964906
0.642757156487899
0.640418418722732
0.645533185101327
0.642512244476218
0.636410654117389
0.637408818233351
0.642539748527787
0.630374526342149
0.649494893450522
0.644946892665558
0.643594031619189
0.636873552439721
0.64334520689832
0.639636962471021
0.645848228928302
0.641149908023017
0.643784073844432
0.637195718070345
0.635956659077651
0.63764233863454
0.647460201277084
0.63707690022877
0.631809206018719
0.634230922457948
0.643365093094294
0.635138033806775
0.621593418774603
0.621062453631068
0.624257728619683
0.608466867477904
0.612806903229234
0.601374586054524
0.60238336403414
0.599965262566106
0.594499164456372
0.590498609732467
0.584295149736911
0.580032892037166
0.581775903337826
0.569720437620613
0.572444647252561
0.568279339124952
0.568116785667663
0.560848729943841
0.558635162231037
0.560803093205549
0.555043978010513
0.556674261882016
0.561605002958623
0.550211705121626
0.55263354951088
0.547922075164014
0.560661784438521
0.557386660911743
0.559145612619058
0.552954996529261
0.560477278363116
0.563032483821292
0.56304116883407
0.560108630520076
0.569965751108777
0.572137406907252
0.572554085985697
0.575236107461723
0.579113108556697
0.573713684094177
0.586780887716463
0.584821525982675
0.589640708222006
0.587526579748235
0.586296706034887
0.594080045499685
0.59166664045549
0.587168951533998
0.587984199138708
0.587727772545266
0.59269796817136
0.588810666737581
0.586809662330795
0.589585217818576
0.594432110907746
0.580081982785477
0.582706622408301
0.578985737783587
0.579607821833007
0.579888319436969
0.583703000822677
0.580446746399724
0.57285431767671
0.572426607975121
0.569720265677111
0.569737618636424
0.568930734875253
0.5620222225621
0.562814814330793
0.560130376074074
0.559055629891419
0.562544060642648
0.559833302345285
0.550859759433377
0.551491294058448
0.546456529548184
0.555085483915351
0.545495870698863
0.548221302920849
0.546924202222289
0.552619570678329
0.540895703040974
0.54880197203806
0.539181088055404
0.541482283278248
0.538508244624055
0.538107820110952
0.531304621550293
0.528499225457215
0.523312159060507
0.52721660494561
0.518422573101373
0.524025260435812
0.520844750799063
0.515248901812065
0.509366335334039
0.502375999593361
0.502666483099489
0.499956694793256
0.493854313015083
0.493664076647698
0.487419673453346
0.486759678228695
0.481864633211205
0.48654305127696
0.480209660509197
0.479810775238877
0.475580334016173
0.476266178316477
0.476418934805501
0.47953540786889
0.472669194721057
0.471406961863983
0.466979915731473
0.464129650511481
0.457922151108686
0.457576111469282
0.45170435156849
0.446026711129087
0.437506417802171
0.433667629469189
0.431194028982695
0.424556745729643
0.42218711082503
0.419770613082908
0.412956248458045
0.416843813540453
0.416070019667369
0.421162740060691
0.427148138280612
0.436558453228838
0.443797690005834
0.456873473402985
0.469907179923272
0.481803799825231
0.495866241507103
0.513228024057849
0.531180524168946
0.552037125200826
0.568173797856524
0.588709108481785
0.598878850312454
0.624793616292486
0.637827652072903
0.659998469330663
0.67480599520664
0.699061550088697
0.714319898232376
0.725275487657862
0.744116906888529
0.765776122138801
0.784858710123933
0.79712846491788
0.8109458821223
0.818992407185885
0.824540392729403
0.845642759660444
0.857395580661984
0.865398224545469
0.874748258155849
0.884655768847994
0.889648936684606
0.889389600194659
0.90803922179719
0.898503107018721
0.905004253658837
0.906097781715436
0.911703188991879
0.916179957607235
0.913287385884311
0.91076915800814
0.907212129748303
0.924953931723027
0.913934318507791
0.917219975480315
0.923392609689778
0.93764858946855
0.938493906563254
0.936385423385673
0.954057498370874
0.939915636466513
0.955736873272918
0.952992033314899
0.956850833885326
0.970131635128235
0.993092292065636
0.999519617386236
0.995369310303674
1.00649218951101
1.02813303402245
1.01854415586027
1.03386472715789
1.06279648757053
1.0805692567857
1.07633400689372
1.10346843445788
1.10544828232872
1.1229413154203
1.11560411482094
1.14174094143991
1.14087297988721
1.14554482471385
1.16257732570058
1.14603555876064
1.16637026320697
1.14546296215232
1.13349804100751
1.15097648084942
1.12949492858477
1.1379597899898
1.12577994854281
1.11734416038241
1.13306105458475
1.14775890616998
1.15758687889057
1.17802706596668
1.17908109014264
1.20069605233946
1.21449814663855
1.21572784653468
1.23645069665376
1.24521984201151
1.27589599503072
1.29698749889606
1.28253332417129
1.33813804495664
1.32148108553531
1.39320630053889
1.35122103299431
1.42188286158195
1.44292151348464
1.42817541186286
1.4588874289031
1.46447841651954
1.50081662107334
1.51336137506802
1.5595537823898
1.58358741304763
1.57151037589636
1.62598415020855
1.63343099562967
1.67788711458807
1.71288932289083
1.70390093517898
1.73438806894158
1.89022666983274
1.82007323354439
1.78651672010374
1.89741848922468
1.9081703856794
1.86683688692954
1.82625563674098
1.95650049769582
1.92530628265936
1.85144718618199
2.07293922808736
1.92507701199817
1.9621949558848
1.77899299247026
1.84195802982022
1.84298166919656
1.94330001994417
1.95270137318904
1.89827663622322
1.97414590429453
1.98005185015256
1.77659767730838
1.99478635490524
1.92867048313165
1.97851955272406
1.86308764555901
1.94031110338435
1.99893342766636
2.11832705803055
2.07472808556285
2.10044566405856
1.97028890616597
2.1498951276544
1.98183975132657
2.0828777430031
2.1123670287696
2.2919722724919
2.04068902722316
2.47576480783794
2.29823188188675
2.42121531220602
2.27516169759762
2.15626323606102
2.40630359369418
2.64928208442079
2.37306795305279
2.77095022642346
2.67877166352969
2.59349864674123
2.22546311232448
2.21248799272543
2.23698491821684
2.44992765911527
2.31010581037574
2.23979024690603
2.21252334996696
2.21542520715818
2.3814448059654
2.3258798332128
2.1081741658926
2.57077843967954
2.09249837520735
2.15313969938324
2.33166855298503
2.25200408863325
2.02404882655421
2.17626939607087
2.35022006099749
2.12615077243957
2.22840370221892
2.07410952240535
2.08966236952857
2.13450208459784
2.02942491019307
2.21585146517107
1.87786951307253
1.8413682909288
1.64764268009528
1.93431999045557
1.79089841474073
1.84491432482738
1.7032048470832
1.84139876097546
1.65755375125266
1.73785445298923
1.59468553214878
1.74719977886062
1.66643866795877
1.7557453110695
1.65280809465454
1.59457112735737
1.66728788046173
1.67955487942487
1.58449307138936
1.66579789441564
1.5096646601856
1.44869413091484
1.46126590802442
1.43162600757012
1.41534253092429
1.37889423757639
1.36914610188816
1.30847251867175
1.23481602862202
1.20781831084478
1.13778765573384
1.12791254504052
1.057989537515
1.03734701197788
0.956836003724916
0.93987460991291
0.885765245539653
0.874104996044489
0.844471992684539
0.812638763475136
0.769022464895802
0.758706008731634
0.731892684097498
0.710696801749007
0.681922627361815
0.680296913323295
0.663316581401809
0.655167080116967
0.640242961764573
0.634207706561377
0.629227407216605
0.626512030844366
0.616437723642276
0.622075193310165
0.603152679357979
0.608014187098436
0.611985255945186
0.608161606551318
0.610042351435978
0.619422278881229
0.612820797208442
0.627404120416791
0.60833900731197
0.617097949227562
0.614047854971008
0.614883593234528
0.608326386893654
0.597964340040043
0.587669472597858
0.595086165631499
0.583749957505985
0.591541651084809
0.576162198138269
0.576952814209261
0.570349236203933
0.566227999180675
0.571775212714765
0.559419936197092
0.562235604474575
0.56716278338844
0.568691287405605
0.563145002709725
0.570751765153926
0.573899160605594
0.578534012630937
0.595706728868148
0.57421268682641
0.586497688020423
0.593387442220074
0.598556074862436
0.605970585991534
0.608912055725061
0.603053699187285
0.605054502762767
0.613211111133338
0.626474384837549
0.607153252966343
0.61441144707728
0.614765061691472
0.62022457766835
0.612840273912596
0.625775307074643
0.616143467417804
0.616653055090808
0.63205365257911
0.636901406781017
0.632089713661907
0.645074089376737
0.665170302301382
0.66618603614629
0.664398444318329
0.695643435618959
0.700583219386272
0.723981952402918
0.734769222340354
0.767565612835206
0.78154429984431
0.810553366443745
0.800287622830841
0.817252011876115
0.811675394933021
0.816902698780642
0.800178419396008
0.817293358114653
0.780185282849615
0.783685440284895
0.762662496359081
0.766552567986094
0.739713865189417
0.754836743857152
0.733961205269096
0.718211825791177
0.733413980150208
0.734388741818523
0.747311698015723
0.750309424387887
0.730996555427869
0.749707659560967
0.721083502018808
0.743333331854649
0.731300756137989
0.722952243572651
0.718824279236764
0.718181701644556
0.718072357499758
0.705519636745743
0.670181649149204
0.678348687748491
0.667503885832574
0.683145582037556
0.675536909426061
0.662305744006977
0.661098222310015
0.662116848475362
0.647704947134619
0.656143204331901
0.649039978699251
0.655336607310056
0.648043558681322
0.651676406016201
0.63222588482464
0.639000865997336
0.623291553842563
0.618033364219068
0.612570675548004
0.623472155109903
0.613728677830747
0.61419983079627
0.614070438420017
0.605163690269893
0.597117413345104
0.614548755057405
0.607288290003225
0.607383503849834
0.590040135378309
0.589223263209542
0.577680127063079
0.583084057375565
0.567510036041267
0.592830380432391
0.565143264093742
0.567301915635292
0.57049378756741
0.564615934622266
0.573461079175111
0.587593379175861
0.552148284482548
0.55633843261398
0.560094159753222
0.570544628384809
0.55251736535258
0.587218515838658
0.567092246636806
0.569108854036036
0.574788371432367
0.584375265993382
0.554333999288095
0.566764868669628
0.56861215516035
0.591462444268557
0.57827869533131
0.571276412420557
0.572936290858323
0.589813858809229
0.592313939313488
0.592433978024221
0.570964721665576
0.606042298452769
0.613120346965179
0.598078865175279
0.589261951303436
0.620136010162627
0.620110202928834
0.632889583532299
0.626277851474037
0.63918981107804
0.632044243256466
0.647831041987888
0.66012973952681
0.687057914372413
0.718495337673765
0.756541707151408
0.731014267443745
0.760578206855168
0.753170876996637
0.77716146017067
0.787115887619442
0.832594219093495
0.839346497503222
0.83585366807221
0.854627917957942
0.880621353455632
0.895143478430174
0.9603876991608
0.947244206880992
0.972138729554497
0.902974077186975
0.93628786591557
0.979702796376929
0.991948483196392
0.953243367665384
0.908220261258877
0.927151749909637
0.976711495288776
0.906893589419505
0.91019310744009
0.953351080300262
1.04472026545601
0.945932950207939
1.00029664539086
0.961579938806324
0.97653708359117
0.945769994064644
0.983590776778799
0.892170465405971
0.889506748888826
0.936578059005031
0.980170540933682
0.899060208194528
0.912252330640616
0.878880727198766
0.888488024830348
0.842683412578058
0.863634387029227
0.895198074109489
0.845791668734914
0.843245534412804
0.854677277534131
0.794361230737481
0.85847491486028
0.836120511691718
0.810907832003583
0.807376886798819
0.975951915271502
0.904231038213567
0.862580428336076
0.892597728301335
0.898536604026971
0.816883505203011
0.892773282306374
0.865860487642315
0.878358247578596
0.852876453488725
0.904259228066741
0.822431892900878
0.880300705336675
0.903827265773131
0.929140412557901
0.885180397344891
0.938090869650187
0.982381346457224
0.88212200453931
0.92964538952746
0.897366086443441
0.858503176613828
0.958126958612222
0.886329508592507
0.874515897334664
0.871120082362214
0.963145824711634
0.987490209630693
0.895918764006728
0.893558153476526
0.977913100174871
0.909345457507319
1.07424043878605
0.998001880948345
1.01015061439835
0.934805214908155
1.11382231158164
1.03282147216721
1.02740897632132
0.999061966281352
1.03782991755371
1.15845397812025
1.21685325014422
1.02663218618818
0.925961084422727
0.968146850514991
1.18292647524951
1.02311287474071
1.27064099337664
1.15507018620394
1.18758898407338
1.32186592099478
1.20775492922098
1.21555742965458
1.28036959417136
1.08876499242365
1.24282017787915
1.25364354373063
2.14174980019908
1.26572111310872
1.06600608450037
1.21570758063825
1.07219174269379
0.990553556019154
1.09526467676698
0.911493496456652
0.975464323499856
0.963232016383337
1.31375213093518
1.43066822820759
1.35884208944365
1.17961844461913
0.955868255637991
1.71825373877334
5
1.03145540621285
1.1767660828544
0.841587685833598
0.84938834686556
1.03562812308348
1.64713372651456
1.98585903789774
1.03582862885174
0.755035009128911
0.943155321299917
1.34779461858475
1.02790700926785
1.34949466191321
5
1.36359453950126
0.913776490311966
1.02962909772321
1.97996798515935
1.2494401912556
1.51378036669604
1.29715723315428
1.60443837310344
1.30318630149935
1.15408156919941
0.892441731185074
0.591273117889949
0.858184225383547
0.847630925610216
0.555788799833978
1.50193325503943
5
5
2.87173000113597
