3596
4000.36533379555
650.420452594757
1
2
2
0.0132869947045605
0.0107871285693002
0.0193099721608442
0.00696866574335882
0.0190145377483111
0.00785992545412047
0.0133592157002887
0.0120422872042937
0.00737186996388844
0.00328203622804752
0.0116993805255109
0.00615623917028307
0.018120611227383
0.00167419191580036
0.0150603454356294
0.00874588904178037
0.0164786886215566
0.00751010482193227
0.00839803958981195
0.0112296819687898
0.0137453655645873
0.00857458515745714
0.0170278687627016
0.0120819266529019
0.0120551425802384
0.012922674311303
0.0175671853099971
0.00818654083822844
0.0184415303360724
0.0116449515093701
0.0101463942520182
0.00362588745166291
0.0160154483391321
0.00758497805597668
0.0170238121566647
0.00740794010208906
0.013138145792899
0.00438638340959919
0.0111997311926423
0.0100830497366876
0.00907796860148516
0.00425818133338059
0.0181972585266902
0.00648943254688325
0.0104997172372265
0.00568675438600842
0.0179985295258661
0.00741518928575318
0.00857116389218448
0.00860594808460818
0.0151717923883753
0.0139730546626085
0.0131896731011361
0.00868792769588082
0.0134189595373558
0.0123594690256935
0.0212999328542297
0.00457176705684528
0.0131261277262641
0.00165723925690081
0.0150704709852543
0.0215365131463295
0.0136123359643673
0.00556915814161425
0.0148999159099008
0.0120242558011779
0.015360880011679
0.00616447101037706
0.0232900105905731
0.00629444511073668
0.0160702814536011
-0.00513232885441524
0.0240731584798484
0.00817398381710824
0.0176809212750204
0.00554448591987492
0.0108682725521359
0.0108393232430107
0.00980376326341323
-0.000893780475601472
0.0287667880735474
0.00376872927276731
0.0165216573238422
0.00788307816990536
0.0190962127579525
0.00819762392247502
0.015654078663596
-0.00404512445465867
0.0233455200961439
0.00595447021866425
0.0143980059957254
-0.00123196257354658
0.0191128751735502
-0.000839245642383053
0.0190574162801434
0.000498688586876905
0.0148487478993388
0.00105555665307492
0.0140435564756506
-0.00658834812095191
0.0192392773312631
0.00260780357407369
0.0315944588291719
0.00706741162437425
0.0170110937647452
0.0296921180092221
-0.000662222748714886
0.0253269026929933
0.0282140692804169
0.00591221002767788
0.0150248470096062
0.00806407086761381
0.0213330628930746
0.00436956354656171
0.0187871670082041
-0.00401062583339969
0.0297969519282258
0.00960770834172935
0.0234560601359636
-0.000951275678263127
0.0169597011608233
-0.0129854705206571
0.041543324480717
0.00510431680409505
0.0262816774103991
0.00861677195318528
0.00938159556172264
-0.0105351163533392
0.0362647794237407
0.00922149241177929
0.0132570462352818
-0.00201355775483573
0.0183778318651611
-0.00128567761410161
0.0223632799364691
0.0149337768927421
0.0131409824986674
-0.00129888012462497
0.00657823097770841
0.0301522952143476
0.0285306310316548
0.00880578393641492
0.00369375349381619
-0.00114800068792545
0.0350181854626128
0.00942032105793904
0.00939202885291097
-0.000361166155466035
0.028977397420506
0.00176981662723141
0.0167079191382244
-0.00112466860724105
0.0135478024487089
0.00265641572888347
0.00293611683229382
-0.0391514210704177
0.0654818873183681
-0.00961124526770098
0.0449580449796658
0.0188775774386559
0.0117638710102107
0.0143996436791904
0.0102117270534229
0.0103564122544779
0.0147702870497796
0.0149621648550996
0.0119138945223838
0.0186478366142793
0.0105729573273259
0.00358933107560187
0.0195702637260491
0.00392986054445106
0.000534750242842825
0.014163747653077
0.0342755333046216
-0.0131324605162121
0.0294146843940204
0.0166947715378781
0.018269525218739
-0.000644386792057404
0.0268179454401794
0.0106733453039061
0.0168418099321663
-0.0025908634616165
0.013425782731198
0.0172648891517024
0.0237439145805177
0.00289716976658046
0.0176103602212948
-0.00792790683620495
0.00575003463687041
0.0111621668712494
0.0357658210753077
0.00481482853066771
0.0156659729287169
-0.00295231321922834
0.0130046313524696
0.0341761176642767
0.0149806919831666
0.00716313163533192
0.0137756319347311
0.00436721661255606
0.0149838320902484
0.00465054273352771
0.0138815393944135
-0.00759967821285694
0.0279867964626048
0.0247937123503122
0.00938476249340107
0.00621571220472964
0.00221706670610218
0.00527127059173782
0.0176993096746739
0.0324962082671652
0.0120001625380797
0.0136606727228527
0.00484724932440558
0.0153173372827876
0.0280304820128547
0.0102330081383495
0.0099066544255972
0.00659092375320516
0.00831453586467431
0.00254740646110312
0.013881952802277
0.0116968609923212
0.0142425625868843
0.00538604705737111
0.0113998430800778
0.00686252433768497
0.0128824549490723
0.0110769701743389
0.0163053604520244
0.00515854883412761
0.0108741629642414
0.00336136468655109
0.0271495535783315
0.00228027820653693
0.0122396475489508
0.00418387861631451
0.00901020750201007
0.00134153433133523
0.0192985501758061
0.0135819548465135
0.0112079694147833
0.00125243764042316
0.0215277351793911
0.01898256739139
0.00698593761523012
0.0120348685053621
0.00606835230430495
0.0227908203079573
0.00428229260180952
0.0158730178971637
0.00726292640239024
0.00816341076707696
-0.00209902542034263
0.0182032309431254
0.013735411585168
0.0093076712668358
0.00745640777486946
0.0201775211097548
0.0060514054807741
0.00187077428186009
-0.0072944842441265
0.0233640747464723
0.0236036780304266
-0.0158388979074093
0.0349716987560571
0.0248410639376358
0.00851190079406951
0.011113877569981
-0.0377469437698977
0.0194485755883901
0.0481607383365609
0.0134310148847509
0.0112995868838528
0.00670091010754135
0.021154491747293
0.00541874140992664
0.0198721740155382
-0.00763241254901082
0.0409094374588536
0.010035654314686
0.029104759487215
0.0115656450406677
0.00682971195854667
0.027628590431502
0.00472192270392507
0.0127036223323489
0.006121267329681
0.010296621848013
0.0078168415067257
0.0208199292219904
0.00873608678246893
0.0181056282348604
0.0136544519659037
0.0151249992748523
0.0225092613150285
0.0187270452795094
0.0115368030556863
0.0162544404104515
0.0153887470013409
0.0095617786037067
0.0117466413197151
0.0040072423374958
0.0122525297106314
-0.00971549854970848
0.0238196539418927
0.0238284951288535
0.00576092049963911
0.0219821901478252
0.0129870901248713
0.00806908706851809
0.0127266520529874
0.0113784697472339
0.0123972970223645
0.0085213989779956
0.00112053050377339
0.0118026106003523
0.0225680181516316
-0.000484901616593851
0.0128321575320334
0.00254058668838871
0.0171541510529162
0.0106410882487353
0.012204851004698
0.00392122607619765
0.0138755818371904
0.00642311682108208
0.00861041953221448
0.0188962835073239
0.00352950130018249
-0.00247829633866551
0.042338279249007
0.00230777837422518
0.0235215167316272
0.00174278172986223
0.0222531139933442
0.0105175729742748
0.00732596526025287
0.00557738995829288
0.012383600539563
0.0157653716322568
0.0248715470159016
0.00136543400914924
0.0177547425972163
0.0202091262967338
0.0372311555767865
0.0162487470004965
0.0211668465188153
0.000871424595987807
-0.00367059625106082
0.0401900806654805
0.0029331437057001
0.0335366662482569
0.0136912052137409
0.0141074304620825
0.0153771585567283
0.0115136440787161
0.0150039666922303
0.00865586045839839
0.0194549999811336
0.00338302020329411
0.021126287938347
0.00742810194284373
0.0182482657713227
-0.000195258472623912
0.0350285851783831
0.0250365740535757
0.0154034538449097
0.011304529736884
0.00958474359946334
-0.00145135124460323
0.0417372193360319
0.00413781215137515
0.0521196557953958
-0.00938838415620089
0.042376327232355
0.0181108223037275
0.0275449228891637
0.00786163566260127
0.0168017014165709
0.0127410499179015
0.0225780185818819
0.0146790104231871
0.0249074200034379
0.0176459752961922
0.0293725753780999
0.0127416293262512
0.0248102041727842
0.00817316639570102
0.0335457698185495
0.026433849102987
0.0178170078466692
0.0206594531628462
0.0028868573696672
0.0349640682836406
0.0422988536785878
0.0316933607854557
0.023611018800538
0.0269201114320395
0.0155318634654951
0.0253412658687027
0.0212881882423475
0.0277912667376772
0.0208738587688979
0.0176620280494605
0.0418283251805979
0.0141234203099456
0.0379290847109439
0.00755578420479348
0.0315100686815144
0.0284515795944427
0.021069272883641
0.0341450006278818
0.0389825245615354
0.0230661652313049
0.034455977373134
0.0491411849845034
0.0242053340513387
0.0431374573502512
0.0315117410511795
0.0288323434461162
0.0334701966022482
0.0288627478327755
0.0392254693588887
0.0331579777627703
0.0437130407916132
0.0293856629734095
0.0394340387245951
0.0363747618946832
0.0448596487070801
0.0338512494279213
0.0440737103040509
0.0296012465258979
0.0536075646777925
0.0297026386038034
0.0463780068284826
0.0414589540017707
0.034423559867709
0.0500664735894776
0.0316813505660212
0.05111966073413
0.044033376090078
0.0409912717991354
0.0526489228123305
0.0480410384053781
0.045157374597394
0.0362308136685168
0.0453650097299567
0.0414711302074786
0.0435137218473795
0.0463037081978476
0.0604591854821215
0.0401465923754101
0.0575162923746272
0.0456685963703919
0.0583736106642924
0.0442702848150709
0.0507049450008081
0.0490773007435479
0.0545059180139151
0.0642183263736837
0.0470728708642894
0.0641061120066099
0.0582483237358031
0.0492101924355587
0.0641762593903844
0.0534950122080737
0.0626449944595453
0.0532431437520476
0.0572750596547653
0.053345591880813
0.0680421990965782
0.0616941931285525
0.069590987513937
0.056389919141046
0.0702910069781719
0.0627434884343504
0.072699403065849
0.0618640348957472
0.073646123169625
0.0621328702012751
0.0665607639344763
0.0661504961703076
0.0771864474566025
0.0733294180524241
0.0799874431878188
0.0703531723970329
0.0850301029167465
0.0689342241231862
0.0782108360253846
0.0647005350093927
0.0683319139058823
0.0759863266971669
0.086601651155223
0.0801140489072524
0.0832698156194747
0.0739303302427083
0.0930095190107696
0.0710425096999649
0.0950712595282805
0.0784373857263016
0.089675742740323
0.0843518770191451
0.0883441206747019
0.0786361666894457
0.0936875990879201
0.0775723133043432
0.0891854586427814
0.0818312940288409
0.100462196834121
0.0862749977506607
0.100078385541721
0.0920005021352732
0.105195114400512
0.0866454522336481
0.0922879937113015
0.0883023892482331
0.102676075962521
0.0923626314389783
0.111935857423581
0.0941352279983065
0.115027197346168
0.099927240839937
0.105517454843944
0.103109085761879
0.112662773824811
0.0895912857266929
0.109323673784184
0.100285806062738
0.114349866923827
0.101202491282401
0.107615503601556
0.0972576674459495
0.114329273490469
0.108127161750723
0.120603515036238
0.103094665288847
0.113103502491002
0.109349593040554
0.122937824928199
0.108950918745263
0.119580917474864
0.116164684857012
0.131518330906895
0.116258201286897
0.127922017824068
0.119159761977139
0.125012187571926
0.111175653736498
0.134232362066709
0.121392356215994
0.12593128528455
0.120290580517434
0.129565778601199
0.130302640303998
0.132173121933668
0.125705731066039
0.14267097423745
0.122008070916514
0.129480654459782
0.128057279382756
0.137140867272582
0.126370066855245
0.139039718751787
0.127468697130274
0.146321736459625
0.129150534047543
0.14010075515284
0.144049884590387
0.151595856282877
0.12994580871147
0.139774220461135
0.135248706916034
0.158177275526478
0.134889459576447
0.161368588121779
0.132053637464014
0.146778820378348
0.155574345777948
0.152343641447529
0.143322791365523
0.156295161479463
0.143277174711767
0.153508763775753
0.140654430159453
0.157657062374174
0.142887827160994
0.165161067196182
0.150093579461154
0.148301580583589
0.14576833078298
0.155784630650344
0.161800954741198
0.165471700265871
0.152892265602212
0.166840989631503
0.149662960559895
0.170787361176724
0.155121149929417
0.163457281982292
0.150887566938805
0.15768642601736
0.153810469082973
0.171661151007311
0.162287690172458
0.174474139102472
0.159045872137675
0.165250300354233
0.166465132121736
0.175298396304376
0.161918174273797
0.178022978306662
0.157050493895386
0.175232143158105
0.171712099562576
0.178279490129182
0.161624115889701
0.192512253036459
0.175529369074948
0.174225481753821
0.181064435356132
0.18332052405213
0.170124989095126
0.186647694346384
0.16741556502083
0.178593493105926
0.167533447202528
0.176986458364277
0.163061983964962
0.181250562929264
0.182771821595955
0.185190513553067
0.170379295384655
0.186506034200037
0.172561414803339
0.187981755996279
0.172602645840238
0.187192335687745
0.179423731034709
0.190055016973784
0.177655322723019
0.194078633262524
0.170138266153129
0.194185900011082
0.189198570108281
0.19300461732363
0.18668803017401
0.194559326422442
0.184189769022942
0.19252540681238
0.182100239393255
0.191966079733601
0.181260283801513
0.195430440229732
0.178277361802753
0.190686914406153
0.189590520210026
0.189478552712785
0.17167373708543
0.183208019379881
0.177481496286369
0.201042157815019
0.180326130808092
0.187971086501051
0.186287021295823
0.198490004486706
0.187830570983312
0.200702437783949
0.188825328040689
0.197304862094808
0.194218047782004
0.196151397812034
0.185056040259334
0.20317880635066
0.188369481922016
0.183634437939267
0.181292004674656
0.203503320836799
0.181948462059809
0.188595657545331
0.199160235365657
0.199106431780122
0.182360913706389
0.193142188914455
0.185159946992513
0.196819035717741
0.18313636976074
0.193948384072384
0.183827205347417
0.202823557858056
0.187973496782703
0.188436478398351
0.184599716743896
0.201168049873288
0.183218869860688
0.195055595425964
0.180890706771299
0.201881092113415
0.188752411780456
0.192500472880024
0.181453030721071
0.191687416333984
0.188985757267569
0.205664146010698
0.188353544274429
0.19991307712287
0.186201901037726
0.198627907071796
0.182090427590058
0.190801491530681
0.179601462052372
0.188291730972823
0.182335359063702
0.193422771057424
0.188065718757454
0.195860799059479
0.184554235230999
0.184462540333347
0.178512697357467
0.194084987496062
0.178118942754841
0.189482664889067
0.176275166718877
0.186444430219001
0.178435404968007
0.183011096088892
0.187427169185217
0.191445719992566
0.175164928100851
0.193137095049716
0.189032159770856
0.185288494042508
0.183600830002261
0.187871205912944
0.176583691702154
0.183382397186441
0.180608248262147
0.188343425663953
0.178031089155023
0.184105428761857
0.172571143226287
0.184130012534925
0.174564716651794
0.178456771077435
0.174455361322469
0.183479435685149
0.185172950238438
0.183625444872013
0.161672694872329
0.182095750945245
0.168484606537837
0.174597590065107
0.176131047434193
0.183698347449949
0.169607185458427
0.17864957923522
0.170362918269123
0.178368689126588
0.165157417035199
0.167234475080233
0.166737071394109
0.175438265981428
0.161720105802674
0.168410192740546
0.159154933347946
0.177598752868798
0.170951581143753
0.173362978327394
0.157805233302716
0.174765679480973
0.16422045070953
0.178704551713091
0.169857619925547
0.168241138576514
0.160367824209994
0.165265994310971
0.155485008422492
0.162175860265951
0.157500250531937
0.168216909702325
0.163285520942476
0.164012038920709
0.157584491760992
0.167982673676159
0.155011333856034
0.163092279300434
0.154473125775536
0.159427764988696
0.154531993709987
0.163536361722887
0.157750095064255
0.164333329206595
0.149423367950535
0.159905749124733
0.150575897576386
0.152490871129745
0.144418111398105
0.162466277561363
0.141119610494557
0.156231128559721
0.151556044172523
0.149251119620755
0.148102156212905
0.159756451935954
0.142384867679685
0.154128793999506
0.148316416229456
0.147315909688049
0.139080619338622
0.147103329972057
0.144532185963276
0.148253902105795
0.146956225167065
0.1483512525828
0.134636429577507
0.145944291334131
0.135645991895471
0.138412503148886
0.129384433374857
0.136967702605359
0.126517352924116
0.140450784889029
0.132772247358237
0.136551352467834
0.132391016729745
0.142479149889067
0.129581906534468
0.137214812515248
0.126606210637959
0.13914157427278
0.12864303523224
0.136217249798434
0.125573969228477
0.129938324782821
0.127306525536723
0.131674388091455
0.124011447891966
0.122373050428366
0.118619587027013
0.124676336503338
0.12206322687888
0.127251110634556
0.122604344379193
0.122995790785045
0.116930148335547
0.1268185850477
0.108121414587649
0.121897852312856
0.115717058802567
0.119944224751106
0.108139170653273
0.121324108541365
0.113947227290005
0.120218882577886
0.110504571249376
0.121128746430093
0.115137866012839
0.115154032055249
0.112517825093604
0.122580501968215
0.109031032583702
0.109575888637157
0.103552666002201
0.111651031738859
0.0989108753415033
0.105804094798037
0.100592648607355
0.109758431169289
0.0964278659015875
0.109065869675036
0.102712289788466
0.102262741180955
0.0944059780921482
0.105816604972687
0.0969187702504874
0.0999161745822447
0.0965172146401148
0.0987199041778841
0.0930747231757281
0.10523738471425
0.0932519687457091
0.0932621407079725
0.0912253896550753
0.0964536227802404
0.0878492350168754
0.0935261839365769
0.0915561082181
0.0953339495824942
0.0889679601513175
0.0917079930663142
0.0872860778336423
0.0960992932646808
0.0789226634226194
0.0941233763638026
0.0833392664194081
0.0847629983717379
0.0855224449377802
0.0902958531669487
0.0828210575850956
0.0913915333617467
0.0825790115662008
0.0884430632127819
0.0834783739543037
0.0863462632558475
0.0798790880939358
0.0819637056760779
0.0778590519959202
0.077079181939086
0.0718151999025712
0.0825106318083748
0.0771009314333577
0.0764796250644394
0.078383122449347
0.0755894961959876
0.0720425556587918
0.0809434129037932
0.0692688845680648
0.0735085243372395
0.0732471995368481
0.0747846738014784
0.069547821108693
0.0771961586619069
0.0667521931835979
0.0689723388653653
0.063823857661602
0.071587943870328
0.062144209351017
0.0722244398721042
0.0620789989548799
0.07149810163974
0.0602731701107356
0.0629062855392124
0.0573227259320084
0.0684241777777674
0.0631289239271932
0.0654161709613224
0.0624842027598465
0.0654722501092918
0.0569020701888815
0.061447768820142
0.054078803752614
0.0629769523338487
0.0596226270410823
0.058778392903542
0.0525419838041264
0.0620704733602154
0.0551655241090388
0.0598653475131605
0.0568641458977421
0.0634459069197818
0.0547906489510511
0.056636125688602
0.057950832597753
0.0646526780657081
0.053215694358137
0.0577045431922904
0.0501868283034321
0.0590714165693045
0.0495484134500425
0.0584735528876059
0.0516891975099401
0.0525645724534689
0.0483316867806177
0.0572756007407619
0.0497406469506657
0.0517492476976273
0.0486418334210244
0.052343334428148
0.044288555977295
0.0525751180843947
0.0470254432842344
0.0496244545376781
0.043413553805377
0.0532354508821438
0.0520054513185781
0.0489223348730185
0.049017795640856
0.047820775820816
0.0475680162140679
0.0488623930059532
0.0418268975169086
0.0499427021489655
0.0440388016769746
0.0491403620718738
0.0461673440739094
0.0488424880195331
0.0377650651025291
0.0512364833697624
0.045677115367147
0.0400440673306589
0.0381868290994307
0.0475623553029188
0.0398454795120894
0.04215256827509
0.0396451444538114
0.0436346016629546
0.0370947299055817
0.0435133230087034
0.038377788435008
0.0403671764057308
0.0357482103126833
0.0443431972455524
0.0378828433047152
0.035803317970291
0.0385935061778037
0.0461925504997577
0.036896012678883
0.0427238773931571
0.0326995935082603
0.0381721430609848
0.036234480332415
0.0405459263600605
0.0343334624874962
0.0339954404254735
0.0349071653424487
0.0380948792858749
0.0318361654873527
0.0363305277745453
0.0337213832342901
0.0380253743425355
0.0334392965139503
0.0334486865776375
0.0313328327103986
0.0398272665196912
0.0329458369375079
0.0374168422967731
0.032961223144767
0.0355474415319854
0.0276740062593433
0.0392117135455152
0.0284026973302131
0.035590782311975
0.0320668776469274
0.0334403084808204
0.0281629619043785
0.0332577631968964
0.029737697834076
0.0315464892346699
0.0274685046906597
0.0316315252530075
0.0286397866060679
0.0288882873843839
0.025707517918512
0.0355856276288096
0.0293501814373922
0.0267370712842189
0.0234820660665184
0.031590008861599
0.0268944654501737
0.0289769971425269
0.0251469373546617
0.0318074473786213
0.0281059354948319
0.0293987822887082
0.0270764945770978
0.0269977282907964
0.0316799175793296
0.031725525423562
0.0284379414671732
0.0319143935200052
0.0240863360780282
0.0234070058267124
0.0239196723911894
0.0311962970234145
0.0257050252875705
0.0264906385798895
0.0235977858712528
0.0309820858097626
0.0247360524470704
0.0275363987120306
0.025910918160491
0.0285006914548028
0.0195974714043802
0.0257847430938122
0.0246416712333904
0.0294877762356333
0.0236946472262617
0.0296461383330924
0.0239876137866629
0.0296065203045667
0.0279328832536971
0.02805502665662
0.0264248162905022
0.0284216317736209
0.0246911216370977
0.0247414760388527
0.0207476213165208
0.030637980686897
0.0259695697979956
0.0280077867967201
0.0288556183432426
0.0287264907702676
0.0272911268876742
0.0317684801743376
0.023970681639184
0.0286014557286581
0.0251344696078173
0.0295011282250621
0.0271132227647345
0.0305893696113549
0.0272266481499218
0.0316742822115551
0.0279509952439366
0.0291575271711573
0.0275052988444866
0.0327416042255414
0.0225171563268817
0.0334834396141929
0.0281027410439077
0.034519804489963
0.0283480339408142
0.034970923200195
0.0311070028399585
0.0369660985746582
0.0319721958476263
0.0345247657867792
0.0298009078061566
0.0355026342754624
0.0301810927492518
0.0358981541059577
0.0311274477523507
0.0355318278805471
0.0330879372836683
0.0391699031059367
0.0291324620894576
0.0347443610859112
0.0331155488281695
0.0387379815666371
0.0332286273767442
0.0393513718771896
0.0345582818099804
0.0393940614484883
0.0405340764868857
0.0378839816369983
0.0340849154701487
0.038712049450806
0.0399199055589925
0.0420236473654392
0.0344329780643354
0.0422215949179884
0.0409313628557806
0.0405464033259624
0.0403310435468139
0.0467426993532272
0.0415940286337246
0.0424908905573483
0.0406989235257606
0.0474402692586524
0.0358931797555079
0.0413680916968203
0.0381450047595301
0.041945857274878
0.0383487226077607
0.0415412492829616
0.03574413831418
0.0448726192404566
0.0407684500721167
0.0377201144053915
0.0395598771246616
0.0420359140549329
0.0366622223608553
0.0409095976368293
0.0370055360853264
0.0414028637633083
0.0345487352903701
0.0380367517392076
0.0336874445997459
0.0398593269804581
0.0335588869261124
0.0363385224563228
0.0343708733783278
0.0389302342573034
0.0329953298122162
0.0359340317053413
0.0354795089543972
0.0391322247855739
0.0361953121969448
0.0368317562893619
0.033901447625236
0.0383146670527704
0.0283336493676888
0.0344603251829118
0.0382637016849715
0.0387699134955808
0.0356144652276189
0.0343428351771387
0.0320979092256952
0.0346623472891182
0.0307305339536181
0.0365507323522561
0.0359383539907829
0.0352789584110207
0.0304545319404162
0.0378916594384725
0.0341964840568161
0.0375999897826081
0.0355706591936767
0.0389022468106239
0.031867148770913
0.0362640562177425
0.0319647007037648
0.0372969350102477
0.0342461589497883
0.0396027427082778
0.0278434648648513
0.0363642415146751
0.0291937186197431
0.0354735790004482
0.0331644312885054
0.0317417053420967
0.0302955658631233
0.0360943819817223
0.0327178459726917
0.0288399482758551
0.028998437774379
0.0333925817243081
0.0265993865328155
0.0354823996027295
0.0280093068771192
0.0293078333774986
0.0291097868163347
0.0317576927124191
0.0240399047007736
0.0311007815014913
0.0296710633457088
0.0254465593620816
0.0222773073859858
0.0277423991101692
0.0264402086447353
0.029588114615543
0.0232435917664585
0.0269661493536823
0.0246217323077325
0.0219928958532505
0.0250344678642576
0.0243537084960878
0.0174967560050089
0.0193945873426804
0.0245772148177116
0.0251003753090755
0.0227948979138215
0.0239724281927091
0.0173280546349816
0.0190132479215967
0.0163223225617662
0.0217759789902333
0.0223259430229473
0.0226517177256127
0.0168766535749451
0.0189356752909155
0.0163965923559453
0.0209859126576406
0.0209888098189752
0.0221220743706175
0.0162306046900711
0.0162493885069124
0.0192709245720072
0.0226811894268701
0.0188405659672082
0.0203770004825471
0.0155159711061671
0.018569259234266
0.0199052905485827
0.018879084348104
0.0170262402049229
0.018484077615737
0.0103478077969457
0.0149377252702294
0.0146940592106961
0.0187330976564558
0.0160836125948546
0.0204679475079835
0.0172231415173596
0.0152138679642834
0.0155108135483904
0.0192356499894298
0.0167640375448505
0.0161508541270079
0.0151241943513931
0.0188608176267727
0.0187246950487022
0.019021319823704
0.0143562466907207
0.0179335318978514
0.0150443549859679
0.0184832384451785
0.0109163829057778
0.0149851536203373
0.0132571419158329
0.0175215567492519
0.0149481651342454
0.0149412621064339
0.0124850396414892
0.0134007706882454
0.0162655055514006
0.0199087037570954
0.0138634771258566
0.0164998099563691
0.0156871882342765
0.016031198115946
0.0129168588295166
0.011833279151737
0.0128884846796853
0.0148574007419689
0.0128758859517894
0.0152988261535966
0.0130790417337526
0.0174404829406064
0.0120886263975562
0.0163874839079262
0.0138690399518594
0.0155922739330022
0.0168318586378286
0.0149006415026405
0.0132616428405621
0.0129275461812482
0.0120989461120055
0.0174270760002634
0.0143621800701023
0.0154905860249656
0.0166849049945562
0.0140823257994202
0.0117020032897945
0.0146284269318021
0.0127286295167316
0.0131396038156516
0.0130057379663669
0.0189262509307156
0.0113729051626534
0.01663527691522
0.0106757733959956
0.0169327456871166
0.0122467846302203
0.0163430912678104
0.0117668799031552
0.0147439117331513
0.0123694192323695
0.0174643983658994
0.0134077956608666
0.0144088848834488
0.0123089148596205
0.0143941418023205
0.0112899851132697
0.0160241871223185
0.0101008838223039
0.0172103203690388
0.00875213647315055
0.0152594272278221
0.0136961045024309
0.0125310728600099
0.00999609905855965
0.0110171594113584
0.010859261408557
0.0130655727197134
0.00797321928092474
0.0117855952369433
0.0110653683458105
0.014549792878982
0.0101050682611284
0.0133142957058119
0.0112579972929865
0.0122211304176169
0.0114594834943449
0.0136823085557109
0.00938491824682733
0.0168031233248561
0.0105214180962101
0.0105736286617172
0.0099299703455941
0.0137183976305905
0.0102398846964091
0.0110789717067073
0.0133048524822283
0.0152549730999815
0.0108662165124783
0.0164404058544132
0.0115600821308461
0.0138940907156007
0.0140933586313598
0.0177104861923349
0.012248523411744
0.0101669503074881
0.0102968464682893
0.00938288455442228
0.00769481913142769
0.0113717168421002
0.0106122053844913
0.0119076390008074
0.00800450967954151
0.0146260252192772
0.010367906805255
0.0142668364781511
0.00959816664085164
0.0145009625418086
0.0123356562179824
0.0152149326515485
0.00848563907885436
0.0103075767323504
0.00873070607365993
0.012847832012591
0.0107739361974892
0.0122341333117108
0.00688356639925326
0.0111258128039398
0.0113175915465745
0.00989399075719071
0.00574728406484233
0.010768537290329
0.00921492988626361
0.0108921528314244
0.00936606179281214
0.0115444814616825
0.00905619569689695
0.0106334168147004
0.00865375003819701
0.0106121093306142
0.00923151617006542
0.0117928587833509
0.00564707130395841
0.00798152302478171
0.00881837886732677
0.0114930374010406
0.00972866472170846
0.00721501456713524
0.00628826808660312
0.0103776717936621
0.00808056356633253
0.0120718636886122
0.00886188022358532
0.0113655362351201
0.00640117399311511
0.0112753295329404
0.00747861758867158
0.00990684568513553
0.0088497915189664
0.0107423815095117
0.00894995319759597
0.0125838652626683
0.0105535231407681
0.00992199478785748
0.00949169172639168
0.0137591508066864
0.00961099780727181
0.0111574129351801
0.00644965805000711
0.00702536035400381
0.00945607265025565
0.0107660232153503
0.00769867016990708
0.00916837898492042
0.00476022406581999
0.00897808152003869
0.00638264265821236
0.0105119337652155
0.00864342247108651
0.00935930216943013
0.00778275785216373
0.0112639903551779
0.00694827442406764
0.0103387365922451
0.00660664071752531
0.00658476274493939
0.00930138718063814
0.00923470416395965
0.00657826735262892
0.00784373167570663
0.00746991667274843
0.0094363677754847
0.00595173345306713
0.00699094919510035
0.00769201794203121
0.00907001049294908
0.0058498854474218
0.0060631713242412
0.00703973416442264
0.00616643628122307
0.00341167704431603
0.00622347933284312
0.00729351620190935
0.00718347540814291
0.00336741754844347
0.0100034592076373
0.00631195390872245
0.00261797604673657
0.00559799146176767
0.0100361906951233
0.0050791393583666
0.00853889631726261
0.00770575751689975
0.00902726070148458
0.004935011406388
0.0090577199027413
0.0079491655723025
0.00948414927641001
0.00665428516113673
0.00809165085123529
0.00435683701163389
0.00800003662355263
0.00685714692311169
0.00701647718840946
0.00519454366808039
0.00717439546536689
0.00668179971163158
0.00854245337537198
0.00390883498084027
0.00843131004910648
0.00596646480495413
0.00754817979745214
0.0064119914033467
0.00817536500911847
0.00630457721033466
0.00843932901527324
0.00798173773628136
0.00794982942924273
0.00530154750768594
0.0056451346313645
0.00618487153912671
0.00794124840175811
0.00366071850397861
0.00501390686376483
0.00359434377728145
0.0069524758766564
0.00609386831507125
0.00542317718270853
0.00543749606124215
0.00461223528095329
0.0053371305747095
0.0073293241620816
0.00394836456336098
0.00707912857836734
0.00657709462423348
0.00663243498859992
0.00424138357864891
0.00587947412862119
0.0048800895073858
0.0054895641459971
0.0046520129123354
0.00687590884260623
0.00487339231650031
0.00582356528594572
0.00565593283209658
0.00645241950945783
0.00393680994355487
0.00592556209453777
0.00623392062430412
0.00756941159956492
0.00586748155969407
0.00715029120547938
0.00414981367146926
0.0062650021080596
0.00613178189353263
0.00849582241801317
0.00413608995704607
0.00525526450045425
0.00450153485642286
0.00839524324080075
0.00335638960877703
0.00563683764515734
0.00498747563684988
0.00687851103617158
0.00272190331938728
0.00659406825939301
0.00718908313827757
0.00895398462253103
0.0064929188374254
0.00453905613712298
0.00444237919410141
0.00684236049631915
0.00496065240173162
0.00555570582534906
0.00530436038168582
0.00554546506661465
0.00664343436719919
0.00586932060319706
0.00185303057963981
0.00506440538018392
0.00339012060579074
0.00779202389019845
0.00799130035890149
0.00610303403162175
0.00151742824507302
0.00517359239524698
0.00719725626723498
0.0057647179061514
0.00370271480932218
0.00318862640485882
0.00118951852358345
0.00389947457256564
0.00515501033779964
0.00691212078419781
0.00478130310344357
0.00581443696575344
0.00386338129378577
0.00574119937505347
0.0028389680067797
0.00630707498736294
0.00387654271085552
0.00305272172981915
0.00424944372253763
0.00287391406464246
0.00492501620132524
0.00515990363526178
0.00505872719772813
0.00559573142570532
0.00495982207446668
0.00444192239952957
0.00200754217688706
0.00532923436064709
0.00558538517951815
0.00393258221966851
0.00444061367613515
0.0057465657732655
0.00629427594640827
0.00726318839237531
0.00383010985867376
0.00402113037751057
0.00573406884848203
0.00540690403338989
0.00437620757034771
0.00403101437587022
0.00636633640153079
0.00612462960202263
0.00571505970596904
0.00528224560551357
0.00554727128654233
0.00368733323800038
0.00340236936296476
0.00586183897578259
0.00714259565404614
0.00574232130381701
0.0046232299336402
0.0064148546533622
0.00330826179731874
0.00788290147571524
0.00639770972231369
0.00647271515526251
0.00613191444006943
0.00326331559720862
0.0019195122293077
0.00403494122003701
0.00564854164406254
0.00433240713047514
0.00257098623432382
0.00437211692668722
0.00412100773576558
0.00355358577158317
0.00303156105279907
0.00855566198491953
0.00512372677483874
0.00202111136547865
0.00480657360236241
0.00476288166482223
0.000782146208942396
0.0029153872704401
0.0043476790755585
0.00125498669469556
0.00430556247059155
0.0046131752958338
0.00470514086958849
0.00448216339207483
0.00316791149882698
0.00472914742060844
0.00508340771865943
0.00595371578906883
0.00504433490473811
0.00420690987238913
0.002984714922489
0.00538226349178719
0.00296053201096232
0.00293537944878009
0.00478142271697636
0.00410349107516083
0.00349834624774982
0.00171483364918053
0.00434344544816253
0.0055210868740279
0.00346832880437047
0.00425169914046131
0.00529194789247839
0.0033762544990598
0.00354051435348256
0.00595444084263992
0.00460154458576534
0.00365831559094915
0.00552969097073015
0.00200179245113084
0.0030933942696341
0.00573002708849292
0.00599348304317726
0.00283071547778384
0.00306440596457379
0.00495335765934186
0.00512776910412005
0.00610475563785921
0.00271783148876629
0.00355017584211404
0.00208235236864525
0.0039642480629362
0.00326367835364081
0.00263221590219598
0.00337032780268
0.0030339223807797
0.00390130823795377
0.00285106282058794
0.00190295217295699
0.00502373471827653
0.00342379442131659
0.000891550397716677
0.00352465781205397
0.00470164144545453
0.00490729509624698
0.0021510172351949
0.00578495209860064
0.00401032875541367
0.000243168659278115
0.00164133903616512
0.00558398388673414
0.00368156001478509
0.00164319230637321
0.00193576772011908
0.00536366412451729
0.00405974529838395
0.0065742331362642
0.00235672409027231
0.00361396580587299
0.00243377541429047
0.00273108975799999
0.00190307982861066
0.00425977274087906
0.00208288505879434
0.00155047890521013
0.00159142932035104
0.00415393435704454
0.00151146860672008
0.00630581949022068
0.00235345279740668
0.0038716231845253
-0.00100073250688125
0.00439575510272506
-0.000234544414818213
0.00307531512276285
0.00431323866154228
0.00183660134221549
-0.00209665809132855
0.000822488076273735
-0.000223760670697571
0.00306412150810504
0.000316675037085603
0.00506780503157757
-0.0016743602229421
0.00207501474782367
-0.00400437454878343
0.00804397774305458
0.00149717342237615
0.00329152544712537
-0.00106206694947584
0.00744023711651768
-0.00411130315236063
0.00809260656340945
-0.00127466725154372
0.00526589760393298
-0.00316785081817727
0.00486183150551288
-0.00371108434114283
0.0068342799515706
-0.00144265932832823
0.00904374850371215
0.0019697033558946
0.0124457462842135
-0.00419097693065918
0.00930719783750931
-0.00755566297522829
0.00770048767782767
-0.00960839513286352
0.0103302253497651
-0.0068679979820838
0.0115052517958037
-0.00802678560814321
0.00889114818822749
-0.0109047827064192
0.0118982187303611
-0.0107040736374883
0.0131432930676559
-0.0106009021112482
0.0145210942965136
-0.00793440766625345
0.0127924577858598
-0.00852561727224575
0.0111321270030849
-0.00717420553800162
0.0121047136619498
-0.00323171130061625
0.0103431232974431
-0.00371899628019647
0.00309240049967548
0.00714489733255906
0.00281772290021825
0.00811541716974662
-0.0126826992392724
0.0194335421054815
-0.0141170849409218
0.0253335363158017
-0.0241011884604942
0.0339938348665831
-0.0236552711890082
0.0288535927223271
-0.0207495247205851
0.028899521151922
-0.0153077972685057
0.0213866715940333
-0.0103159439407857
0.00985008509430033
0.000395202208889179
0.00459982286745994
0.00111986598142915
0.00235365210338521
0.000633337263931637
0.00540014360670123
0.000196208118160205
0.00747475553491181
-0.00290528905313235
0.00766790738563372
-0.00382578857617855
0.010145764208148
-0.000327446454231029
0.00695575080355082
-0.00104851179003774
0.0061316585054474
0.000338269602210531
0.0067921086337833
-0.00239914831469335
0.00443566383526478
0.000288698891656466
0.00515041705892048
-0.00208280224291606
0.00624602011781616
-0.000566735162022082
0.00689496417595976
0.00204467411125972
0.00525876617732187
-0.00177393806193012
0.00349749121134629
-0.000354471401581489
0.00746767837713427
0.000580958435369099
0.00572144249822537
-0.000279130366091218
0.00441923824549856
-0.00127999686797217
0.00423547089107497
-0.000239264077139313
0.00548345365197794
0.00128795276312461
0.00731014556923238
-0.00181448691242974
0.00508548949809335
0.000161058100474717
0.00461738413666647
0.000664491297370579
0.00713003956050384
0.00239995688365348
0.00552838201956044
0.000599527998356931
0.00547546359267395
-0.00131716845787198
0.00485983216054177
-7.44817082789711E-05
0.00607160191352837
-0.000545407527025568
0.00600029957192808
0.00179198679013857
0.00582937356846425
0.00150776142943396
0.00605339350196732
0.000469461494088768
0.00438814467255111
0.00203562551925819
0.00712736195295839
-0.000505736481964699
0.00641324944970406
0.00139395498170096
0.00330307512582245
-0.00240218709344364
0.00361435946045902
0.0012565446113362
0.00479622149513524
0.00261859771642491
0.00670651498171804
0.000728205084602184
0.00479784141644061
0.0026333638292531
0.00561977906613451
0.00143775959336276
0.00240468632775439
0.000883912117836648
0.00574696730972758
-0.000928419920189795
0.00353662283174053
-9.47750195345133E-05
0.0039907357649526
0.00105728142512133
0.0038594291519315
-0.000794343415434722
0.00486529518829671
0.001803898499775
0.00531812901745835
0.00142791671849371
0.00549852803509021
0.0013657014905062
0.00345580212771883
0.00183810099308116
0.00675396351596592
0.000167994144321203
0.00264784065573984
0.00198844241977586
0.00378195678496744
0.000578401840768111
0.00417676011040085
0.000895820686813173
0.00386218261728239
-0.000114830112912604
0.00421760754231095
0.00254653555698263
0.00677548198526377
0.00215798419339534
0.00584250576343735
0.00208781202662289
0.00398560653809387
0.00204526893378225
0.00346089092194498
0.00249381044733694
0.00651670683230815
0.000665530385876846
0.00284073170672248
0.00324266228018857
0.00428152770560299
-0.00021745455439242
0.00385061087189258
0.00174147839589855
0.00441330069454465
0.000782141797837297
0.00578093376866302
0.00253552472628264
0.00305045597392276
7.46746471963942E-05
0.00534953613399894
0.00196603275473751
0.00413150221866419
0.000406692449826636
0.00506628741166883
0.00206757336107216
0.00346447160629063
0.00186775817975729
0.0053791380851432
0.00167902731603943
0.00380586104234686
0.00206802940351051
0.00452999529619799
0.0021556734844768
0.00476930390062095
-0.000770862176130154
0.00238327206349755
0.00249020600529519
0.00490524419876037
0.00152300922492867
0.00333460382372293
0.00023560933213903
0.00519652199723729
0.00337253136126388
0.00349553681397192
0.00199424331862354
0.00411114333849324
0.00192874663040868
0.00392497260132047
0.00517766012735686
0.00278297747065499
-0.000272363434768415
0.00444896578529727
0.00210321132921616
0.0041717919155682
0.00177769931876818
0.00585144571753145
0.00287808659812874
0.00499988585453705
0.00283766577847066
0.00501049464722112
0.00117610463467975
0.00398245338687103
0.00181161821835009
0.00529192011060674
0.00252996929831136
0.00342510036848749
0.00207917577158224
0.00430577786888604
0.00270017078551699
0.0052341572112567
0.00280217005873731
0.00541299598411347
0.00338042716417799
0.00317527221865538
0.00184527341736691
0.00681449960568504
0.00430230321202184
0.0028764367021033
0.00152356686218903
0.00436726229730685
0.000904708007013298
0.00312456602855713
0.000519510215361522
0.00512258476547445
0.00126036389754551
0.00288444676566971
0.00145038180952534
0.00335153926973659
0.000830956171731617
0.00451967974533141
0.00246523258187804
0.00464747327813559
0.00412965380005032
0.00178750503232342
-0.000160893172673497
0.00536333487843203
0.00223263682130846
0.00362537449798003
0.00111292695046127
0.00586304245000896
0.00270231046391604
0.0043154419307338
0.0032482754756986
0.00284631021737566
0.0015304149302567
0.0042560611554372
0.001761980489842
0.00235224766501638
0.00293313713173824
0.00415729217580519
0.00282514113928152
0.00571893048579222
0.00202459932063269
0.0030886081690722
0.00316285478402803
0.00340083777874565
0.00180781890069837
0.00489875880647267
0.0035260114565886
0.0047354141888605
0.0018637304275523
0.00445487535565514
0.00140538921296612
0.00396535733580775
0.00208806691076056
0.00380211527422572
0.00138053759995223
0.00558805137738685
0.00306454323150587
0.00314021804376071
0.000333982507189048
0.00418487276863498
0.00306135156308671
0.00344009635907641
0.00046242522611991
0.00306905429014985
0.00364821883078327
0.00114861073739441
0.00121266058972683
0.00562999464033789
0.000748835695593424
0.00316461130507632
0.00315692684341493
0.00423794239740196
0.000147034883831491
0.00463670217774724
0.00148886679310337
0.00311147558044676
0.00164600062108245
0.00493718299422874
0.00437482308229477
0.00372368303735912
0.00227210754761586
0.00176715874423998
0.000298749030122475
0.00436843903197443
0.00226950203970431
0.00370590457013632
0.00240912059604194
0.00574126632971144
0.00242914752658262
0.0056766499870105
0.00222130646457915
0.00325804539817387
0.00143789869160535
0.0031209677961955
0.00184008417091428
0.00149956500050272
0.00116560501539406
0.00406592563907323
0.00361417898735148
0.0022935100496806
-8.30468149625266E-05
0.00440030707378437
0.00105187188637629
0.0043704655884274
0.00139957400809988
0.00334094216518034
0.00282339224881972
0.00419861182763758
0.00275550909603933
0.00301394703354122
-0.000164614772740761
0.00360023467215476
0.00259818291131239
0.00307173878532258
0.00182649965918707
0.00405357544149615
0.00267123958761904
0.00534540745650741
0.000373397991490767
0.00535365991696979
0.000718723497622589
0.00223891590659232
0.00247983165305278
0.00442363493224777
0.00184692685368182
0.00437650344195353
0.000421391345172849
0.00371123275808982
0.00374263138139953
0.00494819798067848
0.00226016776072271
0.00263443419627556
0.00430089415088717
0.00445724713206914
0.00228814330648527
0.00463911082970778
0.000854078616133435
0.00426840245791595
0.00173029109074078
0.00516939255056391
0.00222341622334788
0.00241405918576519
0.00169355400368109
0.00168218488044755
0.000653637639324513
0.00309558428104476
0.00115147099509114
0.00280873049326089
0.00143028848008573
0.00352390180224429
0.00113914179179076
0.00298134651193346
-0.000606651501563449
0.00246784893580308
0.00527058703798054
0.00150739642407337
0.00395151751825461
0.00467905096594807
0.00318258558369925
0.00283093776488876
0.00208605546505832
0.00290546607981049
2.86540364493322E-05
0.00427792449133342
0.00323647295322526
0.00207917477913188
0.00158776506397754
0.00333146858478254
0.00307541676624025
0.00342351150543628
0.00427666659218312
0.00378405561939683
0.00194618603923396
0.00262724035908735
0.00326291587893645
0.00346043817432141
0.00232267177659542
0.00177151115396888
0.00326218496290178
2.41793347647046E-05
0.00390201440252756
0.00585947510729149
0.00215371945567182
0.00170318879175209
0.000157322607785294
0.00330631806521156
0.00355599040879043
0.00359115652382283
-8.64506047077658E-06
0.00447457020405253
0.00173409022273157
0.00299092579583468
0.00288892056146489
0.00325619209349732
0.00153259284832164
0.0035530372640856
0.00322728881995371
0.00457537325074512
0.00350166028179032
0.00131476852397113
0.00036031177446115
0.0027214085214343
0.00130566351605276
0.00145831256026657
0.00123825872713213
0.00495763273541417
-0.00278917496075085
0.0107463811722107
-0.000262427336261551
0.00392943322526611
0.000700850303636593
0.00230863561794035
0.00124864210244194
0.00426196034858333
-0.000489702319704588
0.00421730708742524
-0.00160330813298934
0.00126930312593289
-0.00174600095752787
0.00225747010151289
0.00118940811705108
0.00250867121346216
3.02772803391864E-05
0.0037280736629288
0.00014929437242937
0.00296572209274113
-5.50644604612836E-05
0.00313422515119005
0.00258584277992376
0.0046773513656356
0.00152190101175037
0.00764715710858315
-0.00832077036874886
0.0150311422053601
0.00250035587072083
0.00269330455438708
0.00203641695044617
0.00193802941532776
0.00243114486020791
0.00243888209551446
0.00296443892425636
-0.00159443810034442
0.00439611392135308
0.0016120705062647
0.00416707329569309
0.00175089540840762
0.00256288659747674
0.00478363211692512
0.00126963453442125
0.00104874939230943
0.0024137239672004
0.00340212299255236
-5.93389809802646E-05
0.00330040537477158
9.81124393003017E-05
0.00472695037189614
0.00169050245621569
0.000787323258788147
0.00291765097229421
0.00221893236329104
0.000941253575562976
0.00361376584879455
0.00175008873465317
-0.00185368536588055
0.0116221196564697
-0.00102259168767156
0.004803832464395
0.00230564555236752
0.00428204209339325
0.00137316424501992
0.00275265699286958
0.0017991339833145
0.00256351239903413
0.00152260713134885
0.00211398862451478
0.0031964621092164
-0.000349314942352019
0.00151837233224691
0.00208723692832001
0.00105724269894874
0.000369287651908215
0.00468442070846757
-0.000609759775432084
0.00278215630151823
-0.00194250300119235
0.00633882542245485
0.00420269347808488
0.00232905552832467
0.00608324487520357
0.00188871325484398
0.00156279519290866
0.00236648235866475
0.00331946094618075
-0.000504737046646439
0.00458876583788245
0.00169325940847572
0.00395970092857666
0.00224058322219641
0.00485696130824038
-0.000971355875716026
0.00444759639251901
0.000345598029629802
0.00567189635823938
-0.000370496544832487
0.00356003170554161
-0.00105210117718912
0.00503211145574458
-0.00292509016542867
0.00679831749630256
-0.00208256496405927
0.00812160570395909
-0.0120172884137297
0.0073020294354674
0.0136121579213013
-0.00242766076065707
0.00965968498509272
-0.00158191669161427
0.00419781240284116
6.64031300538475E-05
0.00232152084398346
0.00310375494282363
0.00322794461116166
0.00034648182232461
0.00340843716789106
-0.000233398373491017
0.00516318528210009
-0.00149096825053132
0.000655025022964526
0.0132671061859687
0.00217631105240381
0.00379350623385935
-0.000620024895699934
-0.00278357598197119
0.016613689036825
-0.00264842146037445
0.00507015971935541
0.00195645784977762
0.00402632323784437
-0.000293265224406221
0.00356016534127347
3.21020492978071E-06
0.00292925849051045
0.00162454566145674
0.000393975494376773
0.00424602045104815
0.000602830465339846
0.00343749951439499
0.00109767017632342
0.00281149341863758
0.00827757176508567
-0.000846119009226581
0.0033013755701261
0.00253103676346088
0.00234396550583633
0.00104511634174501
0.00505669932046781
-7.02714793146041E-05
-0.00141513234436335
0.00623334838721754
-0.00270371338614739
0.00549594638177296
0.00979365253275829
-0.000443405275503517
0.00478110781592309
-0.000402177228654849
0.00937407574266661
-0.00309393066384876
-0.00416038820727797
0.0199897194742152
-0.00560384030713887
0.0161650201189719
-0.00275031662394106
0.00765068516458092
-0.00256327510046249
0.00864641371829368
-0.00874130722160265
0.016135144948569
-0.0040455879840757
0.00884882721695509
-0.00535831886197943
0.00358397418139711
0.00560579051111275
0.00184821228915804
0.00411837595301027
0.00243749927432315
-0.00245446475629845
0.00933045813517037
0.00845612863934304
-0.00819440275120617
0.0143933341684412
0.00227309619712457
0.0132845974081993
0.0075814032551318
-0.00948707984709475
0.0191709525316867
0.000590177550987825
0.00628253318018178
-0.000398125467002984
0.00274484348159956
-0.00143452135012268
-0.0047993545809265
0.0160570827636979
0.00233360010251967
0.00134315366992517
0.00759639246385195
-0.00544369316274514
0.0127657732163505
0.0064084804451767
0.00794864541606768
0.000284915962702643
0.0123180586277305
-0.0148799068740063
0.0210499105635903
0.00403019671731134
-1.93260997550651E-06
0.0123291641290442
0.000571383595110924
0.0127093598370744
0.00262603755518669
0.00390508332852383
0.00203248548820468
0.0121063352537057
0.00435313580793479
-0.00200687165899203
0.00315887482050758
0.0174677182314734
-0.00570835492085142
0.0119923535109744
-0.000587196930100218
-0.00544491690555471
-0.00321921735075151
0.0250074545651468
0.0117012580388962
0.0111956015745517
-0.00348593222856546
0.0161409073785191
0.00258908096793508
0.00782657831901808
0.00470015075711558
0.00492305053179577
0.00384404813551597
0.001631457210444
0.00890375078861862
0.00450523700641474
0.00556556608840741
0.00572578943852657
-0.00116300505942643
0.00683745414905215
0.00281168034114857
0.0330206006158361
-0.0103382100430775
0.022058295753194
0.00419355203048444
0.0135958278067732
0.00496116153529199
0.00619959401827438
0.00670310307794322
0.00960171718751438
0.00879453903372079
0.0015143340474373
0.0127808568462852
0.00965361289131049
0.00252620116283591
0.0256269822653872
0.000783529587933471
0.0143015136445501
-0.039628807609442
0.110885460541055
0.000977782562405673
0.0296344078381073
0.00139475071761426
-0.00136253383915169
0.0386590134987752
0.0168300120850542
0.0103397799159065
0.0148446936566378
0.00960376517821286
0.0117658426097975
0.0102805500625248
0.0179247831539897
0.0128279229791634
0.0208220078219537
4.81864252346618E-06
0.0162501540662141
0.0258050890642093
0.0339898670178164
0.026089421255336
0.0211084401088865
0.0232977192551633
0.0275737704550222
0.0166475324702553
0.0264631825923527
0.0139889201150726
0.0100569749512347
0.0497070367314219
0.017764242842047
0.0323526815037821
0.00995083020122338
0.0473240029283977
-0.00128068662651939
0.0571227965211447
0.0285010051903924
0.0324093520794176
0.0258067927200395
0.026219613142557
0.0311362571456762
0.0139331281920595
0.0419384186061303
0.0317533775317699
0.0332491419862033
0.033077568846399
0.0349209861768242
0.0301046411087786
0.028783344411756
0.036784598912378
0.0202370801979232
0.0363000366791343
0.0007036971234892
0.110989395457219
0.0358809754944979
0.0345783033597682
0.0389364317401652
0.0266136386579536
0.0495895489864944
0.0207512826289188
0.0549803054017382
0.0401015213043735
0.0346273306856114
0.0350277205963365
0.0310216507678083
0.0395090516128073
0.0276277015893567
0.040163972567553
0.0138254624711463
0.0469393954898612
0.0141335626868194
0.0363272975929655
0.0518341858781467
0.0311256490415038
0.0322657716494192
0.0268522246909515
0.0288976188930163
0.0295706173075347
0.0293448593127559
0.0174816127085915
0.042065453666608
0.0178157271811679
0.0360356820519757
0.0120559460659374
0.0356715031715989
0.0289063355906352
0.0291222425935181
0.0333781885065454
0.0203003511103864
0.0312608247673241
0.012829021752503
0.00901042099990889
0.0483958946120795
0.0179506929117395
0.0337256669762018
0.0201050906714895
0.0309934441079897
0.026185493576232
0.0226263249989083
0.0168403774834683
0.0237298552652512
0.0174804149707954
0.0307598422397008
0.0156233800018826
0.0250390734459417
0.0153670257271373
0.0237554102203344
0.015863017134961
0.0277785089300792
0.0216921758360401
0.0225693973709448
0.0193576862310707
0.021852820148898
0.0177815593349534
0.0217791786327275
0.0206732363215886
0.0248121146662854
0.0167504780434934
0.0253940500298854
0.0178408537577392
0.0219052738601609
0.0170114670095044
0.0220088279323109
0.0186220164384145
0.019269874785033
0.0151343627151412
0.0202448367503573
0.018754878693011
0.0223177533045647
0.017391550946011
0.0225099024107494
0.0203768878407498
0.0185240677875595
0.0249156441091903
-0.00394737851649346
0.0422212407909342
0.0252171511005284
0.0179588750033639
0.0227668811739967
0.0122424471741162
0.0251797595472332
0.00125561477878968
0.0339054176104366
0.0213881461508605
0.021809199154945
0.0165165104540262
0.0141967021198429
0.0176490397151712
0.025580287252518
0.010000858800691
0.0321896279017896
-0.00673168376028815
0.041336828128304
0.003147290555142
0.0378593022587563
0.0368248324818971
0.0324246645291124
0.0168520901514723
0.0175459633254821
0.0365124798213756
0.0112672015825712
0.0253034147412733
0.00297109935308673
0.0275840849876185
0.0198271657260649
0.0160188896732173
0.0207451716179936
0.00687367348379679
0.0227830009358667
0.0288762914058744
0.0115137636918494
0.0201315888674918
0.0228213711319452
0.00329912622325899
0.0263663889623952
0.0288968119461461
0.0320466938808297
0.0162406560028968
0.0208858854143655
0.0118386111019768
0.0043779290204857
0.0341126454228055
0.0156329175838342
0.0223331382735352
0.0144097140976128
0.013297846318372
0.00951655867318756
0.0155963967550326
0.0158662479759824
0.000996051226122316
0.0404137670464331
0.00158931496166344
0.0306005071518851
-0.00266773980423944
0.0251507125769803
0.0196827746590025
0.0254962775757698
0.00148115170336463
0.0189780504101654
0.0186800526564066
0.00968624229857593
0.022901435444649
0.00919285445801925
0.0065876097372144
0.0217082647177981
0.00421616420041401
0.0187428297683234
0.0107906863206866
0.00911469505903367
0.0187574649259446
0.0225077655408055
0.0318038422570965
0.0165708428688722
0.00821134900147806
0.0175324225175016
0.00583236523666651
0.0225726824932718
-0.00652455984238584
0.0286551622435608
0.00958714539915158
0.00385409355360599
0.0259841463903822
0.0111146376417448
0.0118618219702962
0.0135158973794936
0.0053355004932353
0.0105447734770693
0.00772754860972388
0.0242930554274833
0.00720402871315476
0.0142043536335953
0.0189728034673771
0.0106309722402084
0.0141793649709782
0.0120746205849183
0.0127997142751736
0.00835955591147009
0.0182393271713094
0.0160929440951971
0.0115858882877008
0.0181738279195746
0.00614811388936471
0.0178163220244797
0.0321768875482654
0.00378364754736336
0.037246750406902
0.00278179852691205
0.0411192948148955
0.0195749768858019
0.0192685326421802
0.0214511512778619
0.0188898390253629
0.023962808840626
0.00999868455813233
0.0162889456701945
0.0343231770940895
0.0152709107752742
0.0278065191490683
0.0161141113583182
0.0268282995483025
0.00929743803583467
0.0369499342603538
0.000265041108622493
0.0463395651673954
0.0336237212975651
0.0291366441573762
0.0274365831427863
0.0152118579106655
0.0278759805344202
0.0212319387998293
0.0284124426830544
0.0212235680682773
0.0206545944440238
0.0337560258215484
0.0204976786207053
0.0234678322754237
0.0191839023424483
0.0224955184513792
0.0254286705201089
0.0273308247228943
0.0233625002792307
0.0184315997203118
0.0282126242963151
0.0215052352689568
0.0106391978356961
0.0586904300756335
0.0235796851978816
0.0330960406453878
0.0208917381786432
0.0313682789207708
0.0246711336299512
0.0217260660391647
0.0344454094511382
0.0305314108467479
0.0281920061613812
0.0309704944906707
0.0278793814602441
0.0299218548794524
0.0254536221434176
0.0415318150441057
0.0182090879720126
0.0390927854536764
0.00884876794723181
0.0476821906143013
0.0349337413713387
0.0308211903531754
0.0386038718362266
0.0258734135787485
0.0309543697114896
0.0271876634041796
0.0319073285939527
0.0273203769541115
0.032660356873485
0.028510402796277
0.0314791588674096
0.0252158804495368
0.0316555508134615
0.0266693298055067
0.0236643832148136
0.0315533405692539
0.0247989933276328
0.0285850773948511
0.0263868557357616
0.0307031627766807
0.0191964319693873
0.0349453876849946
0.0272851795153436
0.0312903181182184
0.0288349224887161
0.0217889702345171
0.0308566677931671
0.0345988878287177
0.0272535159841303
0.0278194914126587
0.0224669021251529
0.0315233900414502
0.0218106839758117
0.0261926144445669
0.0340533161985581
0.029039294106084
0.0296395874439539
0.027646674869395
0.0291216583204517
0.0255166958913499
0.0295946304501338
0.02446453683458
0.0311413878761518
0.0281275999378563
0.0312233635274375
0.0251963329335816
0.028879479929827
0.0262269860806888
0.0345666785733112
0.0306288779437042
0.0267765297402788
0.0301674091594803
0.0244638813663955
0.0269209872247499
0.0298384783672973
0.0275544464856584
0.0245319111749662
0.0262365292715417
0.0241100560346796
0.0181950592100667
0.0340741702529898
0.0214935328385945
0.0294833124598403
0.0205507726423297
0.026006460504487
0.0209593100647295
0.0264642906093941
0.020697652457901
0.019095488627739
0.0205082099159633
0.0218545836013746
0.0216987175047743
0.0233016330158379
0.0191427003982021
0.0217571780803592
0.0234527012404891
0.0233870020831071
0.021073822297334
0.0200602115775025
0.0200163327700048
0.0207012090203546
0.0173302605773451
0.0230099362541287
0.0167663908040503
0.0226748298506905
0.0186993498704648
0.0236716418216415
0.0175679620066071
0.0244423260565965
0.0211327596439967
0.0191606493891049
0.0201559384858055
0.0210238049649174
0.0223326881958114
0.0225409311610508
0.0221057550122448
0.0188400935162252
0.021029780423217
0.0188245038041863
0.0206607236392663
0.0198268359663584
0.0207371335593888
0.0200070064034624
0.0231384607872674
0.0170485634673383
0.0220570694575388
0.0189226064635875
0.024490905414133
0.0191131027129681
0.0222415551480191
0.0208429107607278
0.019548850440353
0.0213902505351352
0.0203084200507556
0.0231836881607771
0.0196422692458643
0.0189962692941177
0.0205379531040943
0.0194060378375076
0.0206767177678645
0.0195757950891721
0.0216121384733864
0.0214220476839768
0.0194994221932842
0.0211677238070954
0.0187563091398622
0.0187171667316895
0.0215612663871424
0.0196432703511778
0.0184541644503019
0.0176728645971761
0.018860222262612
0.0184046043968387
0.0164587141677887
0.0188348862140747
0.0161185911111504
0.0171482598081581
0.0176052767492728
0.0170354553457126
0.016538662584169
0.017609288849052
0.0189805410607223
0.0168598302192012
0.0169478869935974
0.0168086199176163
0.0157302409031826
0.0157191053056005
0.0175740714138516
0.0172441238250105
0.0161493010419797
0.0176509876608742
0.0176580466557172
0.0154132131650551
0.0167190651920686
0.0154469568872337
0.0169625665947735
0.016247753281783
0.0166057107022006
0.0191294874056714
0.0171035417202456
0.0180570599372369
0.0181457728770776
0.0186122076299535
0.0170162546196825
0.0206881914012661
0.0179682369510437
0.0196300058466233
0.0178339047503708
0.0198390660944259
0.0178059877435134
0.0221517747949307
0.0189479319243964
0.0191839596443893
0.0170843989432037
0.0195644011530807
0.0192264286385694
0.0190700047947092
0.0165803246387336
0.0195738243654497
0.0195213162438331
0.018698934097625
0.0189358883122877
0.0183390482337393
0.0196473855415823
0.0191770148466584
0.0184270816134113
0.0190867341311221
0.0172875412689443
0.0172070384871403
0.0175375642347756
0.018850407322675
0.0184236208154727
0.0177706710984339
0.017431887324346
0.0174919208453982
0.0172000189271613
0.0156828248365399
0.017348445607484
0.0191679710835183
0.0154560354631583
0.0178841681174942
0.0171023210674612
0.0157703687551306
0.0166856967519598
0.0179070292405686
0.0166968488025147
0.0160161045673085
0.0161090588425423
0.0169910580478691
0.0162764843339158
0.0152080392631133
0.016892023753833
0.0150890697485729
0.0144732628570629
0.0165062623546669
0.0172084114091956
0.0156299252627189
0.015336043963156
0.0171008160413177
0.0141457681511956
0.0149846900096994
0.0156404699267079
0.0163936998779617
0.0146040923682094
0.0142852909725518
0.0142815878915081
0.0144415427488081
0.0158402697417363
0.0148120961318728
0.0145179873373429
0.0150560477486941
0.0142467325633662
0.0150312395399516
0.0149055389599953
0.0146192534184661
0.0148072809764335
0.015768769806628
0.0155080161201712
0.015251067634427
0.0157918432205438
0.0158589735698544
0.0139037589107028
0.0148654266083468
0.0139160317159908
0.0142543733502743
0.0129376823323617
0.0163630977881351
0.0156302837130975
0.0139987886392773
0.01619909989175
0.0132563088964217
0.0139259158132403
0.016536353860091
0.0159255748832283
0.0165056356207443
0.0182426004953675
0.019528884874624
0.0196816334821588
0.019212758071163
0.0219043881692144
0.0225805580181831
0.0234224133275781
0.0243808084226796
0.027148615012465
0.0283994848592853
0.0305489727248374
0.0318576976392577
0.0334978855488
0.0329346746768251
0.0350005426860258
0.037119202496522
0.03713745976196
0.0390886248676995
0.041622676279226
0.0416398816775867
0.0418346399447133
0.0425086166307959
0.0453165461619592
0.0458737254086499
0.0451526617847153
0.048066030911934
0.046944776153217
0.047657039418355
0.0484195015439916
0.0488011852100436
0.0491838843729656
0.0489730133846544
0.0476780660945713
0.0484798608680666
0.0454754552934798
0.0445941057920905
0.0457197914988562
0.044775949458109
0.0445903735101966
0.0464772424589675
0.0491243609814364
0.0476569889433641
0.0465463673889205
0.0474208642709632
0.0474625137796507
0.0463575909258174
0.0478091694807283
0.0486440700649956
0.0478492312232
0.0484389391691104
0.0498571958469634
0.0512662603971715
0.0507723763226626
0.0540000673290953
0.0533050918722577
0.0538614575284706
0.054579359576608
0.0561469364998562
0.0561579093016208
0.0592609678417992
0.0610160913898714
0.0612967617498988
0.0614591579433463
0.0653132214778533
0.0636897277758869
0.0630513121751429
0.0654029468794228
0.0639701411842127
0.0630923398675203
0.0655346314165498
0.0654037936003152
0.0639127685674988
0.0649917283674145
0.0656189549793581
0.0663503253597582
0.0645073646195787
0.06382504693146
0.0638306516589666
0.0626789998357814
0.0646396199423907
0.0656483577145015
0.0647814866590451
0.0655202982662758
0.0656172077102164
0.0684830928653015
0.0698866559203161
0.0703694524241848
0.0745153790605316
0.0732200922093402
0.0754987725404442
0.0773265631338507
0.0809763176192656
0.0833001834029812
0.0838633679978001
0.0857698341713372
0.0875505103667387
0.0885163341369977
0.0895708080488368
0.0926061508825107
0.095052564870005
0.096917564959898
0.0975183002131073
0.100034743918832
0.102179472210701
0.103843689260285
0.108757966616514
0.107298553613883
0.110287836496981
0.11168058874342
0.113274271999279
0.113191969394311
0.114771137381327
0.117191263745184
0.111284702703954
0.116773302556114
0.11757670429746
0.119079311244081
0.116970471403335
0.112946446097989
0.114826765381899
0.11385350999477
0.111655682692892
0.113537191784578
0.112174414997421
0.109138671964157
0.108428703486978
0.106937312165042
0.105299362937369
0.103565547644735
0.103566315990544
0.104874975473436
0.102645197101733
0.103050300593002
0.103681360422126
0.104207736033997
0.106863854289812
0.10475100134417
0.10494312150001
0.106663492509104
0.111366211293949
0.109629771247815
0.108392921663675
0.110103092280797
0.112013147386251
0.111246925561798
0.113963041090815
0.114927459960639
0.116671826140068
0.115704652490736
0.111135714487835
0.114829704130543
0.113463514854961
0.113093779595293
0.112753885077504
0.112685584942722
0.111797212454811
0.111908661447216
0.110857026293429
0.110300509507204
0.106035611892508
0.106342273897991
0.107498181948528
0.103052969969472
0.101955170616537
0.100894354751733
0.0994927907873483
0.0971945096129709
0.0953855623127133
0.0936031092924897
0.0891486675908384
0.089627440965608
0.0864997402948485
0.0814368522833486
0.0766690791607833
0.0783446520938161
0.0727490918978146
0.0658094232921859
0.0636265484330567
0.0594790137994966
0.0535538740665931
0.0497966545410818
0.0458474001509738
0.0373180076435956
0.0366922863530582
0.0293406381366468
0.0262652573637151
0.0169134569797963
0.0169744008815402
0.0140556457868955
0.00920523805008883
0.00616811202931711
0.0055068254801248
0.00597509660041307
0.00282476560734695
0.00511037781502393
0.00485768188909821
0.00740985529908641
0.000945873187241219
-0.00141297918331367
0.000184538991946012
-0.00226909433373454
-0.00257387784629755
-0.0035923190792135
-0.00426462958322263
-0.00761747669710173
-0.0070488882770622
-0.00990081742960944
-0.0091908610775677
-0.0107132014454579
-0.00953797061564804
-0.0121956900140376
-0.0141760685287983
-0.0153817500821086
-0.0156350285864211
-0.0165862601385408
-0.0163195852377782
-0.0200542211366583
-0.0217268424278532
-0.0206937288681553
-0.0222259852485342
-0.01856292510337
-0.0194826375418378
-0.0214347613819831
-0.0184580267820578
-0.0190084659723109
-0.0192895634299673
-0.0190709808599901
-0.0184024556335428
-0.0155520333903404
-0.0185867387624625
-0.0177034612155539
-0.0179071910324323
-0.0150477293317648
-0.0147616482607156
-0.0124965880349641
-0.014247901696103
-0.0131697674961606
-0.0135267044327542
-0.0116081716165291
-0.0159199767062063
-0.0129041423401356
-0.0122453399621546
-0.0141743778256582
-0.0100247592662443
-0.00925762003495052
-0.0108032126011958
-0.0100502956277597
-0.00975289204878411
-0.00922366481778985
-0.00923930468600222
-0.00932723639946003
-0.00416629855416727
-0.00720606464298033
-0.00960547480347205
-0.0085587899091767
-0.00858162753021385
-0.00718570710438605
-0.0096253935731552
-0.00982810178675428
-0.00959926724264385
-0.0115650232997299
-0.00967437223821625
-0.00764731141844084
-0.0112730451542519
-0.0129917922974737
-0.00897979547121209
-0.00888976275902925
-0.0112959309989598
-0.0104202814957796
-0.0115605889029348
-0.00486092544621555
-0.00880568376040062
-0.00805219452333397
-0.00880528680852761
-0.00716959039833892
-0.0120614676045798
-0.00731489590627431
-0.00798452321135182
-0.0103689519908326
-0.00462459853146704
-0.00646359084881939
-0.00733960679522106
-0.00757102308174231
-0.00511047056652416
-0.00793833465623643
-0.00810513526142812
-0.00540548636187647
-0.00724974337589021
-0.00659677628314105
-0.00819648078681935
-0.00717368335618787
-0.00286606188081783
-0.00464049612127483
-0.00549030846844211
-0.00314612965940944
-0.00408515615316504
-0.00164612428928792
-0.00105755667529619
-0.00301698599798808
-0.00572569302022569
0.0026164729965284
-0.00418658347179705
-0.0056066307584087
-0.000745537899598372
-0.00137581278460507
0.00306673194507769
0.00167253116456512
-0.00117506860920379
-0.00275377137753446
0.00282897276922241
0.000707555720606479
-0.000353240386873112
-0.00126701939550777
0.00224711516522691
0.00353485383360573
-0.00052844970930064
-0.0039010870465664
0.00178399883113533
-0.00196146409691985
-0.00646368750235097
-0.00071974515298558
-0.000581577407710366
-0.00503542814917955
-0.000499812818323506
0.00216231513932201
0.000149735995299804
0.000204122700160632
-0.00177262905287983
-0.00162273778674254
0.00324253948344008
-0.000677978352582037
-0.00436268224306177
0.00296181862069624
-0.00173435171904555
-0.00106244340451196
-0.000461422243746921
-0.00398549260818554
-0.00229371742986648
-0.00480961740940294
-0.0067949933886072
0.00181849954524778
-0.00387869517570962
0.00311856469771269
-0.000993955643610114
-0.00766124592200499
-0.00229116641331109
-0.00557062056344807
-0.00490541246386185
-0.00574862926712718
-0.005787534579208
-0.00573111395393642
0.00206833198853086
-0.0013542341116715
-0.00019224804837755
-0.00364033505034906
-0.00306352340790692
-0.0110593829864915
-0.00680355219330402
0.00246739326340544
0.00275093827805995
-0.0110020878851797
-0.00950489075942773
-0.00217141422165064
-0.00417256007043126
-0.00222191530701538
-0.00699707507701815
-0.00855225425681365
-0.00231988182888478
-0.0123060299981209
-0.00253601646235866
-0.00180633078712318
-0.0100215538422096
0.00131471890937367
-0.000338549310578275
-0.00904097258255341
-0.00632891020958761
-0.000619595863242932
-0.0043749400763848
-0.00800820304712328
-0.000592162547167548
-0.00728427384320081
-0.00662907970421132
-0.00699570901852825
-0.00113846082669584
0.00415770478886407
-0.011042310926319
0.00436193528068041
-0.00425425236804488
-0.00458706706151166
-0.00257693988432017
-0.00620956851318654
-0.00339437922035504
-0.00500009512632759
0.00234310315997048
0.00268592405828246
0.00368240580358286
-0.00352927585186591
-0.000574819503347657
0.00631391787196734
0.00451118735127721
0.00307311482991748
0.00503039392629599
-0.00860915023250808
0.00432048019840275
0.005168515209822
0.00572303865407434
0.00245372787440158
0.0048416235106618
0.000169066343586085
-0.00179905663512123
0.00535654289572861
-0.00187956751003398
0.007608153336918
0.0160274501265452
0.014671155637846
0.00366142929148763
1.98814131128142E-05
0.00910452021930852
0.00924697905056028
0.00822330681376022
0.00721287411330298
0.0113565791739036
0.00933112964862563
0.0075823697872642
0.0202291459043807
0.0128676505135072
2.76606320556681E-05
0.0214744413719801
0.0252842973250717
0.0250311809981663
0.00318003829172057
-0.000313254566764394
0.0029792028255764
-0.00348283202227629
0.00813600962465011
0.00901065780138188
-0.00622315403036407
-0.000898255313052119
0.0040378654249887
0.00137300314160866
-0.00656349168480696
0.00101583448785715
0.0181208650318272
-0.00521241242664127
-0.00472906072808709
0.0111080204735013
0.0079927419510096
-0.00680571288138105
-0.00390184430964238
0.0113874876854489
0.0083000674001733
0.00130811263705736
0.00457490522309563
0.00992526707609868
-0.00164668295782989
-0.000263076442970822
0.015457610346091
-0.00713652007129153
-0.00638698758093099
0.00649112771083257
0.0128932794816547
-0.00787100177267035
0.0019373233324868
-0.00343504118510801
0.0032052473456516
0.00846530727137138
0.00611646693830968
0.00257396231060952
-0.00626462024409566
0.00436466002315984
0.0192314399908345
0.00218841460579382
0.0108348324741701
0.0155224995821681
0.00764498751092496
0.00574711623881941
0.00403010771801793
0.00210618876244835
0.00441064968570867
0.0136622321536609
0.00811646878591372
0.00876060409731605
-0.00594189209297805
0.0289962797772988
0.0140723614112916
-0.0095692260531805
0.0179750859121954
0.00727085002563085
0.0116853934181453
-0.0239100453556748
-0.00426665828182116
0.00095710323693627
0.0191913998630259
0.00895975947403705
-0.00250381590530946
0.0189704906094443
0.00309204606116085
0.0213501191420589
-0.0049294448388349
0.00889719989739604
0.0267659104374678
0.0120632042672114
0.0174264819327553
0.000330546509813732
0.0173187847727295
0.0161901166153177
0.0339924824080062
0.0108755848781605
0.0408608815906643
0.0111718397376667
-0.000363013010368856
0.0175793924221884
0.0604947407128302
0.00261599068479288
0.00894751305355477
0.0195133525806777
0.0304599024053119
0.0320026931773991
0.0186849227714899
0.00907839596712694
0.00594168656846562
0.0338521926471359
0.0456379661170039
0.0131241346593341
-0.00444465352728153
-0.0370814103184552
0.0596921958375827
0.0196823181877568
0.0420599034527586
-0.0160160440647951
0.0255401667455193
0.0102659952517094
0.0485037505944467
0.0402122344854586
-0.00237904128018079
0.0429004298639469
0.0446064342316988
0.0464038562032746
-0.00846364324625633
0.0588184455984287
0.0209323106102997
0.0103649136043431
0.0474574808500214
0.0420881672714651
0.0601484800787016
0.00444788361721654
0.070050658726138
-0.0987282913669401
-0.0252962274288842
-0.012268855004604
0.0505070787295286
-0.21064038400786
-0.0986155372372207
0.0410410975897333
0.00502573281242723
0.0558277739268618
-0.0429957447094974
-0.0131407041821592
0.15615435390683
0.0781891718963171
-0.0519206454889531
0.163648100732805
-0.0197383853075108
0.0585695893304634
0.11070713576469
0.014899451680321
-0.0245011968060512
0.198462799730924
0.0432885891928267
0.0382691664846194
0.158725627833809
