3596
4000.36533379555
650.420452594757
1
2
2
0.0421573766325668
0.0349314716403912
0.0389756339604637
0.0322314286550454
0.0446299685706885
0.0276890401591335
0.0397501870794995
0.0328548410694485
0.039146052010174
0.0313619468561333
0.0396203065754875
0.0297845100133212
0.0402205244936658
0.0283691531457902
0.0424622971339642
0.037471265777052
0.0441064701406374
0.034921154102591
0.0405186398722374
0.029240092697811
0.0420901481887904
0.0338279574841956
0.0417666338386251
0.033229268576744
0.0413522139620482
0.0358324828958407
0.0455369703718991
0.0269100781580318
0.0429618066358878
0.0291842855816625
0.0390992338256138
0.0296121401271044
0.0394557167607981
0.0247610834321409
0.041506628695743
0.0296649280788921
0.0395285914044641
0.0306690630794459
0.0380680577689972
0.0333699987131974
0.0395711581406488
0.0274314969144804
0.0526177666786741
0.0239114725288343
0.0415850055809263
0.0302820036951652
0.0429600849799151
0.0273315733250224
0.0340195215270812
0.0313262541261957
0.046498060560847
0.0350129244415705
0.0371319549217466
0.0324152196317906
0.0428612294359359
0.0372162461553194
0.0450238442698452
0.0290335907407229
0.0418421598145091
0.0348403577438224
0.0431018553735642
0.035141265301513
0.0398561007488929
0.0295666024475894
0.0414672254785123
0.0340391672830881
0.0394884108734668
0.0336249297020796
0.0439763619349642
0.0302218568764387
0.0404589843147087
0.0207336096165589
0.0500985894850303
0.0290650586455841
0.0500489066657979
0.0291932884600147
0.0377750306971171
0.024344468403254
0.0366580926953247
0.0257358628240608
0.0506626947651264
0.0253708645337087
0.0376590598928639
0.0236511063589696
0.0385728675048843
0.0334294291386357
0.0366377416486457
0.0255899046497036
0.0555545040880135
0.0275189526720374
0.0476267085612985
0.0251903165552137
0.0421535808439782
0.0184653437867275
0.0448651016520712
0.0233138688071301
0.0320662425715087
0.0311194011284431
0.0360583306865118
0.014479479135945
0.0438233975969292
0.0162170930316956
0.0664885204990324
0.0168144716633202
0.0438148396607491
0.0382995448812148
0.0228771629846152
0.0494179776192544
0.0431622756743686
0.0310605373022881
0.0329433472477602
0.0290971968198003
0.0368489273614196
0.0282781965510693
0.0364073607924902
0.0267865873125392
0.0508103094911332
0.0302338657710926
0.0427626888318741
0.0202696157389574
0.0299906990696915
0.0178509825358019
0.0686855653201629
0.0214022824828416
0.0515036206697589
0.0254651554885652
0.0341795014198925
0.019852389839619
0.0623363620363876
0.0254262580720247
0.0364735611312465
0.0200916248493663
0.039744983324976
0.00910103741296594
0.0600856717410058
0.0278834273707763
0.0380871228756119
0.0122390186606505
0.0251761712369093
0.050369887028464
0.046410060303545
0.0252420398533044
0.0294317749096954
0.0186158814182954
0.0608773945946417
0.0242096371360025
0.0274203089088805
0.0241909663675989
0.0451260425033471
0.0229670589574164
0.0346620900701053
0.0148493947484241
0.0362491228192915
0.0209243679957131
0.0134901112700576
0.00295726286179645
0.080799113102704
-0.00183294421545269
0.0869582018386574
0.0272420117980815
0.0399053187630211
0.0267931710729622
0.036357697360978
0.0253630194938172
0.0447507612444179
0.0187051893667086
0.0364408625533924
0.0429826032572303
0.0332698528531756
0.0242346238971404
0.0482962719230471
0.0218653124842026
0.0172275849728746
0.0444768905366305
0.052171489019074
0.00546712435318356
0.056215924310631
0.0374089846955243
0.0339003494125047
0.0225963967293216
0.0614691620652694
0.0305226157080765
0.0442871662552837
0.0178692633501897
0.0393753685901654
0.035806088493493
0.0491779245924373
0.0183421962339261
0.0413223715181606
0.00765194784588316
0.0349736402100974
0.0236877200232456
0.065977489591568
0.0173814790134907
0.0423319871290138
0.00192585293118674
0.0471227544157906
0.0442740755002074
0.0405858701897376
0.0243526705867353
0.0343065537847946
0.0220936511053269
0.0370574551049992
0.0250726524983052
0.0414942346196622
0.00472998888339635
0.0584353751890028
0.0397727038055619
0.0364362730236433
0.0225140800347986
0.0390041859211407
0.0102760572548559
0.0537976194810333
0.0520372668696237
0.0338580841616827
0.0337619881363059
0.0278870644305816
0.0370471228024267
0.0497965459808059
0.028794460195116
0.0414191719447035
0.0325585685102402
0.0387955627392535
0.0243139251776098
0.0409307697629855
0.0270658635312285
0.0363646666291249
0.0288286824141425
0.037542651029053
0.0207329262790727
0.0374766809008149
0.03037666022366
0.0395583745670369
0.0265387930629862
0.0369863430391915
0.0255356222240244
0.0546643680979151
0.0236483763183246
0.0449201611374764
0.0288383368659926
0.0401373461121544
0.0284184393746197
0.039386145061572
0.0282457459419468
0.0393478023433809
0.0134723555611829
0.0572684362346742
0.0345672507610565
0.0419862236215073
0.0220814587408251
0.0431114229642093
0.043543284707711
0.0363921387921184
0.0266264094740668
0.0351397355916414
0.0311042532594213
0.0262047311238767
0.0395323365763921
0.0426251119219062
0.0310134721798658
0.0391272773910586
0.0350882407520812
0.0355725101789252
0.0215010197679473
0.0172554005528614
0.0600612962599271
0.0467022435584587
0.0050035582939296
0.0720637411723428
0.0457741854856067
0.0485522706011108
0.0368075479453649
-0.0113934696706205
0.0560788385250951
0.0748570204853405
0.033777361467379
0.0398067711841137
0.0319197376807013
0.041527268375171
0.0316738823836256
0.0493154064834181
0.0231746316341447
0.0720434231744098
0.0354262738897166
0.0733677052389272
0.0255390875966379
0.0537405992275421
0.0473159147035431
0.0432462924612473
0.0361271673070992
0.0429668207357119
0.0309321330712081
0.042046442911555
0.0412730308090771
0.044811172708988
0.0387884179800331
0.0438076352255241
0.0442673133901165
0.0513233769732698
0.0398958155454625
0.0489318889594787
0.0467937590815137
0.0390660563418611
0.040170031134311
0.0426738146208971
0.0380033267272698
0.0454622961303096
0.0187003069351048
0.0676202416909332
0.048141043097885
0.0417133770363671
0.0578160643141958
0.049653461842303
0.043947630676594
0.046024269689784
0.0457118239455315
0.0483049762681588
0.0431205945207777
0.0323127995851798
0.051407516246029
0.0541559074359375
0.036371250351977
0.0514257121214587
0.03922324559281
0.0545580636897831
0.0431399061691431
0.0544809957338085
0.0427277982875911
0.0529078676131206
0.0359567847391683
0.0536640530894905
0.0569404777004573
0.0410038897401155
0.0625159086567595
0.0834805634336641
0.0499052653214123
0.068838583761191
0.0416147012837938
0.0691550738965162
0.0546885307401497
0.0592755409314134
0.0495389013711808
0.062882225050058
0.0637155510686889
0.0717811001130909
0.0426813816606047
0.0739531850600685
0.0738076091509722
0.0982762921562972
0.0597429241010327
0.0827547339476741
0.0537797190688632
0.0821415700013741
0.087500889225335
0.0689571682350869
0.0942919684344027
0.0737598522490903
0.0778565961171902
0.0848073456148336
0.0805737732722712
0.081506309663653
0.0802266117731997
0.0902417848297634
0.0783556263569195
0.0879438351242104
0.0880408085264449
0.0955685578473729
0.0826958139549298
0.111782326174902
0.103439038492269
0.100678984661158
0.0951371608186118
0.092916469119242
0.091903704032277
0.122070467259191
0.106728780645667
0.14806717341371
0.0820251640004212
0.144382795994625
0.108783222289226
0.13464395425041
0.106303833209734
0.132279050989409
0.11623035580158
0.136629686833238
0.121427354918562
0.140527463058723
0.12651843735181
0.145862383174111
0.130849573162067
0.149845742554041
0.122053825080318
0.161831779824861
0.142716948161515
0.158395262940571
0.139587586527688
0.156721312362398
0.160941736437513
0.197415865721592
0.152745943933894
0.164070255607657
0.161270413868947
0.167255464298032
0.173867839115397
0.177775044059362
0.179199029306799
0.179148286697168
0.187792058993469
0.20680796866103
0.171430621617638
0.2038405345549
0.167392991214689
0.217251921639141
0.188390412211935
0.206842275063119
0.214242408001166
0.236807662004252
0.199011673750011
0.227405364399652
0.228385704488936
0.220499725771275
0.233238911486866
0.222613288890558
0.221189754160029
0.231964559302382
0.231431441163622
0.243430971382489
0.233497298590633
0.258145006601018
0.248970149678849
0.264373929181254
0.243314227288301
0.256920214129668
0.258792950413036
0.275740969938508
0.251888347772946
0.29172659384832
0.258861201132618
0.28496568509615
0.261884509805791
0.297953097610333
0.295933274671591
0.305435066674791
0.298360163715315
0.299243786857205
0.279877671346954
0.311648316698295
0.298165495699734
0.307752734397249
0.310339757770788
0.32817034942048
0.325078303729975
0.336607671859673
0.318809963398125
0.342418640514029
0.321805234040286
0.353231539505978
0.330091182976818
0.369126383655979
0.34123275618416
0.377990805813756
0.344229695316104
0.379998726970566
0.377074922784764
0.383270701254339
0.372403572365163
0.378052809525424
0.366130036506777
0.403573414813676
0.386723999586147
0.402795372914185
0.40786654015522
0.405648170182734
0.400847450658001
0.406324393690789
0.400883358686081
0.424642250287318
0.408553735470372
0.442510158000708
0.437732885097528
0.465192097569673
0.432095629465046
0.45676679877196
0.442758572232986
0.45386411962598
0.457741738495007
0.485717190149861
0.461264657096435
0.499918354760053
0.474979111162305
0.500656286543609
0.46203381815928
0.492582640941608
0.468141670057183
0.499261401601849
0.482018969407294
0.524368229631893
0.507329871382608
0.534644774446345
0.497629248658604
0.55761136191847
0.472140243450226
0.557729158987815
0.512372559800476
0.541352993563979
0.534925380060815
0.582914776783778
0.527591997910389
0.574896450783973
0.542552061104966
0.577861861407052
0.571547035502695
0.590292979516083
0.57706022516407
0.61261621227987
0.552828858872159
0.629836421959627
0.590134388747019
0.611723972509444
0.579097243233214
0.618620545801518
0.609389843106708
0.671290263118327
0.604758532880488
0.666521504058266
0.607068777886694
0.67322949370789
0.600783870316153
0.641130865116525
0.643066057706196
0.672804965338976
0.626389571434986
0.721920283699754
0.65298250539183
0.719967905353195
0.672835795565512
0.710550609411696
0.682988912729168
0.717402664552264
0.686034565896956
0.751279396564491
0.681523269704457
0.738459681775636
0.713358196360443
0.740192310757865
0.717190521117673
0.750207744168675
0.70508419515987
0.767495018357928
0.725847058232048
0.76608792646302
0.719449167464302
0.78857771202681
0.71555820742085
0.80016289710093
0.734572046527837
0.782484109218381
0.761082107802096
0.841403293402542
0.767124222781856
0.782817030188548
0.797151567359229
0.822224597848625
0.772082450017583
0.782428972843794
0.793391511171664
0.863326696998957
0.78367671574012
0.860362574925906
0.838899343300711
0.84480861243461
0.826030869819901
0.878029640281245
0.819407400419575
0.886805637286205
0.837233169767039
0.939656848891569
0.826346740332269
0.936824631826364
0.837249630026693
0.931658194645001
0.934769534218034
0.969940741173214
0.843489704764727
0.950436308311399
0.926060690727908
0.926071723689863
0.86178422411104
0.978320853404122
0.913823047175161
0.98291345992455
0.87258183033069
0.955733587156955
0.935719603435022
1.01944866880606
0.947214498053716
1.04561582086378
0.946279838559473
1.02739220576162
0.872733879878069
0.964667144113666
0.942600844492283
1.08413137541641
0.884152210333724
0.997107433279276
0.94570551720028
1.08089656873471
1.01991457600135
1.00977507662307
0.922741878224001
1.01911745328571
0.995555207309835
1.0387957273462
0.993509966097796
1.11845353322769
1.00465776217281
1.07045368157952
0.986162549854372
1.14049168302035
0.981659607865174
1.15308072140198
0.995976179956002
1.10417616779091
1.02288103922819
1.15088882992156
0.992224509033732
1.10503920227618
1.01680092259155
1.09000573310977
1.05908345903424
1.16325390626877
1.05828206499776
1.10141300950098
1.04010437778814
1.13706605687794
1.1261595645356
1.17059254664262
1.08555249694598
1.18565518976693
1.07330173615956
1.27164159146723
1.01943481647393
1.14413794831749
1.13062156062577
1.31715251174388
1.08928732071847
1.20956128982366
1.05564004079303
1.20670030327597
1.17236159291711
1.24258135914518
1.13608237235289
1.22235403271504
1.18662886954448
1.28191824307089
1.09516584849688
1.33849915856679
1.17828918474532
1.23491169365506
1.16549636986174
1.31447010287172
1.19266192545888
1.26079743312917
1.20494521625046
1.32426652122659
1.26440374198153
1.2701889109876
1.1725231258185
1.36281183122852
1.26746440130621
1.33650351476381
1.20386324283313
1.24933461305807
1.14210524228785
1.25014746078683
1.0949285556058
1.26243705709789
1.21722143079461
1.43455239936374
1.19690456587192
1.37757565119314
1.39778729317555
1.36759179227956
1.25832250397724
1.29255848322615
1.15577216919034
1.37901399335414
1.23766321499515
1.37540045949146
1.28903875087509
1.43878392799585
1.19512040865895
1.39127014651425
1.15522977789117
1.26526199971317
1.16846026158063
1.3658087686598
1.28310042896813
1.35811378933244
1.19363037182445
1.33840043012132
1.21085278198147
1.35079445895058
1.19772289697016
1.25518986509339
1.24246908950405
1.30802248915802
1.24535794867834
1.43786249150447
1.31803068637054
1.42030935622332
1.22074459079332
1.40797327714282
1.2505525181202
1.3917589604962
1.36547980612203
1.46710419480776
1.25793080192808
1.2988942134071
1.28384914914989
1.43943392089728
1.20689487913167
1.26932053598592
1.19670371786679
1.32976868021368
1.25854883583665
1.31359715613066
1.252737755216
1.38578133695061
1.27445277041887
1.57113457251181
1.24514513061131
1.3569285896641
1.24658447984327
1.40711561068963
1.38735402132957
1.40275457679611
1.2523814082039
1.44233441879344
1.23684115022265
1.27694222488196
1.2507250965794
1.42293152877057
1.22761434321573
1.32685486712867
1.29732338269385
1.4564343207289
1.26899771655588
1.37280385843113
1.2897700503425
1.27174379340516
1.22438936106065
1.43055916858936
1.24102651201396
1.32537688448815
1.29826064290884
1.39888170192262
1.25449699550095
1.32837538598326
1.18273238804937
1.45869701713859
1.23480183696789
1.25342709292409
1.31746319194916
1.46331524191217
1.24688930524972
1.4319433611986
1.29211887384528
1.37837593296338
1.23418599161561
1.30471524734328
1.21350249501163
1.31410129722623
1.32345963237126
1.41834967770733
1.23576027129311
1.4660055535777
1.24955498068062
1.40553385937413
1.2757449316592
1.25159893997187
1.26110693757248
1.3316436635204
1.28828253482005
1.42747645232205
1.23095331204942
1.3512734527911
1.18559548483022
1.33127998245449
1.23969848429492
1.38732342397598
1.20288532166599
1.38324084699093
1.2609135954573
1.26378982930929
1.24173058369991
1.33111877856973
1.23683584494765
1.23614734656909
1.27329004388496
1.38084444627628
1.26307045652994
1.39582896666652
1.24505385813266
1.44271596702221
1.1934878214693
1.25720989637079
1.23390314852362
1.23468475496834
1.22397914558332
1.30347823083249
1.2378109316495
1.35039407167265
1.26003807749013
1.23484256454328
1.18915604666874
1.23631423685226
1.17721541235668
1.30650089128442
1.24423901749018
1.31263857729127
1.1762326727649
1.24940779172071
1.17031550901945
1.20526969037059
1.24496318016937
1.26881781505624
1.21599269709478
1.18571336461572
1.23216702665588
1.31285766702259
1.19357355249363
1.27723701208781
1.18456479183971
1.19243296265259
1.21935497708168
1.19066120609828
1.19287501240073
1.22503558007334
1.19436124358967
1.28887002432887
1.14218791052212
1.20468484665712
1.17339254386809
1.27487301379497
1.1640997174947
1.19277345433398
1.19636496239947
1.19870983111659
1.17736465846457
1.13191442075361
1.15214495844505
1.12989957565086
1.13537000010217
1.17470162595986
1.12743734576436
1.16092273554947
1.06994063026361
1.19622492332975
1.10219855548037
1.10148408241474
1.10286556764211
1.17030020217557
1.07653320981456
1.12591500842194
1.07211424218575
1.13242540363358
1.0396038958647
1.15806615855449
1.1121747330316
1.11928514871833
1.07041081072689
1.14045787313445
1.05461520315403
1.10380644642244
1.11757292920483
1.10263499687666
1.02957454708458
1.11675756350404
1.03981960135323
1.09246457582428
1.0225878104258
1.02426161480688
0.996928916450717
1.04693816909902
1.00861481564223
1.00157229012703
0.988526144647276
1.03810903764969
1.00889504389694
1.06422106945035
0.99871555857954
1.01463296351591
0.964102982041123
0.996373785894012
0.964849806397479
0.979606400403718
0.993288556214402
0.975504005175456
0.96726069070209
0.986667162849341
0.950527540572991
0.969516547470788
0.914789026928663
0.959115002092165
0.918182978727964
0.931178081262728
0.913530131653222
0.955411804107564
0.917079807934396
0.939749404867859
0.926366648375672
0.930439247664275
0.863298133862595
0.917811263013324
0.889052267224246
0.90093845078766
0.861819563769956
0.910897488835548
0.870128613270607
0.885711251174962
0.85185702693359
0.870336864860066
0.862145624411236
0.877665660974303
0.836189445327239
0.855193884824024
0.834363979161514
0.846165441728548
0.844598294052092
0.894010098377542
0.807278860990463
0.827687072673923
0.831704897604089
0.870958408414164
0.787254752074589
0.821750074295082
0.809625227911879
0.791767493571276
0.783590221052924
0.80088759421559
0.768559084619369
0.79753432911119
0.776684191833693
0.790930402377034
0.760075996977598
0.793578172174568
0.780984546823672
0.773446422365277
0.747158302462993
0.766630412284324
0.730935670649045
0.747245493796554
0.720729514787643
0.760487895965491
0.730466510058424
0.747812406638309
0.725992716034437
0.733620314617936
0.701545051696827
0.736044332535906
0.706279087766185
0.720619519865815
0.692067676260861
0.710297009361319
0.692379275866263
0.704978080491924
0.666971593882985
0.699241481831955
0.682844301334314
0.696793082955689
0.66824942718435
0.671196024044449
0.657838325388087
0.67452478060129
0.653984923848933
0.670257676715759
0.668089948298886
0.663378681269869
0.630078623485522
0.659872346873013
0.634800808630217
0.653687095272517
0.619563498887156
0.639651296652935
0.614638851697558
0.634453737298361
0.629777653746579
0.632124134538667
0.608662945101952
0.633497608621488
0.608464526808367
0.613632383603072
0.601641951645238
0.611280127695215
0.581917825510413
0.602574052330944
0.589005930789624
0.602149716103705
0.573761967924881
0.590030939169508
0.574702125976326
0.585462532440009
0.568620923731972
0.577077661700148
0.571663222633309
0.571816391814917
0.55672523671142
0.561554445047057
0.549392813738768
0.552941984531979
0.547568033043697
0.556485517793872
0.539737755958819
0.5399238244523
0.537085485002301
0.533492857465247
0.527926096668749
0.537423651033219
0.523830724229502
0.529358650470295
0.513163505044019
0.523986127195635
0.508688295154666
0.520624165922194
0.491534134593419
0.519683226430589
0.507224229783657
0.504700991025542
0.487280376416332
0.508975464147595
0.495454523718267
0.507665565735589
0.475730406944686
0.489748651710215
0.472579868536159
0.483813349303379
0.477118485008114
0.486927130935105
0.463354937658778
0.470776037474196
0.459976340406708
0.470382736525644
0.45736465312556
0.465885974536001
0.449971234861064
0.467265717025316
0.448197790356845
0.459461730681926
0.44092361647239
0.46402926389478
0.436197211468514
0.439873510075919
0.436507901998137
0.441857537297576
0.431833228217149
0.436212546855323
0.42654240287173
0.426975054243736
0.426725428835617
0.426156085698746
0.415572217651656
0.432744507399983
0.418925823146021
0.424461949280818
0.410692534007223
0.430534977243829
0.412907002271776
0.417696452424734
0.400628938508268
0.419131543496802
0.404221928455068
0.414260057487534
0.405170923359523
0.408586847912911
0.398038087231923
0.412559511856392
0.406953032940137
0.411406039725222
0.396173829670638
0.415475338614062
0.398755422510599
0.405770049170306
0.395955692529235
0.406042689941455
0.394838277694999
0.40487608181959
0.396121811731369
0.405079394302203
0.39719183295872
0.406477972767845
0.404109123066423
0.415444337018559
0.410061053202123
0.415017160201737
0.40563390561858
0.413355764660042
0.405015997896736
0.415142974485733
0.40050773383182
0.418687609784525
0.411130093552684
0.414669428382939
0.411802346200755
0.429188198615854
0.415458814334753
0.421013030521919
0.41201868989982
0.426714671540222
0.42284070902416
0.426296346415936
0.42270098829351
0.441994260570916
0.42898376626465
0.444619685210024
0.435101338994271
0.442522699884156
0.432533947959018
0.438756966900121
0.439525187551117
0.45885923749911
0.441737674002633
0.453525702859257
0.439421456534954
0.457622208901538
0.451945381165492
0.468168205509158
0.452665507837703
0.470384595213496
0.464462228778309
0.474730278854343
0.464831309732454
0.482133485635439
0.475661578283401
0.48125106320563
0.48449333420938
0.490146059518549
0.489651159511832
0.497450935918904
0.494981772577304
0.500096073450355
0.50297800400116
0.513091629214673
0.50540509900983
0.510350383050291
0.513390292271226
0.51844986057598
0.506289271095338
0.521111530151091
0.516223554827123
0.525093880506419
0.506004825667561
0.529245425346285
0.510017006656528
0.533575740412573
0.51330493906326
0.52812845737266
0.510638468176249
0.52401743438349
0.508994010677581
0.518338590896175
0.510026707130074
0.525301409813545
0.508635579881661
0.518012423880243
0.501079761936511
0.51068577545104
0.504655240274477
0.518643977981689
0.510281193364045
0.505428293549785
0.502562538804597
0.506795986866338
0.500518218969678
0.506844038951602
0.500927489270465
0.510141669521188
0.497762561388671
0.516214704545963
0.510571810467022
0.509418753465559
0.513023155507936
0.525124228065181
0.505653987575886
0.514691460544051
0.505961833721012
0.510074834058812
0.508749471199533
0.523701825383672
0.511978877374247
0.518201871126171
0.505137358800943
0.519790352636259
0.50916071413936
0.520552801258521
0.503009075994268
0.530406821816408
0.51026677033921
0.507311910399038
0.513965484461231
0.505893918175433
0.50840574340718
0.501092646175449
0.496637715185259
0.508419444896106
0.487828472525408
0.515296541856579
0.500698498590414
0.496161387384793
0.489134450119573
0.502669305895294
0.484067165494634
0.487298274099232
0.478944272293953
0.492412424494444
0.473206708373334
0.473983547623798
0.468980999939775
0.476224586194035
0.468703011881289
0.467876082688179
0.454291370207985
0.458530974313503
0.445349293041925
0.460452992488655
0.443266852090909
0.452538700796766
0.441483474792159
0.44054056463732
0.432018346234012
0.435422505866918
0.424987932810051
0.432230041257275
0.418824432829679
0.423189469611354
0.412500893655307
0.410070569925839
0.40528067705567
0.409544421508967
0.392531381991448
0.402856310673621
0.40073333689411
0.39565691728091
0.38375818500723
0.398563603921754
0.379535454248096
0.381136274433624
0.377187822317995
0.378302147236773
0.37349308456252
0.380708324608513
0.368673248987108
0.368199210539335
0.359131592432078
0.368788696926803
0.36318584003346
0.366335710890074
0.354486744561635
0.357586691193247
0.350992687454671
0.360497888677531
0.350805257276033
0.346846442598275
0.344693114843809
0.349301175196213
0.345796925605843
0.351513694723913
0.334931030983456
0.34521695872394
0.333331360251945
0.333438124656836
0.332709252986091
0.337385781680548
0.331523395725271
0.340196373473917
0.3276400005415
0.328455380144085
0.323148286404844
0.32791312412857
0.320494565980635
0.323331762083339
0.321730280480765
0.322496970681662
0.316571823852293
0.320294345251968
0.309368931614237
0.316848750465636
0.309435695978491
0.310760100453263
0.307721099881196
0.313837884352416
0.297502039488719
0.30906238993705
0.301246849949923
0.304112006823715
0.301029769693218
0.307800616124917
0.298780747709105
0.30170668022722
0.296077219272681
0.297493127855529
0.296747734943776
0.295837995792677
0.289095744397003
0.293618144770183
0.287285565946552
0.291467858074874
0.28730980491521
0.290909443138939
0.285428005063916
0.292706600865181
0.283890171503515
0.289478937956567
0.281073265807957
0.29037795814498
0.279685644068493
0.284306523513097
0.27632545168756
0.280875780126145
0.279011236846578
0.280341975613938
0.277261398426887
0.285865252553225
0.273873651423745
0.278483294479862
0.274344466510586
0.276369200661637
0.271571270686236
0.273337094029364
0.267453934630879
0.274294021357232
0.266851399174123
0.27395115345856
0.262990404004089
0.274488134018124
0.264877544681271
0.265375644089785
0.259918314839017
0.269084924474234
0.262210895856409
0.270668709332545
0.257093556542015
0.266319062118786
0.251928300653836
0.262238534022783
0.257136419103444
0.262475818184229
0.253107913413484
0.26177628059769
0.252325019490125
0.263579816537358
0.256757433163423
0.252650234275033
0.251113427815011
0.254893930093332
0.255230947858173
0.260154490068168
0.253313453334479
0.260576931153184
0.251881102730631
0.252349522157333
0.251923116661956
0.254343951897602
0.25391777172485
0.252285432634178
0.245063534651527
0.251703147372936
0.246881982701272
0.257227754705827
0.247798970480743
0.250307447094635
0.247686133998892
0.251776964950249
0.247253632756378
0.243463607231399
0.246368001379165
0.251310594420264
0.239066400590123
0.245698196836008
0.243153945981412
0.246195913515166
0.241420034755782
0.246222484887344
0.240099080737827
0.239959760147805
0.235499390011767
0.242456576959275
0.237867085328421
0.239413561037297
0.235887269210257
0.240759351901126
0.230307090333048
0.240681179650701
0.231893548227108
0.234057265566995
0.230500623643348
0.236916469013277
0.231128040768852
0.235452928243493
0.230679936166791
0.232263301932433
0.224841040636081
0.232183935116747
0.225932484133015
0.230526193539692
0.219882652281827
0.224637703428801
0.22458082894656
0.225900701088051
0.223691253633136
0.224069555357801
0.221403648775762
0.224295727677958
0.216172879445037
0.222727447154533
0.215478218863881
0.218921043190478
0.212367681630299
0.219711321582844
0.214627775354835
0.216577586005504
0.208609084885583
0.209368898118106
0.210409933842501
0.213011259112847
0.207016025672527
0.207938494129176
0.205223658090699
0.210476329352593
0.2057673993787
0.207285404299619
0.204587805614489
0.211255478336479
0.198509864368338
0.205211780846205
0.19844119195135
0.204249327343421
0.198558880685924
0.203514252521547
0.198755239087944
0.201310046724186
0.196006608745145
0.200263066963039
0.193056946933126
0.199299476711042
0.189370515193183
0.195504585660146
0.187751788878313
0.190839293961856
0.188285306897632
0.19090047501119
0.186667932117657
0.190514581644105
0.179948210656566
0.189019257884551
0.181473652898254
0.184509652305572
0.179832405659083
0.182622908150779
0.180087137482707
0.183738961434965
0.177869727942713
0.179996960591164
0.177858130774357
0.178119066000966
0.17455327624575
0.176811560699225
0.169246745103316
0.173260810254914
0.172162135146362
0.174058585981461
0.169559071152715
0.172531191512685
0.167007109531981
0.169462734863781
0.164491981563377
0.164503286890993
0.166609015597885
0.166555645239685
0.163263732517011
0.165078111457739
0.161363000548854
0.164815350150686
0.160796464075338
0.161027366585183
0.158467926525258
0.156974595979202
0.157166881327559
0.159104475610429
0.156155844475283
0.158768625649435
0.160986815684588
0.159305448721559
0.154934031963582
0.157585389239501
0.154274567478744
0.156373064416366
0.151135345096474
0.15599724820398
0.150932491645055
0.151896294455633
0.149873117494758
0.149353745263602
0.145359599136128
0.1500529014246
0.150646393160696
0.148524946452641
0.147226350045438
0.148646493986577
0.145072478407116
0.149709408428313
0.146922231416893
0.145646557696447
0.144512029412004
0.146510763678653
0.143507521290856
0.14402413073093
0.142854400303307
0.143395962175736
0.143950534296459
0.142864240944327
0.139341934353329
0.142366728375022
0.137738253888232
0.140909360944856
0.136902629985857
0.138449649575839
0.137379911330011
0.13803619303872
0.136757081847935
0.140005852681784
0.133660521610843
0.139916121506272
0.13400066510343
0.140425800219472
0.135805172035913
0.136921964611146
0.134977163729201
0.134413256375177
0.136638913189862
0.134596789322378
0.132888489779392
0.138499112133642
0.135502259032588
0.132436978703243
0.130795070021127
0.13553424267027
0.133126034470316
0.13537353977504
0.131860631176478
0.133850784559201
0.129248736136669
0.133986975059775
0.130026038557241
0.131545780845977
0.12561175088636
0.128687690578926
0.128784232671364
0.130582483637333
0.126609186155482
0.133802505897293
0.126421931964651
0.13150858385638
0.124769509757409
0.130535580965365
0.125878163243377
0.129546168239635
0.129057586066825
0.12804856983504
0.128006086360086
0.128080550677226
0.123750336978135
0.126856425349961
0.122840373584986
0.124374514039236
0.121177351277293
0.12379758000206
0.123269977190005
0.124216380655132
0.122950278425471
0.12443831656333
0.124142645797849
0.123855353171254
0.119475708842051
0.125619001598294
0.12177614834063
0.122489020170249
0.119500460504747
0.12104358403662
0.11677895365219
0.122188219223105
0.118464485712303
0.119357096482568
0.11893582913523
0.12022707379028
0.117523456384794
0.11680899337494
0.114610488035717
0.119662637986786
0.114752892583793
0.116347709503704
0.114188733475875
0.114257194071781
0.11559455867763
0.115703524328407
0.112087282555375
0.115306056441542
0.113266505253427
0.114296478479778
0.111368132020998
0.1135198117646
0.113369863824005
0.116444451034117
0.114751576393998
0.11361091182884
0.114879427130224
0.114446269028761
0.113137589683213
0.1127482695595
0.10961337920021
0.111501145263058
0.109279279777708
0.110414702711566
0.109357814637027
0.111861865295438
0.108400229092722
0.111046528655426
0.106595917066454
0.108006202374027
0.107351894557275
0.112340928638737
0.106636952525043
0.109614590075078
0.105968133729022
0.109184630659037
0.104764745966754
0.105442286943845
0.104979830395418
0.104503055956196
0.102828937974322
0.104556809181754
0.0976796047326529
0.101726061771693
0.10381681443298
0.102001068567479
0.10007630117845
0.0997275998560707
0.100540473902414
0.098806440481564
0.0974772887328781
0.101195416473576
0.097961047767324
0.0955872893028496
0.0989830550142719
0.0980539571559432
0.0949138708630073
0.100308370332547
0.0975845971878659
0.0959919584906936
0.0944635650021831
0.095042656299635
0.0946668958139855
0.0938941501729545
0.0926341748221566
0.094069680183197
0.0895299821482683
0.0951564675604737
0.0938061563280626
0.0924767573984778
0.0912676991036868
0.0927664740652452
0.0910775448519706
0.0899655090135984
0.0917331581564723
0.0917716095720266
0.0907543795267465
0.0906375699896284
0.0883667704584881
0.0881929636433459
0.0894761424461434
0.0884098845215664
0.0894523769716993
0.089088567569112
0.0871306021478884
0.0884088434214675
0.0874247299486389
0.085329228542125
0.0874830997909176
0.0855118331587107
0.0846313677243519
0.0859068376108843
0.0852865216492116
0.0860994053109197
0.0847994887289035
0.0832957319514216
0.0833924183544352
0.0849274263615147
0.0810774542569224
0.0830903073427765
0.0824619978216353
0.0822767632423947
0.0803987929349617
0.0799730317548137
0.0809867337321143
0.0818146165045555
0.0817536970564772
0.0828687373774008
0.0800904843772295
0.079256557035679
0.0790204029106707
0.0783017845338127
0.0789695974588474
0.0809976418452706
0.0805320132511266
0.0779130330073251
0.0795623334896324
0.0788797389758909
0.0752879803524762
0.0779444514243989
0.077547013515321
0.077790616299629
0.0767313294282811
0.0772493683936451
0.0792892536149453
0.07709451088494
0.0785748285672536
0.0739957820898896
0.0755942868806297
0.0752312909091878
0.0766020240049494
0.0733439473163833
0.0770588211542374
0.0755436604249582
0.0748109088676639
0.0737386236557923
0.0762262828356771
0.0750332262372271
0.0774298001776645
0.0736156292997842
0.072800011725766
0.0720504913538314
0.0742539367241749
0.0704833009878966
0.073591703374181
0.0713106053270904
0.0703887524588737
0.0678170206001114
0.0696016296551377
0.0652647122768944
0.0692934898323329
0.0683196446282904
0.0782010940540461
0.0676982297430358
0.0698729579003932
0.0652048989377097
0.0729463279719401
0.0666622608909622
0.0728172760742828
0.0633137323169013
0.0739193456151731
0.0636775092869649
0.0727763248334085
0.060380339284837
0.0756063762721158
0.0596111400244426
0.0743835925458614
0.0655250247104096
0.0728776517450125
0.0687690284003955
0.0732640455176437
0.0659736061256198
0.0785345862692228
0.0617717915755164
0.0720804615659924
0.0583400743302665
0.075815615407009
0.0541652428310905
0.0823936219820808
0.0576419524652004
0.0787903200093708
0.0536925090857468
0.078753392859655
0.0515946855047592
0.0765473651067788
0.0517243008334059
0.0818134225036735
0.0512590802437828
0.0899078263383513
0.0519722170249117
0.0881013215851818
0.0498562446096526
0.0800679567062718
0.0476305316713765
0.0866107316604772
0.051717914566574
0.0888901182672711
0.0477073057548413
0.0768517122206752
0.0611615771976008
0.0812242057956168
0.0594443867264037
0.0637186495325129
0.0743450941749106
0.0636284113318397
0.079140971908634
0.0468330458618742
0.0930170896093498
0.0456512392493715
0.0934230131294178
0.0447407838106932
0.0979909903581077
0.0435703652240763
0.091747649802761
0.0502559517574676
0.0813237021187897
0.0586649725939436
0.0750397345233844
0.0621910094931148
0.067827060673538
0.0671894225988066
0.0694557429440102
0.065486020854382
0.0737586132276064
0.0598187433697893
0.0728700026308415
0.0591401582185577
0.074685185756009
0.0611119102824242
0.0710528555941455
0.0628956515638749
0.0709958049085195
0.0633947189657716
0.0720048319501215
0.0638560917981485
0.0716840309167614
0.0610991242058543
0.0703129513951969
0.0629295292833956
0.0720085141744591
0.0628074363173929
0.0713145886971742
0.0658169378168826
0.0710010379697302
0.0627774993191613
0.068385661971083
0.0641796541570561
0.0737360399462085
0.0650411954202242
0.070942269711982
0.0649728237770354
0.0710763137749038
0.0636205779174258
0.0707129823094561
0.0671593864840366
0.0714495886203316
0.0661857462192283
0.0735156780270238
0.0649141783341116
0.07070348771747
0.0649234532155486
0.0691183258475511
0.0660446732577183
0.0723315080894991
0.0666313606605514
0.0732291518727972
0.069415466389921
0.0729216556239746
0.0655079317280161
0.0701309879807451
0.0646622948010744
0.073572199637641
0.0639164097885281
0.0723222682688373
0.0683398072848064
0.0713553809384135
0.067197797615719
0.0705805214268506
0.0660555791719743
0.071872481096246
0.0665514347020729
0.0738380432372825
0.0656499194527581
0.0732377321325488
0.0679253694486714
0.0708591506986788
0.066986001479422
0.0719166053144318
0.0675691317938492
0.0719539186145994
0.0678819906523615
0.0743430112738753
0.0668657870615215
0.0718955925056085
0.0676082974195973
0.0730284850491143
0.0704518022589466
0.0720641601976943
0.0663733185979607
0.074547460043205
0.0669650714087511
0.0738763680270156
0.0686953134227783
0.073895878712875
0.0685976128512531
0.0716863503364838
0.0661776465844382
0.0722563928336504
0.0697026596226477
0.0759871967650174
0.0682143465190722
0.0729954813163979
0.0691223737584491
0.0742555564991836
0.069348781867498
0.0770451153347573
0.06998686129603
0.0755809601689041
0.0739103466844719
0.0757220415813237
0.0703609869932386
0.076104723443284
0.0720293952575592
0.0759466292402255
0.0707457346396635
0.0760157349950343
0.0743264638170843
0.0782035464151997
0.0744184932484662
0.0770273609943053
0.0719331778396178
0.0761200212675626
0.0735720886276431
0.0776605008219875
0.0719828986462926
0.0777581897157917
0.0743155384167062
0.0769345345892054
0.0732737297277463
0.0769983256932759
0.0717507273945166
0.0781215375996011
0.0775328171544366
0.0788903959332128
0.0744625782716979
0.0792681927331124
0.0742908044695735
0.0762144906641365
0.0733194084552852
0.0792145628527781
0.0738491793888551
0.0773694756578288
0.0731598170165604
0.0799443781230576
0.0775679173028633
0.078330166968968
0.0743418499300172
0.0807538567599054
0.0759976385625928
0.078661604591518
0.0763668265285411
0.08144710541098
0.0739252839595105
0.0797985740229987
0.0761433287893954
0.0773268867303341
0.0756819452773135
0.0811394278696669
0.0775964448646691
0.0786792300301893
0.0754941718584688
0.0818886757561184
0.0774477412633826
0.081095418353062
0.0808865978571962
0.0818916262739902
0.0789252623178801
0.0800643230617297
0.080532647835065
0.0816851933093309
0.0783553604510696
0.0842963631907158
0.0787637862010117
0.0809889235127674
0.0778399912782398
0.0822839898985825
0.0782184206532632
0.0837678066731883
0.0811194169290242
0.0815039069088729
0.0769088829003928
0.0811280897718626
0.0793633913119323
0.0799392595547749
0.0770853295553718
0.0807833221039859
0.0771141445901995
0.0802965248072234
0.0759974323608516
0.0817264077299732
0.0796553675794476
0.0819149351805983
0.0768508072724586
0.0793257662681228
0.0772978537194017
0.0796801876232406
0.0754399875091993
0.0770829441422573
0.0767069017111609
0.0811985830157635
0.0739730466289426
0.0775399474909423
0.0743512167050207
0.0788488987967238
0.0725466960207118
0.0785264320803655
0.0740211294928344
0.0774608459235869
0.0763609359511399
0.0790654504276532
0.0736176702554409
0.0779605841276383
0.0743180222211067
0.0774084810639417
0.0729379787976481
0.0760238955344906
0.0732158800774263
0.0760522215785239
0.0730174717364472
0.0777521903792605
0.0743266118981236
0.077444174886946
0.0763524938668433
0.0742490638998255
0.0715892889860231
0.0782195555335847
0.074738856818651
0.0744745783017161
0.0734691867776147
0.0750788270992829
0.0736891213691747
0.0751468254950019
0.0734126547825099
0.0750586345683563
0.0721471733077401
0.0752865486919038
0.0715420228022917
0.0767711351104197
0.0728331996035635
0.072812533751158
0.0717148170656426
0.0741508974636015
0.0710584825600427
0.07459033544599
0.0723497024743923
0.075164134159392
0.0716180410028916
0.076418165671402
0.0698680333325963
0.0712506329397316
0.0703158680994836
0.0735854959471388
0.0698121426790437
0.0716171316832683
0.0702638839457474
0.0735002803158526
0.0699780300808486
0.0705750321953013
0.0704271472236305
0.0742807542850242
0.0688506890159829
0.0735818104877255
0.071267194656727
0.072501113438276
0.0673629857412595
0.0722912141995652
0.0690953369651197
0.0722438450128734
0.0692121633240353
0.072318062820796
0.0706173325625029
0.0728320184443055
0.0697938688454972
0.0690542681918144
0.0680002536765579
0.0699421559004627
0.0684776920892091
0.0712746621326441
0.0697329324748504
0.0698553947971904
0.0685732713716803
0.0705869525208112
0.0686574613132085
0.0709221080766292
0.0671379821325191
0.0689413734544047
0.0659508626504782
0.0668902059908882
0.0673505357044175
0.0686130557504338
0.0670435071137305
0.0681931401214588
0.0663570654327585
0.0680319958815602
0.0630363404619892
0.0676200139432563
0.0654371960763735
0.0675997634020201
0.064961454063768
0.0649658108662574
0.0643321554391012
0.0656317871416004
0.0656129005903627
0.06733649511461
0.066278299334574
0.0661912301540481
0.0634106494859761
0.0657034325504486
0.0634297953897711
0.0658870465518164
0.0607080732466156
0.0662727900326233
0.0597683879279186
0.0641380749316082
0.061568133210661
0.0641724547581394
0.0596975532430496
0.0662454257808802
0.0590661034761746
0.0638910734212203
0.0597701063021884
0.0621097244820504
0.058437366313058
0.0609082063192842
0.0610633198951235
0.0613107858152565
0.0583366398129272
0.0603165871031962
0.0589038360392699
0.0595270585256582
0.0581050732346054
0.0619041498295219
0.055172980370283
0.0580387421221774
0.0559170872980236
0.0601332190195306
0.0536453945277017
0.058036389933243
0.0559047498805505
0.0592692740465681
0.0533460194595015
0.0607564174616566
0.0552709838540838
0.0568360833444369
0.0506586158055508
0.0581220549770342
0.0602095390583167
0.0557514160863208
0.0571029116091679
0.0566194650926994
0.0562502434694214
0.0559455196974471
0.0576316356915337
0.0534128776610699
0.053270841738154
0.0564374724330369
0.0578042210298141
0.055166043770304
0.0541185154328441
0.0556953292681507
0.0546392715591259
0.0565865290691949
0.0541059980598419
0.0549305546709298
0.0535818619405595
0.0540911230083897
0.0533063558674077
0.0535563894258248
0.0527126138582022
0.0533680389344677
0.0526083985166158
0.0513232995855501
0.0570014999644209
0.0569963893919611
0.0526204770027543
0.0535957426955591
0.0529154080743885
0.0536912484530666
0.0537898537080893
0.0539493574962861
0.0499608748118929
0.0522208842093643
0.0536914147269963
0.0540853844290225
0.0488434212797184
0.0520019589665743
0.0506166289256531
0.0525458564332035
0.0503549868660529
0.0520480268098059
0.0516630982691956
0.0515741997047094
0.048074584166085
0.0500108561554721
0.0496362532348477
0.0496614047663177
0.0518270766829574
0.0523587610575115
0.0456598883478369
0.0588764358174798
0.0468849954058595
0.0524545221253217
0.0475127730313018
0.0534018243761876
0.0478758185695327
0.0507919781307349
0.0483503036220802
0.0534454695463893
0.0462433915634435
0.0496768836446376
0.0450526283527489
0.0519595521444573
0.049049654794697
0.0495826986459749
0.0463087067818804
0.050078525576744
0.0452011182566379
0.0524434528216567
0.0463092261165244
0.0491948699215841
0.049685560463376
0.0522710016149624
0.0485523670163808
0.0545266868243288
0.0375875487700108
0.0651781730108141
0.0469074132286651
0.0516617631304809
0.0481285293442277
0.0500493859049637
0.046285291501333
0.0513525783566366
0.0485767622093875
0.047384296910247
0.0517853436435907
0.0482262089608142
0.0524050559886434
0.0482648094784515
0.0480866490875491
0.0499091119139638
0.047063097153985
0.0481192374603668
0.0468039577704785
0.0492134517358849
0.0455577685840913
0.0496293910249037
0.0461216770115705
0.0499541156987247
0.0457604471129773
0.0490045670976834
0.0485940151465755
0.0489513127341913
0.0471156321438185
0.0501433595829597
0.0466045333647372
0.0461696881867857
0.0579595607528241
0.0444089202795191
0.0502877792510429
0.047528989183048
0.0487494033303559
0.049024155695544
0.0486203621757197
0.0477526685723824
0.0473602014635644
0.0472925813228562
0.0492605245598308
0.0485529063246616
0.0473794684176864
0.0475548595826739
0.0485596461208246
0.0467214100062689
0.0454722262617118
0.0509828767748376
0.0453583505190818
0.0511953679908495
0.0403986831478001
0.053613105763869
0.0519606413405935
0.0507608777386709
0.0500243027404405
0.0482909462430826
0.0471654480276878
0.0482548758241737
0.0495209574588927
0.0459856444584937
0.0508674179140797
0.0493988526935079
0.0491298555016762
0.0473020148617734
0.049967915241005
0.0465858090276416
0.0511814498767469
0.0477473011196055
0.0513904872576304
0.0463852355812338
0.0517792056647446
0.0458519184835581
0.0540434830077557
0.0410053896667155
0.0547403149386478
0.0447833190269145
0.0556500682385186
0.0291179923173625
0.0625524703238719
0.0586239765123555
0.0466952330907755
0.0553547884685217
0.0454188460788277
0.0528226951095523
0.0468877142564424
0.0511054085860912
0.0509353571807505
0.0514395050588707
0.0479691275551019
0.0526191229622824
0.0478504641949014
0.0525418738903351
0.045998336389476
0.051364592667158
0.0640653728390654
0.0483251247669747
0.0556478892607308
0.0462900668192342
0.0488415424698742
0.0692932525385391
0.0448017479236644
0.0583046896450545
0.0493689734821389
0.0546898595484881
0.0491980474992495
0.0528799583659633
0.0498558063863348
0.0559515790320344
0.0500838776882191
0.0518878309855024
0.053704763155522
0.0501040987179499
0.0542829892843993
0.0495109955931203
0.0543717930442714
0.059279401088796
0.0495598358683498
0.0580195484696424
0.0536152047096721
0.0533065536697105
0.0531692100683376
0.0587296805642608
0.053579257196971
0.0541571253543185
0.0597694204293067
0.0509761482428947
0.0581354831445025
0.0636440438630171
0.0515953258166704
0.0591740245299133
0.051389672188797
0.0675691391515694
0.043977982440117
0.0555779424002762
0.0719497431502537
0.0512364865451639
0.0739774678861738
0.0514519044245597
0.067100264120757
0.0501628515617197
0.0637896018330261
0.043905434218642
0.0764124379798741
0.0505267547955691
0.0680299823014813
0.0474808978102935
0.0649901529785116
0.0628501763402054
0.0612679954284284
0.0566057781077615
0.0614274724830978
0.0546654242505263
0.0733427440054796
0.0659836663675367
0.0518269117255044
0.0776294217474811
0.0623418055989623
0.0805650398333793
0.0658325214214748
0.0501173114302987
0.082404248039033
0.0597716508488709
0.0712077786228875
0.0608708965756546
0.0702652347586174
0.0589160550360176
0.0608026630656086
0.0823293676804741
0.0650262478830668
0.0690333255364281
0.0737373970549694
0.0597680712706749
0.0824262420127688
0.0686222744919607
0.0776595166628265
0.0650255353786948
0.0790999123080837
0.0495951168141312
0.10707756151625
0.0681593118395284
0.0781867829533803
0.0857641201191621
0.0771958522365177
0.0859606973882019
0.0790176668322978
0.0778014231396141
0.0786266265991689
0.0901421952959867
0.0830255897287475
0.0719434251499589
0.0848023016328521
0.0978755674171418
0.0745782198591531
0.0962355095473161
0.0787876903686274
0.0791881757355764
0.0900579891563877
0.112719975384443
0.103816119702635
0.09840191118808
0.0884911039131857
0.111863553816788
0.0936570160227357
0.103224555354634
0.0980067194279927
0.101645415835566
0.103073135742443
0.0993388124419521
0.110157894483203
0.10369703149181
0.111466094246336
0.109810803091241
0.106490976631508
0.112153995052095
0.118425874002161
0.141746257504793
0.0992715275241953
0.141184668947682
0.116654475479496
0.137181251240663
0.120929929961416
0.128080393415456
0.128307058552631
0.135610036814163
0.135880873269513
0.128150607311991
0.145608840115029
0.138364517359665
0.143816946308064
0.15957321144961
0.14029384292048
0.154574086591974
0.10140111607383
0.299701095423915
0.147455142516232
0.189787024204989
0.147408564658875
0.176626437665793
0.202780659349874
0.18985366197587
0.183732878190872
0.198465001943122
0.189571787075956
0.20294393007069
0.201434008529416
0.217785748256026
0.217409653910402
0.229933532494436
0.203970350586187
0.242791831586949
0.252321012408637
0.278533741545253
0.259910161853566
0.258467226215272
0.265287349343793
0.281081796913074
0.269918734886922
0.297466011961303
0.277944112484002
0.293429005240675
0.338928124071194
0.309701071209
0.326242408791366
0.310851042026513
0.350561544960429
0.308219261815133
0.383286487418162
0.349868797572482
0.366140073538558
0.358353432437933
0.370164478919215
0.37559625262876
0.363295853503257
0.401213986542765
0.396236726338055
0.398534350312259
0.402695130897017
0.420172331446714
0.409595928716899
0.418111220429292
0.42606987376825
0.412717527623708
0.433515798472778
0.417426581253457
0.584046551415715
0.445946179899542
0.439979649294004
0.444424763321805
0.433361259748167
0.469958436714251
0.432507320370841
0.491512180246408
0.458573532335601
0.454363208627301
0.45263387165613
0.457569235161435
0.45784401518376
0.451933562096353
0.466793744281777
0.439693397490648
0.482412050957914
0.435648944353944
0.506510816268687
0.494546985220599
0.458508861060984
0.461670220317714
0.450579858923538
0.45659068640235
0.453614711499809
0.443099340177448
0.435298766525214
0.470732239890457
0.435352811623582
0.46036472856162
0.416176790309752
0.463417773978314
0.440291886204815
0.426136940170243
0.431634776467856
0.414045158679117
0.421723513698251
0.39819911421195
0.403007241176033
0.461851047426675
0.40051004305916
0.414884879959998
0.395492827865477
0.415440359231496
0.400498803531366
0.400404285364099
0.389397158243443
0.402781757848314
0.377049187809891
0.400988167357451
0.386354703358717
0.394939372899766
0.379889284323583
0.399107801331825
0.380960525377286
0.397697083641264
0.383780152293473
0.390722900058735
0.386220369174886
0.384170661030156
0.377942801643836
0.382615611694245
0.37220886571664
0.387935575793634
0.376545454525646
0.384377268664207
0.381537958098448
0.388393014566361
0.378170340701365
0.379632243955789
0.375398535537345
0.382036205643353
0.368958850867532
0.386217247296948
0.374369326029829
0.379514733761753
0.37009006867862
0.374659962513392
0.372297656426643
0.369341949071912
0.367490440684056
0.337120578273542
0.410786482951123
0.371953373875044
0.361913151799821
0.358594926125922
0.348770588141733
0.356587702144486
0.326308673698933
0.383714634469054
0.341506019604884
0.344888542122686
0.335638795045576
0.333421649054871
0.338339374571475
0.338566549438434
0.320305574671693
0.342217693729932
0.290993393600415
0.360045221392998
0.28688574380762
0.361045822476079
0.340978886089037
0.324096318681046
0.28619206022086
0.31341649702585
0.32902489329539
0.290450267298431
0.303835294566404
0.279133043325524
0.311898211231486
0.289163856842636
0.285787810612771
0.286739074190501
0.266482558176034
0.292703692223021
0.294013829338726
0.2685586565405
0.28514511832738
0.282714155903718
0.253830292825999
0.284868843644788
0.300529636852984
0.273032533400646
0.257449491565244
0.265887234966302
0.245330994018621
0.245183726888359
0.277099129378831
0.246209030549819
0.256501218226745
0.238247729766755
0.24347774568907
0.237560780617236
0.242684497609505
0.230785584695589
0.224937192387867
0.266554223025985
0.212505365214692
0.248663537439626
0.20892546298943
0.25531214845022
0.234773826386773
0.238173614184606
0.206001444632312
0.243255011488475
0.232201667043378
0.220421163144859
0.229248013046656
0.215220224957705
0.209896843860616
0.227681202304114
0.204109197138626
0.222770863419194
0.208597020374657
0.213455649643088
0.222687306074685
0.228691886132732
0.235247647617075
0.217052957019957
0.206379243223823
0.212823623507919
0.206745986824512
0.224238315228461
0.189540525313418
0.240707684888317
0.209563002735475
0.212744690446337
0.236449792334448
0.222412605677961
0.223477290037202
0.224604014294044
0.221133905738453
0.225051826151243
0.229744075177035
0.253442843562626
0.225197194511689
0.249700098789731
0.248848070067275
0.24662375588346
0.250035912641876
0.253866198035047
0.255726809873233
0.256480776835335
0.27099000469059
0.275413922551368
0.272444221024571
0.2879377954284
0.272693820642309
0.302921058508119
0.31271439659054
0.295053482085608
0.339723752828896
0.302957874120001
0.362717237662906
0.333245608328648
0.341125168960566
0.343415827852767
0.345441871986405
0.359685297120049
0.343315973486902
0.36046607548572
0.388684221529236
0.370373630940906
0.379390720411493
0.37391856294439
0.389415164054155
0.373710510939633
0.408719447124733
0.373374673793764
0.437832103135292
0.41396361334519
0.40920167014546
0.408179168537925
0.397823203583656
0.414037533682337
0.403391296688858
0.417771711987087
0.406459243703724
0.413883926841447
0.434709984569291
0.417410817897886
0.422652072869804
0.414553785874792
0.423235490725879
0.432165452034689
0.436717502482676
0.435688948012877
0.428831491116658
0.441415331876628
0.438459743320841
0.427355693955563
0.495923838111502
0.455864085704807
0.457656781535427
0.455867116303026
0.474179594629802
0.456275197734423
0.462134242799968
0.485945624017077
0.482964842510731
0.478956778178363
0.482914771278491
0.487643872794288
0.487458342287335
0.489107006257513
0.515096052750619
0.489922555628457
0.516297369417944
0.470378325591056
0.536730938632303
0.519659835263731
0.510847959211507
0.520544909503189
0.518170414218141
0.524236295430251
0.510276684772815
0.52136699560365
0.510874723636368
0.530456045823533
0.513524283250242
0.527557312873503
0.516759891513301
0.512905655348703
0.514778906085022
0.514350472271086
0.529642377203312
0.523299865589355
0.521674325088853
0.512169754893335
0.511637122888724
0.506147799515449
0.52895477055999
0.516353877453302
0.509456269980745
0.509425310907132
0.502798885099879
0.520137334126164
0.523050073774259
0.50291436506825
0.51570285125291
0.504718825359668
0.519692140707609
0.502334849465564
0.517397470465038
0.524436524831838
0.519453847607308
0.523613161688302
0.517962246755319
0.529297246223573
0.532361115783709
0.536772949595675
0.535504450219045
0.540495298108813
0.540662197507199
0.546430610211353
0.539903824984673
0.548123664332145
0.541750191765468
0.560726147063657
0.555631491337957
0.541163124036364
0.547882727159411
0.540715915325462
0.538333177904397
0.538183961138805
0.538934618048777
0.53328852318876
0.527068189904809
0.521369292286955
0.51723427884111
0.530040434902804
0.502424626634476
0.518265195415465
0.501218427251478
0.505682996437161
0.490908804535093
0.497597785527935
0.487817015093694
0.489443566267723
0.486046484450051
0.488267729389306
0.478816610081631
0.478691065392434
0.476882544942706
0.476016295741722
0.470042870802977
0.476387813547199
0.469323325224699
0.469222270091817
0.469070059738162
0.467967924786804
0.466054300156112
0.468605908920624
0.460146069568244
0.474244817460897
0.45981311279104
0.475719177958096
0.460616638560188
0.473620423992217
0.46812083581913
0.467916854019293
0.466485969851077
0.467455585278964
0.465189752442785
0.461671568161565
0.464260331231088
0.462411566995147
0.462388780496507
0.464269540628009
0.464801153978617
0.465146988529048
0.457448620454227
0.456847764114462
0.459057585704921
0.455456258904009
0.456152682353348
0.457236855238503
0.456265226565363
0.45730024201755
0.457307540634341
0.461864111555644
0.452596168162292
0.456794337489006
0.452957381381555
0.464968088196092
0.456153074297435
0.455610718282604
0.455554241217143
0.455961696768462
0.448386804227592
0.455682349193081
0.455027317465901
0.453734991032172
0.451424874416246
0.447234296418804
0.445367644464342
0.437677867564021
0.440406706607933
0.431927815023794
0.429844169331082
0.430281423560306
0.422682870000452
0.418809680561596
0.419917678036046
0.4171523646335
0.411376743280256
0.406759168602685
0.403489915744916
0.402038556623139
0.400559354782082
0.39942091215305
0.398235897053741
0.395147767487598
0.394611572636386
0.395543696318846
0.391463551319792
0.393971240854024
0.387430594565251
0.395095736618838
0.393671774930024
0.39298181974539
0.393846627892061
0.393980902909629
0.392816377581161
0.393494469510715
0.398135986535955
0.397306267388006
0.399824350149305
0.403906927574193
0.403633944872885
0.407015309188747
0.408432806416511
0.408442594499836
0.405855328607435
0.412579777127903
0.413996823622802
0.416216613653442
0.41215607691146
0.417139082648869
0.412524961635125
0.418694106297473
0.419720188867873
0.417627139391886
0.417454430200094
0.418686084312501
0.413199442652552
0.419249414782817
0.419121825417778
0.416848645361793
0.416041737688279
0.415671548314906
0.411699437787906
0.40658743488721
0.411789161063499
0.408595032402949
0.405234702126853
0.402460943425538
0.402408283439156
0.402386353301251
0.400675843610453
0.399693793969445
0.391023022970316
0.389792852881063
0.391159061102968
0.388611572219239
0.38729711967614
0.390368034564884
0.388155472098598
0.387988664441554
0.384554840513021
0.385271890371673
0.384661007221836
0.380331270270892
0.379213093560519
0.381065044735942
0.37645825974112
0.37591576917979
0.376307284566345
0.375052429705321
0.372450359709387
0.372711074936158
0.36838693514296
0.369091607488794
0.36623389667656
0.367357065710401
0.361441023761329
0.359793289912773
0.358492743611706
0.356591394218118
0.353475685196675
0.347965747776705
0.349886995525622
0.347916824622124
0.342603655424855
0.339517429654395
0.334892743785518
0.337757920343348
0.33641960932348
0.335982325122814
0.3335055908308
0.331962795397048
0.333200283416738
0.330460635306065
0.331531611644515
0.331768957932299
0.329296212789504
0.329612761538207
0.327025821573984
0.326377194009272
0.322625534064282
0.318011935634252
0.314885703076302
0.311412000900628
0.30773676227401
0.302985919571577
0.299033918651888
0.29693082176063
0.292577250541506
0.288502915473075
0.29270611369573
0.289425993223337
0.291187392200798
0.293045254173475
0.29782471039701
0.302585164909662
0.308889616263934
0.317629321756398
0.325587531435906
0.335554833715857
0.347324250627201
0.358590659964682
0.372006236144755
0.387329184605138
0.402052813045845
0.420072668608451
0.435865348941046
0.449870265239358
0.464946763785458
0.481808550130312
0.493014688287173
0.513184309917214
0.523324013069971
0.541870535396592
0.556643127745918
0.573135042816571
0.584098458740223
0.600662269491886
0.613672977929178
0.625912693050016
0.635203344558729
0.648708044189658
0.65433497633584
0.662288807070785
0.673144693890833
0.680847060676549
0.683502300275481
0.698105859634464
0.694165038910288
0.698462174456367
0.701831373370672
0.699105220630093
0.703117211097745
0.702572947758992
0.695885569247431
0.69582691189764
0.701664044585254
0.699028182559915
0.70069109007696
0.701713378232368
0.702495097146552
0.703756032419328
0.706710161178303
0.704401887206635
0.713504501048291
0.715125511374749
0.716523644420426
0.731666484338677
0.734454605298902
0.735417680923614
0.742264146761172
0.747052790797055
0.761077580346533
0.772845963604011
0.777579457220923
0.790893507447435
0.813508672077989
0.815332527410818
0.829960451846155
0.844359579394945
0.842144917652158
0.854790028895755
0.877258443981267
0.87409222453586
0.882133688394724
0.890976095635436
0.890797489236229
0.896359509215882
0.889693530856056
0.88520805037496
0.896663155295002
0.882797722803594
0.88011908870529
0.869132507402543
0.873317186042882
0.872472040844489
0.860729398713908
0.868134023200584
0.875448565251397
0.884305381475466
0.893454728419514
0.908749265627539
0.926824039041296
0.93023565482286
0.936051008325213
0.957706172662877
0.959967579050577
0.98136469297257
1.0035572971402
0.989387683441959
1.03099351456405
1.05656164073663
1.04948385474373
1.07377003535269
1.10109298646349
1.10275477561069
1.10983188942951
1.13806592956561
1.14954729131633
1.18959917254589
1.20779964575033
1.19858251841428
1.2432817184505
1.25775368593704
1.27798960391546
1.29406374676548
1.33168843465023
1.3747071585982
1.33448696989212
1.36035256327686
1.39253700594159
1.44125932665028
1.44568525249585
1.46197666627762
1.46604255924987
1.50708133731919
1.52301021286396
1.47062408781339
1.46903259476703
1.46154189123779
1.4971370262908
1.46591450772832
1.45756887110306
1.45369520619112
1.43911503535243
1.41468822694435
1.4384407323575
1.43111857395291
1.46399011824589
1.42192787169354
1.4492676517271
1.4661774458842
1.48951708219193
1.43885950287847
1.51840215093881
1.50091462873099
1.53444821416664
1.52340473586302
1.57138076284733
1.53268187733243
1.58047967939181
1.54671154746987
1.59885534363844
1.65151345193478
1.59881542384178
1.69860372886626
1.61031932746518
1.71054683565916
1.76846347942543
1.75556986496725
1.76289694462061
1.68081374890507
1.81227203564234
1.7600190291239
1.78605429838532
1.76693007225805
1.76758879194278
1.72341494984843
1.77269354009524
1.84524990334749
1.73833435787382
1.8618941951681
1.74854966501248
1.8809377992362
1.83972789274832
1.78346779618752
1.75329863055349
1.76484186993412
2.04819141384361
1.73950913329596
1.82663618445417
1.81521521078144
1.72425689460669
1.87926400337372
1.66514842601711
1.69559057747535
1.63792365986519
1.60801740129752
1.62220430943946
1.50734170890411
1.51002212779906
1.40679834966816
1.42207562047593
1.33274044109933
1.26408815681719
1.24631313100948
1.18446892129492
1.17585795487588
1.14964858052525
1.11103752801065
1.09612271586175
1.09889266769012
1.07533498872175
1.0821477076793
1.07896681876662
1.04499748474517
1.04169279963636
1.01129069457206
0.994427378814738
0.968324928192699
0.975218309264264
0.977535588115641
0.956500730559316
0.910499249853927
0.899472082955671
0.870603010198829
0.842727491240527
0.825876620469064
0.796292210662357
0.775680116455912
0.750734019014346
0.700573325980877
0.689551079753814
0.645875535170728
0.619328122695619
0.587007540200564
0.563894654941955
0.535778514332273
0.510127360923619
0.487324445697992
0.463480016366387
0.439866989446939
0.419784197634241
0.410349216567343
0.398209590231685
0.38079181724857
0.368233754633744
0.35895668742657
0.350984192049381
0.346045091536868
0.333971120148548
0.331253023400936
0.324442820300144
0.324999463956994
0.321748318823715
0.31956613659234
0.317547098741815
0.314195397057427
0.312347256962686
0.313305244722334
0.323221564888344
0.321143722703704
0.320511307125854
0.323702384521872
0.329277716801135
0.32968883245032
0.335202624871531
0.336477888192644
0.335633720850381
0.335756821763617
0.334059155189164
0.332467333549084
0.332588059213853
0.327934195837264
0.329660746473266
0.32787267362367
0.323554231948317
0.319434754215321
0.317694181610012
0.317894331778486
0.317186938070045
0.318405332646625
0.314943017251263
0.311455148959083
0.316655609198093
0.324720350974281
0.321138248116292
0.326839730075008
0.326136250433427
0.327479745840257
0.333849084156353
0.333721343702981
0.342631804780024
0.337701633298005
0.34095975034734
0.345906092987527
0.351715211732571
0.353559897875874
0.353462819495961
0.355795674615505
0.358954363609075
0.351016109057709
0.362969389051607
0.360098202742565
0.359670637185537
0.359912299876277
0.358187026086838
0.360412527218356
0.361958923844991
0.362758375530416
0.37764860132933
0.375258321026398
0.387733572292658
0.387739378488744
0.404818842715918
0.401897213127998
0.416307308066333
0.421828171155965
0.432312634746696
0.434610194587827
0.451478622289822
0.474845812994579
0.483393722826007
0.490512884727267
0.492174310697096
0.499260844943707
0.49853560440223
0.48460704620542
0.484910029065129
0.478765420006424
0.480025475008706
0.469649597797647
0.463575246171611
0.450407898157276
0.449191323150322
0.442707602213995
0.44746587935983
0.449008919385661
0.443499392907409
0.439983222844403
0.449786110904295
0.441599388151115
0.442813102649961
0.448543558208897
0.463222755665947
0.446834836430575
0.442380628892908
0.433946664377412
0.449196602559568
0.427167079041534
0.420699414074998
0.415366576391438
0.418340140959344
0.417550018356455
0.41338121669758
0.408267872661359
0.41479502885597
0.40681279641109
0.417217469279554
0.411019556480782
0.398848269345351
0.399441047396128
0.39712709746092
0.401859405419724
0.39961910671093
0.396954495510644
0.397129165747217
0.393757802247771
0.392852802683634
0.391689424410338
0.388274580518104
0.385196946431472
0.378572561136995
0.380811329793429
0.388363280522689
0.37961178695159
0.376529246547452
0.378465808674084
0.390249371900527
0.364412193850085
0.378761245309256
0.377091432069007
0.37514297431319
0.373717546823336
0.368663993637788
0.370447083480294
0.377588909592548
0.365831203543616
0.381553887488163
0.378367257798049
0.371189738028333
0.365486208145655
0.375745932507175
0.35709986147673
0.370163473440759
0.36787920765971
0.375524333221188
0.374019494671069
0.38430763614823
0.382316884410651
0.391009152568866
0.37402187098676
0.391075171649604
0.383410013406573
0.382442304768023
0.379274928688609
0.376538895436404
0.396653245035338
0.390753474038774
0.417206196469439
0.407180766928937
0.409450228858247
0.418321975521854
0.418629167423608
0.414694061576133
0.417651094809712
0.422626252982235
0.418502784163533
0.423154680258291
0.426969555774442
0.453670891255977
0.437073781309462
0.444264185030106
0.465987894446982
0.47342384577235
0.443345687852609
0.497886711226014
0.504184207620737
0.491383566807261
0.503490641556456
0.515259359027716
0.538341765955932
0.547265554909882
0.587263986648859
0.598430925078718
0.574923916630274
0.599971596508639
0.58831871724883
0.645706071762507
0.583046380674923
0.647731489930187
0.626943606276765
0.652889933128125
0.637650971240097
0.658762077414621
0.648934461080746
0.694119093953124
0.611429779371982
0.648106055134199
0.603415477304525
0.652239984430181
0.605563257619883
0.644961109322025
0.59055947879823
0.629809105495423
0.581901166479495
0.635494549206499
0.595511318818731
0.629834826057796
0.622331564399603
0.622967702829922
0.629840742890034
0.632883306556741
0.634890695746395
0.60302225346021
0.617060967914348
0.63884816633912
0.606042398358462
0.591878672507803
0.600130024126089
0.648834080190739
0.593950500174527
0.615700890493989
0.550430804983606
0.638910713640141
0.585085546514304
0.60840296174276
0.594519342123899
0.600998228502525
0.534832236848538
0.582405170994012
0.573308487373869
0.594577324559048
0.570801649249155
0.569850172672523
0.626683476643121
0.584706291730698
0.57522976087769
0.617123775932661
0.58157908962335
0.599096109054385
0.59312479732972
0.613079403802555
0.572632246420795
0.639032827549165
0.600913271538406
0.592315180193608
0.606987798435493
0.626136615877473
0.619439104048919
0.582684148838284
0.703071195972286
0.620939197795047
0.587657544050726
0.744084271283168
0.562051946878026
0.686628479671029
0.636708103812107
0.676718752653535
0.638076828389936
0.684249332613245
0.659961325089564
0.793209414093404
0.641263914300769
0.668470876434291
0.737238982702645
0.742792650686445
0.756796462420937
0.675662986293376
0.594795122599136
0.78384965314235
0.672317016556994
0.78655242251105
0.677765932889769
0.73348457095339
0.762713420511009
0.913523366404485
0.795200528191948
0.893352275155894
0.735955667160052
0.724021208974971
0.815678591950416
0.901627675765444
0.827246446568087
0.836611727002008
0.667909344009448
1.05071006688818
0.765498212325196
0.683695063601266
0.763497935857794
0.982960880781294
0.671599376307449
0.816647094544683
0.693304695741138
0.748712790731136
0.665463073765275
0.983405955632161
0.654081792725171
1.09949943382724
0.841851401675914
0.777915604452218
0.974007089424686
0.874633124567295
0.756393879395078
0.591795882124284
0.689608528007082
0.772980632714152
0.676896588177348
0.827666255031775
0.502077637796709
0.737664133225285
0.714471395573066
1.1487087178816
0.628366757899977
1.41105314712307
0.656506893406318
0.834410627498024
0.106773657123946
0.78670248848293
0.670253042974292
0.953638701585764
0.921055269395835
0.932588340234863
0.6245287812792
1.70409434308759
0.629636932958023
1.7028650961599
5
1.7250220237933
0.921983903601959
0.693265535100706
0.777375007606591
5
0.971130766493481
1.7260773810447
0.639543258517833
1.29660081304809
