3596
4000.36533379555
650.420452594757
1
2
2
0.0297901526038312
0.0213197064973558
0.0224558461651585
0.0115245286896667
0.0314520683632617
0.00964112892261347
0.0283432455067822
0.00798730660811424
0.0202188450193171
0.00867098224464519
0.0204564386452086
0.0143869882114143
0.0256912042618965
0.0091832412067658
0.0302807557741453
0.0117182655935788
0.0289849587484929
0.0132394386154324
0.0183860937536132
0.00876939073185547
0.0266812850999961
0.0124102606283381
0.0276294774750738
0.0187478215708672
0.0264686142987899
0.0121887162352838
0.0253813516609702
0.00771072893390587
0.0280936794888538
0.0162436422826699
0.0197418392379939
0.0111580026937761
0.0266859679451848
0.00560839672096328
0.0256966467512276
0.0134560286935332
0.02336649363089
0.00511588710904978
0.0241455944110126
0.0152971961716293
0.0189951835674088
0.00471853225227086
0.0274568489850097
0.0109414997778282
0.0233265857082691
0.00225178145658292
0.0253563281819701
0.0136245254658233
0.0185862388501757
0.0122821761504777
0.0266674691714096
0.0141124824506954
0.0274400631593908
0.0179596066045694
0.0355200791950958
0.0205307952944371
0.0358425042951315
0.00730968170235405
0.0263766891230202
0.00944779820582741
0.033742336553174
0.0221084319510752
0.0251665707862603
0.0077799925707712
0.0180784350801092
0.0189333270687306
0.0255080438992766
0.010975150183434
0.023078026117504
0.0119259002238342
0.0191051792504295
0.00977814076863533
0.0303784293689303
0.0115220801201347
0.0278376882422436
0.0125241853195312
0.0216798687667318
0.00862609800637813
0.0176845223918526
0.00547315566780313
0.0281733345496672
0.01495968018359
0.0279850674121837
0.00818079957749263
0.026334103038374
0.021870450743245
0.022372525096785
0.00689157807832616
0.0380320468754526
0.0215557302914703
0.02792823782121
0.00599355952145533
0.0293082647658735
0.0050485217156612
0.0264653477794822
0.00593339181518064
0.0170383149581482
0.00945284300375986
0.0134450221394533
0.00929184074684048
0.0214557238308138
0.00997405696726752
0.0558158784875182
0.00878247230703963
0.0426796075983875
0.0167586100642297
0.017544204501988
0.0309559289519561
0.0404480641669269
0.00975634624590305
0.0272975455140645
0.0135490063092263
0.0302876076247338
0.0142763151899401
0.0146376716419176
0.0127647617745299
0.0481479154145066
0.0203480331006739
0.0259807056681749
0.00900843860899041
0.0133856617857681
0.0039119637243616
0.0587642517371744
0.00794603788619445
0.0372747485146761
0.00762824641682758
0.0155922303190119
0.00918695123954175
0.0502812843275883
0.0174987600491245
0.0230022175018879
0.00939152219893422
0.022055390186015
0.00568143208566831
0.0498867909596857
0.0177764034584195
0.024983918453586
-0.00883171057165437
0.0179307735407709
0.0432825041832185
0.0376501252917287
0.0172373862862643
0.00867078165725712
0.00452481868129472
0.0525703322199632
0.00962771696351886
0.012425707723067
0.0142580184620607
0.0334591532962873
0.00792217874238188
0.0201023131907
0.00102415995097272
0.0278424181967771
0.00626167894394115
-0.00594641824319927
-0.00171704329090168
0.0714516045426214
0.00369735419762799
0.0685189361341265
0.0215659260660298
0.0363307012229876
0.0115351994918789
0.0269075383330167
0.0111847028525889
0.0283878735789816
0.00106266456499137
0.0285650539341353
0.028782776768895
0.0182440592675749
0.00244830897891826
0.0437767022121814
0.00693349250197114
0.00577055376295432
0.0383684121200875
0.0394940675102049
-0.00102124631785229
0.0417218242135061
0.0264112364168408
0.0180434528764058
0.0135889311376467
0.0435733184250365
0.0149620620127502
0.0301963942429929
0.00399727988637874
0.0286331731767894
0.0237252163061441
0.0333447546656073
0.0109773558682026
0.0234567028294129
-0.00755240984197363
0.0146231303480331
0.0215836528459322
0.0507598071968457
0.011193287123146
0.0310983930402674
-0.0220707955931962
0.040687257375051
0.0358522310432216
0.0316884752468081
0.0060105016939577
0.0242498803009783
0.0100500590572768
0.0191220891278633
0.0133997472401551
0.0202320493882458
-0.0184193319946212
0.046313369418028
0.0218275758328044
0.0260376015462052
0.00276345146096818
0.0246196712858016
-0.0128021157825526
0.0554746670847455
0.035904818514161
0.0237040220282295
0.0185464602424798
0.0115312934759915
0.0210626113122178
0.0382570688429813
0.0161388888787415
0.0235337299270348
0.0139613947651009
0.0212975965081299
0.00583928776092989
0.0250618527856202
0.00965196048096682
0.0235565944579385
0.0138036468947394
0.0203831205736298
0.00892265315328056
0.0285537329069458
0.01532763746162
0.0208049604160264
0.0101201766982279
0.013127501689336
0.0140328263342145
0.0402373726405401
0.00621746251724456
0.021536932555253
0.00859234539591058
0.0208454746140239
0.00715574449255511
0.0253005270952392
0.0131191994087955
0.0231457766034134
-0.00625452321770143
0.0475165693495985
0.0259371829813214
0.0234931667121498
-0.000625760074473852
0.0296011645219583
0.0209445394675116
0.0243987605351025
0.00849082175672018
0.0250099199795455
0.00358855562830708
0.0127208828424697
0.0259495000618994
0.0273205669887639
0.00655833709514206
0.0311153820707533
0.0148418265388505
0.0228126799807662
-0.0046899453815292
-0.0070129457678464
0.0507257054349195
0.0283209294150369
-0.00132200427319579
0.0614900491931714
0.0275655183166907
0.0345213610416144
0.00476087717392894
-0.0256181766663693
0.027197471779557
0.0636388133825603
0.0273524141539052
0.0189328319814533
0.0173870794301472
0.021568413781918
0.00938252749320027
0.0174841259782131
0.00291345081656976
0.0450758634998201
0.0320737146266546
0.0516246957094563
-0.00504110638907583
0.0404646379887574
0.0270499884960385
0.0299271858068927
0.00881122073591748
0.0194621162281914
0.00810735708184854
0.0354261346485873
0.0181611420038774
0.0338289047228943
0.0166527251106278
0.022942803297696
0.0223401978453006
0.0298053320871045
0.013585686815922
0.0240280551649454
0.0205612889729768
0.0234216274752669
0.0134258044473779
0.0219904778589585
0.015357772954168
0.0159202972709857
-0.0090503862727433
0.051921465171739
0.0183524385447675
0.0157115489380531
0.0232250779278011
0.0264699373755932
0.0171661605630693
0.0198805869723728
0.0130877507223856
0.0214202108970833
0.00953262105476212
0.0046032021675166
0.0336467001734308
0.0285975601315587
0.00757610289434506
0.0216464049475778
0.00820504111581577
0.0215483016260954
0.0125624775310752
0.017001896119168
0.0112311020511039
0.0216699297761782
0.000268189192129785
0.0255556756277236
0.0286824860619429
0.00291326422412443
0.0245776595151021
0.0480953351679286
0.0151792227211969
0.0289434672694045
0.000655563003054385
0.0274307224779427
0.0160950709657493
0.0233220989070264
0.00984045511328921
0.0216116472337337
0.0240562881774699
0.0329367986299281
0.000614399527311282
0.0213175467789241
0.0346210134828943
0.0591018674430316
0.0189080139396727
0.0276434697702138
-0.00508885011278449
0.0356129881300614
0.0337175533424577
0.0313892322382156
0.0339742752056335
0.0247663907256054
0.0228710916529043
0.0277627378436786
0.0152210708071038
0.0188596015772876
0.0192389320830863
0.0281770736018485
0.0144360536672729
0.0284144994942898
0.0244103665347863
0.0198007282022699
0.00628090361097583
0.0492377330805754
0.0290651802747262
0.0251796043720333
0.0191149912362818
0.0177028156220689
0.00971728071140746
0.0383896257273978
0.0313689972854596
0.0526525951479232
0.00912073457999751
0.0578797384824422
0.0259336750390675
0.0443447492212274
0.0179099635485434
0.0288652178876601
0.0195253918144315
0.0365017653655395
0.0203142410426458
0.0328575498424109
0.0213327378676882
0.0394910712419326
0.0235620554074543
0.0379710723179745
0.0119259894038706
0.0511646097116594
0.0318366148166168
0.0445278729875643
0.0159143381926565
0.0171395483800863
0.0353266477240667
0.0826372921863429
0.0311540443499466
0.0416437806280748
0.0307568211519057
0.0357577269423602
0.0351357777356391
0.0394878019445781
0.0327336371957098
0.0361643038816659
0.0294596998489915
0.0568084236806927
0.0334136305748381
0.0630822649417248
0.0128178839977699
0.0575107709090555
0.0278404125419593
0.045164556183303
0.0454220967271465
0.0645847457870572
0.0177418825114341
0.0581978996708328
0.0602762578852984
0.044424408619578
0.0579822360023501
0.0511409250408122
0.0431113036163876
0.0521508143831133
0.0454045774635738
0.0487673005732535
0.0432484832237222
0.059115339631076
0.0505500891764713
0.0628731158788801
0.0434056745420978
0.0611421049585607
0.0592793099422993
0.0644252843878351
0.0524033434309848
0.0762484662447841
0.0419287441153917
0.0740469887816267
0.0387527778481398
0.064001795645363
0.0684615401834859
0.0644496366317185
0.0681223914886773
0.0744150366802922
0.0651935101833357
0.0729011609824204
0.0649429646892652
0.0705147168543002
0.0580798474927555
0.0788361240206119
0.0607332464884165
0.0804767660511495
0.0677726468077021
0.0852328374631724
0.0627445007959588
0.0782170205457259
0.0637820212854934
0.0817105210738886
0.0548697853648323
0.0875760025117702
0.0542078141630322
0.090331696199704
0.0819545929825659
0.101593295586183
0.0858151339517325
0.0934024835569577
0.075332509697627
0.101742235135113
0.0837846569284648
0.102054124335833
0.0861424436722269
0.0947240850486195
0.0795869866129615
0.0997797556026521
0.0819673092018397
0.100855849222119
0.0827829667540953
0.10557030975587
0.0974671499259924
0.105908048961793
0.0919451242418499
0.109323455191464
0.0979827926581947
0.106069222518875
0.105011267185786
0.115721830748459
0.103499159107974
0.128247656884918
0.0983803799588861
0.109932269291734
0.102788924553453
0.12151348948822
0.101908839525659
0.118674117878953
0.110867861325794
0.12097666068943
0.112093214046283
0.125285248165905
0.116256629207327
0.136349709746598
0.106724764753713
0.129547006345312
0.119869024633401
0.136569872792479
0.113088111956786
0.143628770323663
0.110858128608805
0.144869824629782
0.126247179425176
0.148918636145072
0.134518795880175
0.151029576904438
0.125625595874262
0.148188938164995
0.132536977341178
0.156521607821847
0.131563832024122
0.152217693832461
0.131236184397102
0.156649471997165
0.129771650783321
0.162443050385119
0.14562148965278
0.172296648729924
0.154214934162774
0.169028698050666
0.142443896133836
0.174278977560699
0.142044775442705
0.164293384852435
0.151150314244719
0.175169524008424
0.14958340538641
0.172732480691456
0.155076261522577
0.177020923832094
0.151386288366209
0.185086613170349
0.16263822488527
0.179576605612061
0.169225741180131
0.189014999249319
0.16597912186557
0.198505387165447
0.173675853584073
0.197550971970694
0.172406840434588
0.19750722383062
0.174705667875893
0.203956840262721
0.178498191201031
0.21420577323066
0.177706466734967
0.204752450228002
0.181188887039568
0.20553796727145
0.194214151387607
0.214478628089414
0.171933939655915
0.213672830515406
0.184090311349063
0.208655762117884
0.190844510535069
0.218129080921103
0.20147511122019
0.215739109033076
0.193363964349237
0.21769956638087
0.191869212542173
0.216627766483334
0.202998508686205
0.22816912487384
0.205300676927171
0.224809213853466
0.20146794436736
0.239607566773092
0.19743459249806
0.236850174198347
0.210844674351056
0.232484295276089
0.21646066690667
0.236570627832818
0.206376117430792
0.240794747247507
0.213832735642828
0.234214474495293
0.208515977741088
0.247611578418199
0.22808590162343
0.264607287321899
0.207710207695923
0.247459503838277
0.220882243160409
0.246549368774161
0.219290577550744
0.246191769053496
0.230626025233692
0.257415436786119
0.226944964258037
0.262972973240068
0.231719696735169
0.253142730261382
0.229744546339847
0.25740565315183
0.234782610044838
0.270528395950543
0.238697532722753
0.262515467006304
0.239738357809133
0.263948952222166
0.242709603389584
0.269394271944289
0.258485541902344
0.289796352381431
0.261958328448779
0.284436945963759
0.2641960985754
0.285715279674604
0.243316158948068
0.267947664660034
0.246677651140019
0.284309290554614
0.252287433374957
0.289841418883692
0.263183558690902
0.29056895507371
0.260757821005666
0.278981905071954
0.253656275654087
0.26356866797655
0.258339514089156
0.288088861535779
0.273634962740751
0.287304321797724
0.261310699691845
0.300147221100189
0.252176227577648
0.281314182042726
0.25699182394707
0.293287146725104
0.27240018160119
0.291713842254394
0.252624655980311
0.297525905501187
0.269367682991186
0.298009003830381
0.279238169620504
0.295915467756804
0.268801241002445
0.296946711421594
0.269657759907289
0.304773012511154
0.274416794033106
0.297421400158311
0.283983798639554
0.29122503235451
0.273144254850316
0.296480190794925
0.285508075990504
0.302416503416166
0.283826181775737
0.30368301187596
0.274213123314937
0.308881317203152
0.280310580932313
0.302632405234523
0.269179213349111
0.302259854667781
0.272123106382837
0.306831378945376
0.287777212370254
0.294472637502511
0.282485822015587
0.300367161856118
0.272425490839155
0.300446474883041
0.285277057017474
0.299879238669001
0.281417609796687
0.317690858959755
0.283145432214589
0.305056464036958
0.290869305764444
0.301077125558125
0.281482284771322
0.318357455960446
0.268117260578229
0.299711030185698
0.272899859084697
0.296414249658301
0.275170974575321
0.308491706856042
0.28604400257333
0.305032193419365
0.284583778998987
0.31104427411535
0.274809248327315
0.298028020246989
0.274387805085449
0.301557879250108
0.271550374457016
0.314161624323045
0.271877549816673
0.310171522542173
0.293061242861536
0.308790270924827
0.279403061700798
0.301227176104401
0.283036922225826
0.313747282081235
0.278910714821107
0.297258692606223
0.2814695178382
0.300343765066801
0.284573294686434
0.295823527014488
0.272979550529319
0.305005246201084
0.273256311367847
0.292351157848841
0.280253262555928
0.302977386002827
0.27389726867899
0.29290001543936
0.261144723692395
0.299143115935336
0.263614923746037
0.300249345352065
0.278426872263263
0.297445614089823
0.269896099956278
0.291280072061995
0.28457537962039
0.28314817969649
0.259851136858297
0.297000566370069
0.26722943458889
0.283848680951205
0.276297976008728
0.284498418460982
0.277233662963465
0.298457705663628
0.262545386919459
0.283547343884531
0.262318867684878
0.27094626500302
0.27468048764469
0.281248550763062
0.266624399959402
0.284872739915083
0.259736087799045
0.279780683282007
0.259211528899605
0.277665372919666
0.269451614380698
0.285799111358447
0.261499892446787
0.276156180993529
0.256546807177561
0.284029864087821
0.26067762981856
0.270083479177878
0.263482284824496
0.26932847018962
0.249505851011636
0.274264727402716
0.246001055578777
0.286667482648072
0.266196288638297
0.270275907218852
0.244668150321462
0.272817514875624
0.241384028042637
0.268487223050525
0.249233335736156
0.25299201600924
0.238878566096673
0.263220237209213
0.245003186100265
0.259411876827801
0.251218194562092
0.267406568518549
0.246630230654123
0.258564880111305
0.246261597834965
0.267480973861809
0.251322486470761
0.247014704053936
0.240745395449654
0.252087629288688
0.238655034121575
0.259243954024493
0.233789508390398
0.255251290554853
0.23695098667122
0.253663825320337
0.229684278383776
0.244853980278044
0.232036473892112
0.246708801503335
0.235094957437933
0.241129647486898
0.228863983830492
0.240430540991693
0.23154034776079
0.243894125223164
0.225446077778582
0.23786498625801
0.223097640638813
0.229460887028669
0.219686182118361
0.225302065286826
0.215858369251323
0.22957346052051
0.22030185927136
0.221931835822927
0.211125353961861
0.224042917447043
0.222771604871828
0.222745793573156
0.213172632758246
0.222653197598538
0.209560280081049
0.223543937253817
0.210938452012915
0.216893786160186
0.19587757974643
0.214471426225047
0.203294628526746
0.219076671711458
0.202179017107315
0.213498652292405
0.191829213266102
0.220479955758554
0.192218725159129
0.2068230333873
0.202188507134099
0.210339759325179
0.201709871556462
0.201482013139358
0.194601308138255
0.210544330926027
0.185512587948225
0.208761678282481
0.19296776207288
0.198055658913031
0.182688440503995
0.204409120964495
0.180250662776547
0.192770045810344
0.179921121630654
0.200648748608515
0.175099599865447
0.198109393669002
0.176113275012719
0.200991829410849
0.179831850546332
0.183517990739992
0.175595336244813
0.18868149059268
0.169198222814144
0.193689556348536
0.166609980024948
0.188616518883058
0.159723373474633
0.181000452411351
0.159868757383471
0.183202709990683
0.156254569141208
0.176919033859091
0.155541883625565
0.172179533859657
0.164286417188891
0.173550591919078
0.148269328362427
0.170488021467559
0.161963152627704
0.171978813116094
0.152280985019404
0.161817659734653
0.148857116556737
0.164825755676652
0.147635712219103
0.161115972261761
0.150247533003447
0.155503745109476
0.138745425916774
0.152148074475128
0.148005146703263
0.151607488483946
0.139759732644329
0.153490970331724
0.143301544743062
0.153524149189561
0.133448055965409
0.145646233817227
0.131811985537984
0.147505641647796
0.13531501352975
0.144698738706907
0.135283306573041
0.140940213144399
0.129396488302425
0.144703973724887
0.131534643576121
0.13408790910597
0.132071989258542
0.138152339922409
0.124188860510734
0.134297944541311
0.123847203982316
0.131945925548124
0.12669334130179
0.130438352578581
0.123952986873885
0.128690941259026
0.115576743049408
0.132123343923687
0.111740741880411
0.130712855451342
0.117948975406552
0.121675850309632
0.124887133705816
0.125575407502527
0.113005232251645
0.117298658381996
0.103537241032048
0.119830606717696
0.105127558338073
0.121912604084941
0.106793168293482
0.115284714764368
0.105796210497281
0.114322497899661
0.101612977209754
0.114770859474285
0.100664844323573
0.109782734763488
0.106922013466874
0.108455565994762
0.102079501673918
0.103267819226134
0.0927578837085801
0.107061192887465
0.0996018916490579
0.10641546724797
0.0919013753299828
0.104743834255185
0.091720318808129
0.101797503809818
0.0893473971048396
0.105381760292623
0.0933323811951517
0.0982740326896058
0.0897844357489402
0.0985662508479706
0.0864890349024163
0.0973833450155444
0.0887079296611405
0.100913749580766
0.0878058383526548
0.0968859598930748
0.0875200664661074
0.0953759406767859
0.083055105483361
0.0975290939550002
0.0822015768894216
0.0898012172396041
0.0793144713706302
0.0873391086980932
0.0823560078290651
0.0879545833817417
0.0870651356056776
0.0892631815568328
0.0802124898807675
0.0884731830826565
0.0784949640792267
0.0856838121272301
0.07298906992342
0.0826302413617799
0.077463181635486
0.0823072149929246
0.0749946401028052
0.0783993308713126
0.0750737039672948
0.0804975127298315
0.0775872328567192
0.0809592975377085
0.0708470447662971
0.0855315159669469
0.0725516502171771
0.0754402979600418
0.0689743504058549
0.0773231460705541
0.0656170420382597
0.0721865027124843
0.0703796251976237
0.0733633212416547
0.0675090162411914
0.0711677186379874
0.0624916993121039
0.0704481902601909
0.0611556293311475
0.073333393520579
0.0661453320206367
0.0734042689721941
0.0599617322151557
0.0703399258738595
0.0627341826942264
0.073483403223565
0.0667224377622242
0.0717873218331289
0.0606308752537789
0.0708085524763859
0.064735985765599
0.0637597422185712
0.0551658577688353
0.0623123667555056
0.0556081646358639
0.0645438870989095
0.0597574545108872
0.0626215917879319
0.0541929801114672
0.0643993782128731
0.0558177185295528
0.0658602333411609
0.0579984759136145
0.0640009447224417
0.0580489383166077
0.059842960683125
0.0524628046327266
0.0644559947075627
0.051955528678563
0.061195927726561
0.0499865139157197
0.0599648202480405
0.0475890800705297
0.0626003296193406
0.0478273536572411
0.0575320231261604
0.0470445327116155
0.0568805788632691
0.0521215524487858
0.0534429901132796
0.0443395470424455
0.0528138273741622
0.0506748094100225
0.0521379881526368
0.0448723243848651
0.0543014272117245
0.0495547265507184
0.0530891661597322
0.0463671273638851
0.0524026452189394
0.0451692481509739
0.0514621558707162
0.0458550199731166
0.0491530340659711
0.0459051800196952
0.0497017495043972
0.0437436344055389
0.0548404297277036
0.0450953871056636
0.0489302494966216
0.0449052434653171
0.0567775300594311
0.0466764591155024
0.0462400419012624
0.0423856321966926
0.049555872838776
0.0440261568278435
0.0501197825267532
0.0459456931166724
0.043827157693907
0.0386230008183467
0.0513679739375257
0.0438477254575176
0.0506371126686084
0.0426541286602407
0.0505142072573768
0.0419109846154666
0.0492424600645183
0.0421489619679252
0.0498505644101884
0.0461456145558599
0.0523538235511558
0.0459844500124313
0.0472202032903884
0.0425906766177131
0.0514795614348048
0.0450681081912617
0.049412074704933
0.049615033239665
0.0506939744303321
0.047043045208389
0.0580256002335348
0.0432409402114854
0.0529756508591454
0.0464908547366856
0.0537619040560285
0.0477121742393051
0.0539265605514264
0.0484451045749092
0.052238487416837
0.0490431094068503
0.0532564035289471
0.0510432805309854
0.0536470544747944
0.0436307902576719
0.0593038756131085
0.051598935391123
0.0592529079422985
0.0513399456087804
0.0577074227029933
0.0505550418949088
0.0657600478489743
0.051140577839517
0.0542713677048049
0.0504559946891041
0.061998095942355
0.0590205372549599
0.0627810134072299
0.0553175206344369
0.0618467456360522
0.0541007519999617
0.0656854478551797
0.05416027567788
0.0643745258104182
0.0564086657805291
0.0685085248257292
0.0592423663321227
0.0683141419153151
0.0604466793949868
0.0676443433438413
0.0686597149707083
0.0697034631116262
0.0617485784630905
0.0687716050137365
0.0691010080981903
0.0699144020087343
0.0641372447430771
0.0733091513160634
0.0730092383253043
0.0755224404307677
0.0705584194192587
0.0740630935024577
0.074330959076656
0.073429631123518
0.0685333839182046
0.0779126609909329
0.0676475281498746
0.076081747781472
0.0694368782569831
0.0776817206911484
0.0699064327549736
0.0756628420254733
0.062468261270899
0.0736785861275378
0.0653964748342668
0.0709110128099019
0.06693879687098
0.0719031291111068
0.0646178840507277
0.0752442782536951
0.0662494072508175
0.0733498330632317
0.0642240952937719
0.0710126753754733
0.0655025471334771
0.0725527074319023
0.0636525669163781
0.0700937796162219
0.0629819742364449
0.0700646283154353
0.065878865341318
0.069841840916129
0.0603459468781217
0.0725279369577505
0.0629421087872498
0.0694768905377891
0.0660674429491999
0.0697861308316613
0.0599578621314342
0.0667846503223354
0.063720494683959
0.0733224624893302
0.0680278579227195
0.0679851618723523
0.0601725113967233
0.0679710309844772
0.0635931989652789
0.0726368096182873
0.068270570790539
0.0671099640569962
0.0629521890392117
0.0742891926188885
0.0652905744953454
0.0681899576360414
0.0663463819275029
0.0694655836236599
0.0631561450823782
0.0705317118531607
0.0612226303150325
0.0676268207435739
0.0601361875337361
0.0693699914675271
0.0590576534443381
0.0622445072557853
0.0564952689304845
0.0682189615894319
0.0602423151227386
0.0633852266874821
0.0589253987912729
0.0638532302209792
0.0561870839270241
0.0611247780368147
0.0530150557910048
0.0615046511353212
0.0548135864502443
0.0627677650772794
0.0516742280756809
0.0579309220639484
0.0519376394571147
0.0597052226421235
0.0431624708590118
0.0542968479052749
0.0495891629146786
0.0522226109620943
0.0453563046978953
0.0521367448494931
0.0484102789219131
0.052988404933238
0.0493245857810722
0.0511189065585469
0.0406377293788251
0.0469715933292618
0.0436234061644893
0.0490524295569856
0.0395123785038502
0.0426877273539178
0.0456027002182413
0.0490323970282278
0.0386929382185979
0.0469506223515807
0.0415139805251326
0.0428239689482919
0.0408345940954809
0.0459757206331696
0.0375104011182416
0.0446421016760635
0.0371560745085394
0.0402935255597359
0.0345230742893356
0.0420497217440229
0.0387193931522353
0.0437786376521021
0.0354800390367287
0.0408265193168792
0.0360832711658641
0.0410272668648331
0.0377957803761625
0.0378616035348247
0.0311756264781068
0.0432660677597664
0.0352430836224166
0.0382901019433296
0.0300204825039048
0.0373071493436197
0.0306170172978711
0.0342030525476966
0.0324491931326571
0.0390978689649135
0.0307198693068992
0.0381063392690076
0.0314021712240489
0.0369580254868846
0.0300893936506906
0.0349739760627953
0.0335890764489142
0.0330907150343499
0.0289523628095928
0.0374364823448759
0.0340281393908689
0.0324951849300702
0.0278591652782965
0.035284687285599
0.0274644291980361
0.0338396976546533
0.0261214003101725
0.0320929915997856
0.0302390539433597
0.0332742496817601
0.029982223645882
0.0323947519508171
0.0253693991861306
0.0318655226341582
0.02678617200577
0.0333738829374067
0.0297104889135725
0.0337206124715837
0.0312698425696858
0.0331874603651643
0.0256580426844575
0.0280170803042734
0.0246494533042041
0.0295877829838691
0.0274203312790387
0.0287620839777486
0.0274623164782353
0.0331490992513088
0.0274644213161482
0.0307635274072756
0.0265291162622115
0.0318393805200641
0.0302856050345513
0.0339076642348853
0.0267461245693922
0.0288112793461997
0.0237772377019784
0.0329092654734101
0.0257724551422808
0.0297946754433862
0.0267404999357265
0.0301113817853046
0.0223829423483384
0.0267629281625952
0.0263520669211105
0.028253675401387
0.023742176404762
0.0334390449866494
0.0255879535267249
0.0293154946630713
0.022539897179855
0.030546665017876
0.0243896321527207
0.031907264352736
0.0217909962105885
0.0320656143544714
0.0247565280951561
0.0333953548438761
0.0277450525038678
0.0279966099577806
0.0245802165544389
0.028976843388724
0.0216409939447088
0.0280356860841377
0.0225496019680857
0.0293623825978381
0.0245719269194265
0.0286708877560974
0.0228461723622429
0.0281755339752614
0.0211531543667972
0.0269862479608187
0.0238718181190762
0.0289783721338687
0.0236964469860865
0.028265787992928
0.0214882860695219
0.0287747516653148
0.0229853073956917
0.0267662215233804
0.0237807042994135
0.0270243744230462
0.0227568985019233
0.0291435589461519
0.0221411673915362
0.026302958640775
0.0216632434667755
0.0251605214665308
0.0229351568887925
0.0272458597990891
0.0247604557997945
0.0283861850731634
0.0254427812031367
0.0285356993152605
0.0222922595051343
0.0294639506138107
0.022679486584344
0.0257403501440872
0.0248740920679437
0.029220583390024
0.0257459878298435
0.0286174484339532
0.0221089693086463
0.0245683090801056
0.0223952226168637
0.027057137768965
0.0248941751841309
0.0238972012153358
0.0203280711325416
0.0295010318008587
0.0226749823267212
0.0270608499610282
0.0208824348459629
0.0249035659279586
0.0229038673380684
0.027318623777798
0.019899393890567
0.021514859391307
0.0173053504078954
0.022901760980462
0.0184019264465041
0.0268782009494034
0.0196720484170369
0.022557244447014
0.0218228166675467
0.0254538314062428
0.0192449454522633
0.0252489568637705
0.0228072639899796
0.0219536064860654
0.0196130171811273
0.0222353944711544
0.0206602334131011
0.0216178817629125
0.0187876787592898
0.0229622093868367
0.018230757022925
0.0242945436537625
0.0167438827120321
0.0210017191534903
0.019057833755721
0.0235721124655781
0.0193046826471843
0.01967545271082
0.0164940863080591
0.0209582169689747
0.0179898159986983
0.0205468582619124
0.0228818425384898
0.0226755214981776
0.0180362614299092
0.021334493763306
0.0189324984162246
0.0208564920641239
0.0187610475497883
0.0237124468783072
0.0187261727815992
0.0234347587675696
0.0177387350644117
0.0245136563457665
0.0202842277920852
0.0212084483047151
0.0177125529406172
0.0237001810873149
0.0171196474828909
0.0209133797071961
0.0173611099479305
0.0221188347806404
0.0183491653983321
0.0192053355341703
0.0133344086534881
0.0200670705520705
0.0147452418542441
0.0210731988356246
0.0150196377887065
0.0199612821656568
0.0194825624038661
0.0206971134360802
0.0167765562570987
0.0165783960509259
0.016567924752637
0.0193848218658885
0.0156448069517462
0.0166591772061277
0.0137291834686095
0.018782508137194
0.0157087079373086
0.0168456952533874
0.0148928337749121
0.0159872267889816
0.0177463213014066
0.0168328276020632
0.0135245946975864
0.0173014882998706
0.0138683362584904
0.0156338942928847
0.0133218124235643
0.0168349860833547
0.0155477928402813
0.0189312783520964
0.0103028899429236
0.0181139238734534
0.0150907321934439
0.0127649957662979
0.0142316540078587
0.0193891617073437
0.0147857234840544
0.0196043868421293
0.016547780972606
0.015630551005212
0.0155922847759613
0.0167343802949878
0.0163960721461756
0.0172158780847226
0.0134050299490853
0.0172942499623345
0.0136156598975289
0.0148480481070429
0.0118260567226333
0.0142800105280637
0.0143457695510267
0.0174466099225854
0.0158471861029781
0.0153511382797871
0.0127105079474272
0.014600100472991
0.0134021404732032
0.0144661379361752
0.0149241224587417
0.0148855460052612
0.0152382901527944
0.0153376547219278
0.0135599117196839
0.0138972134461816
0.0110333393690024
0.0130057268578958
0.0142195408988276
0.0131745182514215
0.010542582716616
0.0153186663646745
0.0143323649365951
0.0143997594516676
0.0119755945378085
0.0172260930954131
0.0120378754213585
0.0118232121897584
0.0114502309060775
0.0146658057031732
0.00971082088138215
0.013801480787281
0.0112638643967572
0.016879466482995
0.0113905461766595
0.0155705740979773
0.0104669986620771
0.0149352598579294
0.01105731684341
0.0133469396790633
0.0110596575684166
0.0158367973011421
0.0131021241408529
0.0141009018055972
0.0103288400867159
0.0147072511183024
0.0121725423181343
0.013047202891896
0.0119777622249873
0.0173206214458572
0.0114272040754133
0.0125408399663774
0.0118423020104047
0.0157490423722682
0.0110437260467534
0.0133199005669582
0.0119739189071158
0.014947886840654
0.00982500159936734
0.0163852431550247
0.00928782954483134
0.0143214046045894
0.0109409225676094
0.0148696682043331
0.0110523793398989
0.0144572506629934
0.0118395140237116
0.0139990429399445
0.0119076425895304
0.013642581879512
0.010894958696304
0.0146345913650412
0.0125171643307938
0.0139339780530443
0.0113287798038459
0.0120907544344188
0.0125015426147024
0.0125610942166548
0.010305652523164
0.0145815279365814
0.0121304602361501
0.0137642576005151
0.00737723966302877
0.0134888035672597
0.0117218641043039
0.0141413497795625
0.0104403011518729
0.0129892708581927
0.00961027278356848
0.0116209358150243
0.0110343169037961
0.0125291477015629
0.0089569547478961
0.0132383846095473
0.0105120115747161
0.0110800399713922
0.00937842033894987
0.0120255387223173
0.00750654725151375
0.0105181298250761
0.00968312275046344
0.0118949144752129
0.0115657959991214
0.0118591306813617
0.00743080041968805
0.0102041762487459
0.0105333828902006
0.0125080376311743
0.00794265681151585
0.0110637425898686
0.0101079436535567
0.0119983049874512
0.0117891360918089
0.0119777003749799
0.0136714401634149
0.0154743003624973
0.00986838013007925
0.010893151284835
0.0119224543492306
0.0120267770055238
0.0105908323244784
0.0104732672551464
0.0114277845033156
0.0121510681395337
0.0102904270822993
0.0141631545683994
0.0105456730986168
0.0104315548228447
0.00880367536047832
0.0129512069012762
0.0113176057692567
0.0137847994524439
0.0118100070231124
0.0121386674625713
0.0122090771605281
0.0137076463187842
0.00937185104400732
0.0112477830143169
0.0104113628847729
0.0131632770753741
0.00903836744707046
0.00935581677095346
0.0113046656662227
0.010257388534408
0.00685595326010947
0.0109890779345576
0.0100460747946913
0.00970799368772063
0.00588795891921756
0.0106278844133442
0.0111084419304311
0.00928902217355449
0.00943719347016666
0.0106248878451292
0.00746296759480537
0.0115275315285017
0.00813307392329002
0.00866021967254784
0.0099122683106502
0.00903161994375468
0.00835815128292081
0.0113012465791933
0.00737131803596094
0.0124373735193938
0.00729544297852644
0.0105782683907408
0.00883915236191443
0.0122934958727655
0.00887986878198665
0.0124490825721273
0.01022733599796
0.00968420126562864
0.0091756466786077
0.010662684997783
0.00927353235683122
0.00975069240997838
0.00746039901555166
0.0088811146974667
0.010109397301458
0.010743549391345
0.00932950651420735
0.0104323093599623
0.00986222329384616
0.0102777267310625
0.00952260897197187
0.00803344340336306
0.00991399052759534
0.0104138914239465
0.00679468690827618
0.010224880218689
0.010287629701649
0.00956716181992325
0.00596745911335284
0.0112535185025767
0.00790457261808781
0.00948553141291318
0.00776084806500866
0.00985450718584031
0.00752756627934903
0.00831557846273407
0.00696924040538461
0.00720041754759296
0.00671743034017214
0.0106452822704362
0.00823997700544439
0.00946953161710322
0.00538306600099036
0.00692079277446776
0.009591380775298
0.00716387799749203
0.0101118823808697
0.00918060188407612
0.00819283098181171
0.00750185370922987
0.00954215876006075
0.00736440861782394
0.00802573838370012
0.0077210038375304
0.00836620675367337
0.00845440969817499
0.00653312596943452
0.00824511711924608
0.00874373784835242
0.0081564659614939
0.00921040370492781
0.00820152167200899
0.00697379398173407
0.00360478540441503
0.0070251823969641
0.00737257186953263
0.0100599536671324
0.00915946292159408
0.00783389289096291
0.00700338235249487
0.00839821398709226
0.00761484929584706
0.0099915286637124
0.00779573302429316
0.00663070635021795
0.00406909103826591
0.00856812914076183
0.00331890921536255
0.00696177823756488
0.00383426376321976
0.00537496961417736
0.000550067858412734
0.000814295187196584
0.000359349027864473
0.00433695124713542
0.00701499167186672
0.0146314795766685
0.0055662487529758
0.00455463371777886
-0.00108817645009817
0.00878545957136399
0.00727021904837001
0.0053047705298697
0.00152695311617265
0.00988868283394567
-0.00207064044461423
0.0077351147172521
0.000880133321214205
0.00643616141623201
-0.000554569078000682
0.00886980265831614
0.00342042074168701
0.00615574411760511
0.0061185333579369
0.0132285254216797
0.00801682018615899
0.0133644970705338
0.000601060776149537
0.00831755075819692
-0.00291429543884499
0.0134492461778692
-0.00655964953654123
0.0138685043058168
-0.00485687983600007
0.0171161551057451
-0.0046721969698686
0.0107378507552029
-0.0083443298853645
0.013768732086358
-0.00822657863634206
0.0200647465321113
-0.0137667329823101
0.0250322789695078
-0.0071055172333943
0.0317757801435371
-0.0136325388427674
0.0227904768835513
-0.0188557752558327
0.0277902105463922
-0.0108393231003999
0.0323868338186273
-0.0197686271151819
0.0217926049691692
-0.0091715106731449
0.0348791406000631
-0.00838309284392533
0.0114103753894478
0.00443353251887356
0.0154966461636801
0.00849137743551313
-0.00454948255539669
0.0255121609435571
-0.0092162044741131
0.0270512620795261
-0.0110272238268519
0.034248734686586
-0.0144120021848466
0.0304738563509873
-0.0114972565696089
0.0207531801115903
-0.000805079953635197
0.0159252740232894
0.00349388841589501
0.00892017593493488
0.00620271908763371
0.0103988392743858
0.00686812850184245
0.0128038032006406
0.00313111528130699
0.01306716542346
0.00218650522700682
0.0128173777203635
0.00113943573408937
0.0110227620124093
0.00166582536716746
0.0101299085486776
0.00356468017276083
0.0105000856470774
0.00253665594213718
0.0109756108719451
0.00410443426069619
0.00994453062128064
0.00249265650432112
0.0111864624046983
0.0028179578403765
0.0108115259601916
0.00424772795956149
0.0100478482650266
0.000885252983103332
0.0104055088908433
0.00531705510251981
0.0125158607093204
0.00519312941145954
0.00914374193865541
0.00356403945315827
0.00887401316806651
0.00398515919650046
0.00727873560645965
0.00508870486034125
0.00990179448377134
0.0052287286897862
0.0121643664587512
0.00387075354465549
0.0103661874409971
0.00483515594089994
0.0106812759191026
0.00549985952654198
0.0104433756087843
0.00533724824649353
0.00922529627304636
0.00734374564081852
0.0124365218184954
0.00361261161156145
0.00989743287751466
0.00561994931276078
0.0120253683059984
0.00396345197159775
0.0112865087194937
0.00715420671211512
0.0100334108210045
0.00578755957823114
0.00958901895312383
0.00370315723235262
0.008807574610265
0.00336973794787544
0.00997450927981961
0.00379125736134984
0.00978027801035809
0.00398815724401479
0.00871968907596106
0.00419034495485359
0.00727245809464491
0.00593085719554203
0.0079831549181216
0.00552069152037955
0.00952291552984172
0.00354066875179393
0.00806966194371763
0.00696837049441426
0.0105666459867521
0.00452515129169163
0.00770982545875555
0.00492393760254569
0.00850301469812659
0.00315456790848969
0.009714302718414
0.00278920684881371
0.00853981990698453
0.00427565477770748
0.00792162528452955
0.00399591850887645
0.00800878849105564
0.00656713542929389
0.010539901766978
0.00347291337001518
0.00882899922209332
0.00417417225150506
0.00709177683780615
0.00554837534345531
0.0113959470391044
0.00615180813362161
0.00909452810578328
0.00732052228497276
0.00945357428515709
0.00461620540978337
0.00871332058608778
0.00564471017882534
0.00940660395029474
0.00736148042684846
0.00948521396059377
0.00628174379288229
0.0104124259751364
0.00667649175162319
0.0115351780857951
0.00491155478300143
0.00998288104195585
0.00451155684520625
0.00855999853704992
0.00378363014317858
0.00964350631530837
0.00511488180810953
0.00860578908623756
0.00613951278378382
0.00877014819611327
0.00577837901474835
0.00995760053253215
0.00721045759689616
0.0105504445060955
0.00481388756042549
0.0116526904010844
0.00463410850637571
0.0084535684842705
0.0060482141603563
0.00780564408608187
0.00391818337983854
0.00863057072804669
0.00499378430674548
0.00916130746572969
0.00682539358637295
0.00917154252688776
0.00508513794300594
0.00961967771817923
0.00694528096839477
0.00910029125406346
0.00462813159407788
0.00895120379575988
0.00614610076439648
0.00829352490073047
0.00382414746191173
0.00550189164604199
0.00626846900503127
0.010170801925014
0.00417615715158832
0.00808761516519058
0.00452355938232651
0.0101568182936578
0.00690816223979461
0.00859288061453718
0.00792515543153978
0.00968372729789357
0.00477947837077116
0.00945893311862176
0.0073477663516635
0.00885423187787065
0.00486042453262369
0.0109184553096253
0.00543407748358102
0.0094028699746719
0.00480599095534548
0.00985415424895393
0.00491456264369248
0.00926723760518249
0.0062315603612402
0.00973590166324305
0.00438478987509439
0.00925390246847529
0.0061138398620365
0.00803527218593285
0.00630269648533702
0.00873705664329631
0.00698814630847853
0.00735895207826034
0.00455894890335832
0.0104972401080144
0.00589552039059183
0.00930717503998479
0.00744941231460006
0.0090264230553784
0.00592878558937739
0.00992632201691439
0.0052093688117725
0.00827141635519935
0.00707273314999323
0.00939604147918392
0.00417411772841799
0.00828724142098917
0.00498429684839037
0.0111943632811976
0.00742658247135853
0.00862852903678479
0.00384863011462643
0.00790692688245804
0.00541887073914529
0.00657961212759987
0.00391402486277344
0.00871215913678972
0.00663966084884182
0.00739104768745977
0.00296616746191373
0.00821953851614141
0.00552295633491125
0.00556857140551111
0.00400984405685203
0.00796682399337184
0.00631218064907894
0.00724924497711274
0.00654205827113881
0.00746973176586337
0.00545159298842794
0.0103481507534883
0.00643583338920509
0.00836696287482682
0.00602313833255165
0.00844809432861724
0.00557015028227502
0.00753475582067792
0.00725981618206524
0.00695576284785567
0.00533628838820826
0.00899679901179097
0.00592255679571188
0.00863944248013453
0.00535487028223724
0.00860062856203885
0.0043820649239477
0.00798095816355673
0.00625098695904453
0.00734760693739937
0.00475044371738149
0.00822605060012147
0.00602949101619108
0.00967974712682803
0.00563234990622398
0.00638213826457686
0.00595057539259367
0.00873140763281204
0.005398384759787
0.00768064728173815
0.00425750994909703
0.00779408663158908
0.00660949559146407
0.00510822788855953
0.00411267684205876
0.00812383179633003
0.00432730213423726
0.00624293634816412
0.00636712724475153
0.00686544965142306
0.00311460800803385
0.00814272836919709
0.00604506530660195
0.00675560818731877
0.00470930084886993
0.00756886110195307
0.00623658606888688
0.00801754089583155
0.00766737081037439
0.00719165457194527
0.00493567027106973
0.00837116365436521
0.00556968368729331
0.00591614922067887
0.00425348735389763
0.00749149011159446
0.00455137046071149
0.00925763001211397
0.00403926778769849
0.00871153988596988
0.00281200727431426
0.00709122420145589
0.00413227643510156
0.00555886599186405
0.00629061324552975
0.00779459387793234
0.00806949504238793
0.00730592819747751
0.00577726781509334
0.00850566100025606
0.00308144303883447
0.00759500725873649
0.00511582366892348
0.00873433321564166
0.00644226668838891
0.0085035576136249
0.00480116749892563
0.00808342641401373
0.00474432815160336
0.00775384454899919
0.0056910579212134
0.00620193704252296
0.00774668782200145
0.0100416561976411
0.0062697121876224
0.00719961291772087
0.00440273215076294
0.00764309300860169
0.002976041181237
0.00782498223256262
0.00444358228527538
0.007717945710864
0.00322237488542524
0.0083863591718146
0.00300375016170879
0.0103621357746705
0.00520766136460398
0.00775567399993721
0.00327230254003072
0.00768759213395741
0.00632545982052376
0.00809267174156745
0.00383406551988876
0.00867931167643525
0.00300135802901391
0.00659232651035236
0.00522823194479242
0.00812207067244364
0.00432275728487699
0.00646392689464155
0.00353892236902005
0.00731077437253715
0.00168910088951703
0.00521043330323419
0.00424673208591395
0.00659702853989677
0.00437313111182225
0.00861780944985209
0.00376071196532195
0.00842958103222242
0.00087481642678417
0.00830607036760113
0.0105310069192768
0.00450050334166706
0.00661467660786524
0.00698366624895689
0.00737242092114204
0.00775355156309335
0.00828078660403636
0.00565618726165068
0.00314198840671879
0.0060919787629192
0.0060567231647705
0.00604587394031945
0.00384053579302025
0.00790980670376326
0.00602909723638276
0.00686573395218834
0.0046279315320369
0.00671726839914103
0.00489005718373218
0.00635682231125134
0.00515693106352638
0.0063274853880828
0.00631812764416315
0.00541873423053557
0.00464805124349812
0.00368863982819108
0.00698500304498117
0.00937999600150291
0.0044622877755164
0.00570779334125918
0.00451335035256013
0.00706656035846856
0.00662515939562344
0.00561346098989875
0.00224371021164101
0.00776594555689151
0.00598928655334374
0.00524340780140193
0.00380495496151899
0.00520651394536614
0.00430792848946165
0.00720586396465084
0.00545390605243672
0.00529414161045792
0.00593595559422463
0.00522914588968747
0.00356835196189281
0.00386998433597111
0.00625272853301683
0.0042417479061847
0.00692562474122169
0.00499074379584371
0.00187164481520086
0.0141215084880434
0.00375137404451814
0.00848600596532872
0.00174882637968227
0.00605336951547822
0.0022174420293379
0.00700925153749584
0.00313747528979134
0.00764456820892358
0.00327795834718791
0.00777685643399582
0.0012232878224906
0.00688615568296737
0.00320157014449769
0.00577606947556707
0.00082222399952598
0.00675991827437936
0.00175300931763164
0.00844443053569193
0.00173307221715568
0.00709141061347287
0.00831186676022921
0.00481397217527601
0.00511185740484724
0.00962340126369102
-0.0067121283265277
0.0257499266187841
0.000231492555628977
0.00951148207320062
0.00371982802939035
0.00667278629348427
0.000518135487570199
0.0100049750060821
0.00158497404778104
0.00582277710846298
0.00701877832526993
0.00534964657030625
0.00741069912036706
0.00361482820201943
0.00296214392089059
0.00581067802660005
0.00363149805402216
0.00471836000536888
0.00447922449933591
0.00722618496865368
0.00175988256645885
0.00625120033225124
0.00134108748012803
0.0079121467189147
-0.000121468126874667
0.00793456412918921
0.00579368388298151
0.00500701477370654
0.00287273254582642
0.00880636039341351
0.000994543678902396
0.00415526456008324
0.0121401179273516
0.00213650404958505
0.00816980357075365
0.00438676750486232
0.00640866162302667
0.00378848363585225
0.00649192172047362
0.00436328004407727
0.00544521507358778
0.00484994256862131
0.00556449624439682
0.00540047442228538
0.00289068918347208
0.00501992016894948
0.00485809937102979
0.00407953846548705
0.00314390546162227
0.00691899945347382
0.00345505333800145
0.00673163736290166
-0.00211198685736972
0.0144858833132941
0.00418032088358505
0.0116931000839271
0.00774697462281591
0.00638690215143482
0.00433139302072736
0.00371097464213139
0.00441653109255924
0.00426207371704024
0.00533538003543662
0.00429020370901935
0.00533474668751686
0.00554401642283504
0.00523316763043807
0.00356887538212983
0.00605605105730458
0.00473810568000177
0.00861101085152491
0.00481771279085878
0.00771916903222108
0.00118045549817375
0.00909109700840753
-0.00332914075966026
0.00983045149374788
-0.000289653692236419
0.0134520530852159
-0.0149569603579194
0.0223903072524864
0.0107573819400095
0.00591524860037878
0.0101047884495136
0.00227604463463741
0.00683712325815217
0.00262318200773005
0.00567561058091522
0.00674986538696583
0.00425605115767055
0.00351118725930584
0.00664992791276275
0.00264430304530403
0.00908420874643131
-0.00137409956500966
0.00781691385158122
0.0193535931547555
0.00533741208863628
0.0113480999279722
-0.00324955125021647
0.00537591688850425
0.0236708360125622
-0.00010889588500549
0.0105867635086749
0.00303767093621199
0.00943490070326568
0.000745629952531529
0.0065781528423744
0.00100622896179968
0.00923864796506909
0.00354790143225414
0.00711794073151021
0.00499574273314968
0.00359337469516204
0.00475660183199171
0.00211809168224857
0.00662006183503393
0.0138721549574562
0.00141652046632586
0.0106056367537826
0.00401318818581048
0.00628591495973811
0.00233838245755563
0.00914044751160259
0.000746846054557119
0.00609446791549028
0.0107650690808582
0.00267624855266277
0.00952734301035112
0.0137013151052806
0.000797138101146101
0.00829166547793485
-0.00114251138938083
0.018293111251768
-0.0100822879187145
0.010256660573884
0.0133711352039088
0.00892962476611583
0.0203499890733049
-0.000370545628588347
0.0113552126773275
0.000184528647460967
0.0107375377315569
-0.00702663461463526
0.0259471797309102
-0.00630200184142861
0.0175992996590196
-0.00675152648483765
0.013713679670581
0.00611388598440738
0.00877267696281892
0.00336326781732346
0.0068718694048562
-0.00311996902558706
0.0222961316119286
0.00730152887729192
-0.00222572678356415
0.0219861672412577
0.00378378749566602
0.0288335104618473
0.00523813736320919
-0.00440715894971185
0.0231404411908592
0.00242292777152274
0.01430919087413
-0.00106303627605379
0.0117046527078182
-0.00258257201800449
0.00287693029846653
0.0263859636231766
0.00239291281995681
0.00990637199270555
0.00981676289087486
-0.00131806457761757
0.0226361366306705
0.00556157885543064
0.0121291340166612
0.00353194197123633
0.0145314126781011
-0.0185403956419943
0.047265557080018
-0.00215345388708772
0.016449331824415
0.0139817703461617
0.0124677201512646
0.0167272719153857
0.00982625544707967
0.00391920330488088
0.00931870077593463
0.0161129450272997
0.0104819897723193
-0.0031640207118718
0.0145731135206865
0.019937264053115
-0.000324491764484404
0.0177744751218978
0.00209956714901481
-0.00314831657169975
0.00867400097564776
0.0301228144011846
0.0232390927604095
0.0131316275578952
0.00503106833231432
0.0248400565793973
0.00579675109625377
0.0148445323725936
0.00816970142895051
0.0101053373292552
0.0086168135771881
0.00445609925238777
0.0147087602394726
0.0064856587478434
0.0182698364849322
0.0066104922382031
0.00784231307310334
0.00569432827870111
0.0229930536207712
0.037445761587171
-0.00124173445088105
0.0346082185124477
0.00955473765871194
0.0264194305868075
0.00693636954037577
0.0116509840705047
0.0107322670060686
0.0159473413692973
0.0153131626393309
0.0052788524432898
0.0257625385478186
0.00882133884490964
0.0246091625977362
0.0255702886461465
0.0118642713332948
0.015333813964649
-0.0308062716161903
0.159800053789692
-0.000378600034470078
0.0509205379732097
-0.00574267603243309
0.0321922896982852
0.0423227425001203
0.0273775027978561
0.0147516381174743
0.0260135637304977
0.0134816728681914
0.0241345420268545
0.0148809286226137
0.0273221478694294
0.0235503547019026
0.0306594021562992
-0.000631888793445562
0.0371778237046987
0.025312625381359
0.0614164233474181
0.030772460734751
0.0330092605438521
0.0326625289019185
0.0406165820248589
0.0209488670518411
0.0459066439524447
0.0111509308428797
0.0300162336973487
0.0543376857715892
0.0342270857962731
0.0373350606832562
0.0188325492078635
0.0547555933445129
0.00385419357121126
0.0846319247411457
0.0303134030821003
0.0530618221430867
0.0299471498962334
0.0438869935410095
0.0357876175323534
0.0288187635859752
0.0571284508724329
0.0433664523663268
0.0470392554879289
0.0403082310416277
0.0469343324814279
0.0400335563916317
0.0430430599771534
0.0447122860710912
0.0337815995332779
0.0490480425962652
0.00367793994949856
0.164709896810461
0.0419776684099012
0.0566500490332446
0.0419300582292152
0.0421438904293569
0.061678495535259
0.0265882764264421
0.0848791085270631
0.0457476833191679
0.0530717860470156
0.0459160848782751
0.0467035957301034
0.0474124162047745
0.0421087903803048
0.0556144454882244
0.029004512895162
0.0717566916500654
0.0133353759328326
0.0812838935869488
0.0634833335283537
0.0504031902609024
0.0419635181520338
0.0442295723609325
0.0388353828627855
0.0508395348980746
0.0336890791935588
0.0383315642213444
0.0516765859872626
0.0360611157262694
0.0525574899845148
0.0218778085744998
0.0595095568933749
0.0427816753494154
0.0446185421756414
0.0436901251374134
0.0367170074215764
0.0509313377157856
0.0184809039250051
0.040293877304519
0.0643359379473884
0.0377171870837091
0.0468181996515408
0.0324730397768155
0.0455430176380267
0.0387724365840982
0.0390690729966068
0.0373849919992583
0.0415422560715764
0.0355855155799827
0.042135164648075
0.0344460094512045
0.043145942043297
0.0315088851634218
0.0419672198792066
0.029578106352032
0.0480773462011003
0.0361431412415981
0.0390163007366504
0.0351635807979057
0.038704630433835
0.0335098532824001
0.0388089356911077
0.0384339565061163
0.0444560019428221
0.03211798149669
0.045904704555196
0.0358011243414013
0.0423977066858785
0.0336005428931959
0.0407795848881631
0.0350771826448382
0.0369713842389784
0.0311780153683617
0.0388693839622532
0.0327185131142709
0.0381573285626022
0.0325875290192686
0.0395939606522753
0.0326754019141745
0.0343089288625477
0.037120032387901
0.00868466164427685
0.0743466941839514
0.0361669817732591
0.0427275668204603
0.0300077565769139
0.03202064042022
0.0338943871652093
0.011869903670092
0.0619337007664933
0.0325860640456202
0.0382723281587559
0.030773887141211
0.0270064648744285
0.0341827022898776
0.0324115259498576
0.0231212252755908
0.0416445826539996
-0.00271304219951555
0.074218807268212
-0.0038895104453757
0.0939915711562529
0.0447881889826721
0.0509384469933472
0.0134236177034716
0.0446713723591221
0.0438064695664235
0.0254950437580043
0.0324621548631432
0.0100397150544011
0.0420430791026866
0.0267033223916043
0.0281231526409424
0.025200135556684
0.0118341959073055
0.0348581541081873
0.0415411496241504
0.0194073152439648
0.0350673466225706
0.0302121791477823
0.0130778951310707
0.0361554978344928
0.0531475109440395
0.0441936144975816
0.0217182600313031
0.0349229469723293
0.0109427533138777
0.0191588495828401
0.0411932524216844
0.0209983277745575
0.037649313680649
0.0153452763824438
0.0263945966607353
0.0165382769777676
0.0339966149221967
0.0138371823696142
0.0195953779812851
0.047975765365732
0.00862899878913373
0.0402401774660064
0.00330245156212382
0.053801625152372
0.0263004930318393
0.0383872025318467
0.00113592274214604
0.0423562370761854
0.0257182216041543
0.0239745145358207
0.0313160528905165
0.0131803314387619
0.0170281358703617
0.0339761333614041
0.0108647975596703
0.0307703068683007
0.0169640341701498
0.0249858635495534
0.0278827643041418
0.04127853420706
0.0458330031829991
0.0283860482679307
0.0184815602630926
0.0222388732373346
0.0142308544618997
0.0317332583797033
-0.00421102589852527
0.0518268040302837
0.00928731913813538
0.0240949751131149
0.0348111201892204
0.0223257166873152
0.0220611456315519
0.0229220809092338
0.0136516756685166
0.0224841313285776
0.0185362455178703
0.0519726534474918
0.013049072567498
0.0362995720783545
0.0257043662792546
0.0294554907631262
0.0218532286960572
0.0279518684966197
0.0236996525003881
0.0245210082999437
0.0315852770968738
0.0302182230487681
0.0214941733890773
0.0346883265676264
0.0132683977816354
0.0486096614620973
0.0412332199729867
0.0239198910606769
0.0538138793686694
0.018985644168687
0.0657839778861771
0.0347836145750696
0.0439511119484641
0.0369145818015254
0.0353573380822071
0.04233919323404
0.0234711885154961
0.0438555576794023
0.0522331963364256
0.0402382508989615
0.044696958551442
0.0341910276777091
0.0449657112899849
0.0252138824161626
0.0611029340481471
0.0140404411825051
0.103458557455506
0.0472333976394211
0.0591676771061514
0.0457619306125108
0.0409009816355479
0.0515963202275683
0.04094124739
0.0473699854928139
0.0377822472290972
0.0419306108013765
0.0588258420536349
0.0425720158201259
0.0491881474823605
0.0414749364347129
0.0448766293531191
0.046782629570925
0.0455518917450038
0.0476473621276564
0.0405054242099605
0.0562835531934063
0.0380257142632611
0.0401249945122364
0.0923941836484338
0.0453865574930601
0.058176386743976
0.0439663033872946
0.0621403710741625
0.0445790543861196
0.0469179954423703
0.0641976851339858
0.0571373606643511
0.0559142058983401
0.0544668126609245
0.0550777119501981
0.0528891955410527
0.0539381238430613
0.0714934734728314
0.0432167439173271
0.0733673202424101
0.0255439300756569
0.0989251946503426
0.0569103467412833
0.0660183331055114
0.0605394559746679
0.0571460457422157
0.056375788131643
0.0550998214250064
0.0581304446374305
0.0546458763643977
0.0585330990834331
0.0530505038331054
0.0581607113066616
0.0520706794101919
0.0586332571904334
0.0509375488259539
0.0530135286980534
0.064427885215019
0.0523107665824847
0.0555924474392202
0.0511391089477485
0.0569324887556416
0.0455507396297344
0.0690578085933336
0.0528313682900481
0.0617454431729611
0.0482190617113039
0.0506578117963948
0.0653712315526864
0.06121947472099
0.0518542094313652
0.0544321445156988
0.0446988523406739
0.0605426129002694
0.0429547826385844
0.0590920951088903
0.0573573151994733
0.0566316358307519
0.0553173199055487
0.0553000014445996
0.0560027608632551
0.0540305739399625
0.0565503786216344
0.0534788925189399
0.0572665695797312
0.0561649765644998
0.0600406862360834
0.0526097432165638
0.0573438696876234
0.0531785838009302
0.06343907929398
0.0620499596583196
0.0512977172969043
0.0567081998599772
0.0481919867721806
0.0556816377670188
0.053599011402605
0.055558325291606
0.0461307389685278
0.0574721967435164
0.0461730789595678
0.0498946065441316
0.0615762829779534
0.0471846884842579
0.060822642087482
0.0416885938651776
0.0534581274742293
0.0433332193931842
0.0501334554997616
0.0413909015778428
0.0471074369264696
0.0433447205640156
0.0463458428213642
0.04371956959458
0.0434146806945722
0.0404765285138009
0.0431151716693126
0.0445406884488384
0.0437949631228809
0.0446702015859674
0.0426572618101712
0.0440373209592181
0.0424281564823646
0.0396947880158855
0.0443427346952044
0.0382185638423884
0.0486687608580499
0.0406399189696545
0.0491508765590706
0.0372410577592491
0.051615422409055
0.0391610701338233
0.043555068112859
0.0414824308819169
0.042456701211495
0.042220279347128
0.0422022299452001
0.0411445675604818
0.0406435615931618
0.0388473214310243
0.0416456368290771
0.0458573514890184
0.041898876810615
0.039895405901018
0.0429665513381567
0.0459686567654322
0.0412056510665149
0.0425860243580193
0.0399421026704516
0.0467542926152986
0.0402463599029754
0.0447227734393366
0.0429407983308362
0.0428318546732645
0.0448627047091884
0.0436432984859659
0.0458458881268027
0.0435304503295526
0.0421815758776954
0.0414594386393953
0.0421916400022324
0.0417913508748407
0.0428063016762259
0.0408500748316093
0.0418108836319629
0.0401966530172134
0.041134575777933
0.0421241544175963
0.0406710475215012
0.041657185655746
0.0379370380251057
0.0381987433606474
0.0375415627017949
0.0389073364391685
0.0367661272495385
0.0365069420847027
0.0379549173738381
0.0364166969404131
0.0365259830483849
0.0343495989989614
0.0336754672219082
0.0361087576450307
0.0362042125980917
0.0341389713875861
0.0355930802865429
0.0355245619088276
0.0354726659346703
0.0336477170096179
0.0346734267707815
0.0342647483689458
0.03508470441217
0.0348005644741321
0.0341422124781349
0.0364813963401133
0.0343810947726376
0.0346949039151601
0.0339819934208682
0.0358903433414804
0.0355539370127649
0.0352083390393791
0.0370325016183641
0.0377427004022305
0.0368803062858455
0.0370137002284103
0.0389655712971075
0.0362322624825398
0.038987279150715
0.0386885455133232
0.0406992207229024
0.0387247659334885
0.0386193647410736
0.0375597031059825
0.0418489521514768
0.0385729119621609
0.0384647004020311
0.0359006325974818
0.039428397069263
0.0383659827951892
0.040677707206355
0.0387287766018706
0.0398829218111582
0.0382865482111049
0.0398055967786322
0.0386609277726451
0.0370907519715672
0.039022841474906
0.0377978879755923
0.0364361127508055
0.0364059977151604
0.0360485167767046
0.0370914847513145
0.0379133269907011
0.0371651648239787
0.0379269578088144
0.0372779865547537
0.0359819255580266
0.0362865667882745
0.0360267804636811
0.0363172293524943
0.0368683938233316
0.0365231837065805
0.0341745441908989
0.0350814311533206
0.0347162331421878
0.035562441930182
0.0346731580152808
0.0358807806544156
0.0348333694010584
0.034395393036714
0.035019020486915
0.0336813703971058
0.034316663699909
0.0328961085261188
0.0336762213033362
0.0354302017498599
0.0340984824724763
0.0339648809054287
0.0340582205113035
0.0344856051592977
0.0331270577963082
0.0334758359196323
0.031581122907433
0.032158319722142
0.0332935432928955
0.0328839048135163
0.0312385779966677
0.0311874947366682
0.0308700438656951
0.0313704456365983
0.0321193009170299
0.0298970567747287
0.0308053814406125
0.0311360772749111
0.0315993770698868
0.0312214337003362
0.0299949427668206
0.0315790577692329
0.0316147556972064
0.0320569576180667
0.0311937640930974
0.0316137053222585
0.0310369321055909
0.0313836907064452
0.0301720645256506
0.0295803861049228
0.0299815251130149
0.0298440139091503
0.0295071680122706
0.0302609611858673
0.0296559203796519
0.0303955828853453
0.0316415419843912
0.0304699365938699
0.0286507127031781
0.0313484927490258
0.0322349840461106
0.0327566607226476
0.0352799887970739
0.0376512818477677
0.0384711247116728
0.0382849878068409
0.0408775927714248
0.0424601505362417
0.0453108042040392
0.0476516775452694
0.051355647254
0.054095655579662
0.056819582111939
0.0589317233471723
0.0615510313804599
0.0621477600368651
0.0649357543086269
0.067772010007254
0.0698230650096363
0.0721195255334979
0.0747910493821105
0.0746949538851567
0.076807490284364
0.0764026685969511
0.0790210796875273
0.0798352363400151
0.0808607367290098
0.0839730698520496
0.0837666323112379
0.0842601148431788
0.0852777829683686
0.0857685464360376
0.0854948722416726
0.0859074852947126
0.0841589140709236
0.085046388043922
0.0834621566006576
0.0822002958267028
0.0852627942405278
0.0847654176518668
0.0827501941681137
0.0837731394796358
0.0859904517653749
0.0856621796370044
0.0845807039455632
0.086598255022474
0.0865254797391676
0.0857212919753003
0.0886843487116006
0.0895811088297168
0.0887170813160626
0.0914512547113811
0.0918950313741267
0.0938225015401774
0.0950782075679928
0.0965202057168438
0.0974298727449541
0.0983955711739169
0.100637477924226
0.103476329323827
0.103436965256982
0.104320855887129
0.108080626534679
0.108207709695191
0.112947816855594
0.11284328524977
0.114171836364285
0.114389254796642
0.117016985030325
0.116855802096259
0.117274712198155
0.117322269404094
0.118406821257082
0.116734452353053
0.116772194762338
0.118679499392235
0.115593053367923
0.116299131012124
0.112943647913332
0.113931347964247
0.113579491075021
0.114551072519428
0.114479467263096
0.114366930563378
0.11633039367573
0.118728937156553
0.120653408167682
0.123193908784209
0.127678906867305
0.130950850011258
0.132428295185181
0.131876033587272
0.138607661487638
0.142133787788053
0.145235301969796
0.144559172679239
0.147860254183519
0.15291279803649
0.155442057080958
0.156800701653404
0.161716067824105
0.162604061824837
0.165340503630547
0.167632745881158
0.171894861455476
0.172552378754512
0.179115066927717
0.183682080643169
0.182390918228316
0.185800216157171
0.188926101725995
0.191139549678599
0.193609535050575
0.192982189150413
0.192249285162419
0.195266900892928
0.197251473454912
0.201997309813186
0.197080766188911
0.200137747660309
0.197750805592174
0.201238398756689
0.19947496665242
0.195845757856066
0.194937572190001
0.191627107868012
0.18933730539934
0.189979797318269
0.185352335884071
0.185847183961766
0.181879656737085
0.181325289417273
0.181864520801129
0.17670522998563
0.178269995420026
0.177477026544626
0.180505047665024
0.180526700047147
0.180288879775329
0.182189590978135
0.178762791525268
0.188184133300603
0.185229566525844
0.18508022733702
0.189699933753406
0.189881525091825
0.192056580064364
0.192902936513332
0.191820148306932
0.194549848093055
0.191535672911124
0.191557573071893
0.195588775205726
0.189467039986038
0.192033967352331
0.190697710490949
0.195641582905524
0.186729897055735
0.188866778226562
0.187871528397235
0.181410726936973
0.181821147791463
0.18175567418304
0.180000119282918
0.17801972555859
0.175379174570795
0.175547900570863
0.169953134346652
0.167256592104743
0.166632199766736
0.162346265056131
0.162115452348954
0.154956138889981
0.154257911996843
0.145464943608877
0.138506160187197
0.140306029144307
0.133777417741783
0.125015831080545
0.119449373011269
0.113765614964292
0.106630959601053
0.10326487281464
0.0947392790759961
0.0847466889831897
0.0824338700728413
0.0754563575785693
0.0641978701740789
0.0562104850369489
0.0530770975068483
0.0469967551643966
0.042746970740329
0.0411175733805766
0.0373038469720899
0.0354940654714696
0.0353145508927854
0.0338990582774314
0.0302260935282961
0.0332768735495371
0.0315385407996278
0.0273731203718107
0.0293396400772911
0.0259555885203327
0.0211677562905598
0.0241599851839364
0.0205326281860448
0.0205130849978866
0.0200695743813373
0.0156239744644539
0.014403927160473
0.0140775864186095
0.0122975642077713
0.0106892668380155
0.00804217814482114
0.0054861047090957
0.00461746058908507
0.00365498177979345
0.00178702338774116
-0.00372405189609374
-0.00145102140155363
-0.00470010909108237
-0.00561928571446347
-0.00471242377373518
-0.00563849538253697
-0.00794944368625142
-0.00722269028844761
-0.00669263134788345
-0.00769759273849383
-0.00683548567801267
-0.00489887100548834
-0.00600226771942459
-0.00764277469233305
-0.00563999240081915
-0.00938731662478967
-0.00696540289025616
-0.00633927506697835
-0.00400838696084887
-0.00682364086737262
-0.00340539917271729
-0.0047151927307362
-0.00373904346626963
-0.00543459527790824
-0.000704569197378382
-0.00160208608218066
-0.00286838404235828
-0.00297134726590826
-0.00294958390350759
-0.000778674008223576
-0.000877888248424675
-0.00257207752375494
-0.000866854300104918
0.000122841804355457
2.39942282654932E-05
0.00166608897666219
0.00178681197699967
0.00050267547486121
0.000684558454722846
0.000422620203895819
-0.000937503182261726
-0.000195391761239467
-0.00155110133938044
-0.000966328228567133
-0.00132493644358165
-0.000535401416618742
-0.00220372129253777
-0.00224467959972929
-0.00388721204146475
-0.00329948025128235
0.000159666885472852
-0.00263862974908216
-0.00297667763121505
-0.00238127640653519
0.000646303577385762
-0.00383818553146837
-0.00286915130541031
0.00113148292212115
-0.000148150386536486
-0.000712933256477381
0.00216062472543456
0.00105953861392243
-0.000859090481931645
0.000900445248234776
0.00527134188822286
0.00562296242856486
0.00601453469420337
0.00285020437294856
0.00154046969343358
0.000920871347462184
0.010906279393912
0.00206034342482599
0.00465924568808253
0.0027989301533285
0.00548085040925124
0.0105013146661067
0.010112472789685
0.00616103332215417
0.0104289138683973
0.00626057170183315
0.0095276186383375
0.010853400978159
0.00902009664208381
0.00819243977150188
0.014693821028576
0.00830730502342845
0.00865176828415467
0.0173150867302751
0.0102547659484186
0.0173435939721267
0.0162575463113851
0.0147475642947738
0.0168821753763358
0.0154326974362571
0.0151875346590915
0.0187454426054135
0.018824186110599
0.0164285414626911
0.0187637971132836
0.0160089805328285
0.0112123614518367
0.0117880013592024
0.0150898636345319
0.0115471760858285
0.0120685202679016
0.0139611055547418
0.00911912064151971
0.0127655081417926
0.0161168115982754
0.0158894940191703
0.00886251745287657
0.0121572917807527
0.0148578099518111
0.0133443577241835
0.0096604202927626
0.0125451923661139
0.01522034790264
0.0114751048839451
0.0113803709566418
0.0102077812323128
0.00896272175043548
0.00679121533973023
0.0125694733954639
0.00960505953814939
0.0126951665233382
0.00667011706822569
0.0105054755238762
0.00955434876251155
0.00468229017925656
0.00578635512895407
0.00730309681976572
0.00139343918922282
0.00423303253664483
0.0116062382770379
0.00369515610236023
0.00555211387151202
0.00544457086185759
0.00489597399987685
0.00403130320590434
0.00444394331436052
0.00300031106960086
-0.000345495257607401
0.00742390181541117
0.00773262792038892
0.00140966139741848
0.00409500291917433
0.00480826592710391
0.00267389356693842
0.0104898457535833
0.00460763759770653
0.00423084427430269
0.00939796790648105
0.00387043636916848
0.00537094240002492
0.00308072560150212
-0.00632251983028682
0.0049326245887636
0.00738874927367408
0.00328709000530224
0.000853283014495718
0.00484075039114764
0.00719266774416454
0.000327049303025457
0.0108158224122407
0.00361675967067001
-0.0006788313131971
-0.00231535076213381
0.00588209124262441
0.00632186808297352
0.000862477896211508
0.0092170820884808
0.00741053435304895
0.00305512923981107
0.0121787508859458
0.00782555160432364
0.00343261788088876
0.00958187455388883
0.00805431873448634
0.00908379313433997
0.00114823509158637
0.000750090190718213
0.017198807819778
0.0115981657435028
0.0122169116431853
0.0120936019265207
0.0115408047135157
0.011236944682754
0.0172122264394097
0.0140052421605217
0.0156790831944627
0.00718925906307869
0.0143974045513372
0.0151792560871921
0.0150949992691399
0.0133657916342003
0.0206586366470499
0.0173205185458991
0.0235076218957519
0.0287210670039043
0.0181249943920855
0.0192892009916695
0.031687207683909
0.0225286340326725
0.020070500068166
0.0223296286511874
0.0214479650269494
0.0289723416336937
0.0150521008710212
0.0399952285435019
0.023047292464146
0.0301725495920752
0.026554121851841
0.0428777436893553
0.0240595253771289
0.0267252416988202
0.0190148348476628
0.0217841092811032
0.017088454216024
0.0176094566003678
0.0122180329277613
0.00747341022951748
0.0118946849277212
0.0215923504155453
0.0225584955598708
0.00626387391076256
0.0165755001481261
0.0234103450615508
0.0037086058384997
0.0149001600822059
0.0144630089592675
0.0315502674812432
0.0122763602085166
0.0158787775618397
0.027851168150139
0.013846459738518
0.0108880841957109
0.0267313688304265
0.0203743919641484
0.0110354743506542
0.0169881417096964
0.00818991996556917
-0.00708654610095106
0.0141857834116414
0.00588776696699614
0.0169102869992527
-0.00179836881151023
0.0174612128208163
0.00891655276149502
0.014658969949629
0.0126818136662994
0.0192941676889732
0.0154682606045899
0.0120321521931995
0.0146618718034684
0.0077999194717423
0.00503350044844428
0.0396896530945086
0.0154771515890966
0.0465050982247633
0.0139606469199533
0.0130192907694553
0.0218873522740307
0.0142694046325992
0.00210022168208112
0.00997385593110718
0.00996903542615469
0.00988932307307183
0.0108936912457777
0.011624188647367
0.0113725223378285
0.0233559963352669
0.00621105183432987
0.0126793797286927
-0.00823197514487775
-0.000434458298491497
0.0147705525261656
0.0376201193104029
0.0200829262303488
0.0155174369702579
0.00138287606731033
0.0257004335991509
0.0271371982331196
0.00515222645647764
0.0220869177320505
0.04483176248156
0.0424960458278386
0.0453723514283344
0.0155873833119983
0.0235260944777454
0.0206013320202168
0.0429727426277366
0.01822591741321
0.0569403025260444
0.0275528754671078
0.0384633525455077
0.0256851237722627
0.0401777173653369
-0.0027687942700825
0.0130204800002154
0.0223767109802707
0.0329939006599136
0.0292581866275049
0.0327464290738301
0.00870594674245768
0.0181584551096431
-0.0181001261067499
0.0272718454036303
-0.00245696498021682
0.0256631338393058
0.0303594252301131
0.0879195798515968
-0.00544726651651963
0.0598936172653601
0.0198517390288626
-0.00888920018593716
-0.0106364111981524
0.00788828162172428
0.0400778698741562
0.0282524266627004
-0.0282358754702155
-0.00779427318893927
0.0270380368474458
0.00753263171445589
0.0460913247587424
0.0381936991162806
0.0152424910217381
0.0188896124202438
0.0163634849938529
0.0538496009211758
-0.0412257670844236
0.0503979146102512
-0.0535975619540974
0.00553418987534714
-0.0548628906053177
0.0515851168789151
-0.2794442172181
0.0354910261236149
0.00819294741879252
0.0193487758504828
0.00819719811255116
0.0272268902861896
0.0601440760291391
-0.0127160782527489
0.0332749706149503
0.0634374214991046
0.0503039888950951
-0.0585236224454899
-0.0384729772903171
0.12455261307176
-0.118984961818182
-0.0408443368769512
0.141635179715532
0.176619567237046
-0.192174333829597
0.180477484309762
