3596
4000.36533379555
650.420452594757
1
2
2
0.0310578104413234
0.0147197405219936
0.0220747598468474
0.00742082449556217
0.0362018172231998
0.00718117412578745
0.0227886588874428
0.00951580644389735
0.0183756409626399
0.013089222497881
0.0234078468740378
0.0137624456662216
0.0290887342603331
0.00879625541761344
0.0347221886530328
0.0123562377981668
0.0249389215372222
0.0163957620346416
0.0190792297696143
0.0116024431837582
0.0266816761947926
0.0151238330980875
0.0257108999020816
0.017432313184283
0.025709448985451
0.0146298860528153
0.0284772130392565
0.0109911318899272
0.0261333976114654
0.0172345147091899
0.0253646795533613
0.0081279126395186
0.0263429193190245
0.0122848588460618
0.0250610093516792
0.0146041406927482
0.0253094531326444
0.00726266618266288
0.0166185987594938
0.0166862731470492
0.021230314607457
0.00974508087902032
0.0301340225757702
0.0124455321226914
0.02195581862749
0.0077969697881039
0.0282949983796272
0.0152328611154168
0.022530078336386
0.0149506206547378
0.0251210338689132
0.0124588154639073
0.0197688742721542
0.014329292895115
0.0298768719611152
0.0253006289726964
0.0275529268063796
0.0107480702921807
0.0284400783858124
0.00672126065721155
0.0287304577898459
0.0230706371765058
0.025207979909862
0.00531049169732693
0.0282376670119373
0.0128818450458725
0.0281397867170846
0.0135674915557867
0.0228541350243943
0.0108775355489895
0.0263308628993297
0.00408805495187787
0.0294983399169759
0.0164329091009176
0.0329994899895987
0.0117883531160944
0.0280291048792966
0.0110491672667249
0.0192700834388378
0.00690976985352719
0.0372045812234487
0.00920174548228187
0.0250997926045617
0.00800996707975819
0.0278192501908766
0.0172961234256682
0.0243446347003028
0.000444984666696852
0.0376621209241981
0.0200342838003399
0.0285453357207769
0.00538793367647141
0.0268902908857178
0.000378816223178988
0.0246758610736397
0.00647043735570503
0.0233394033995705
0.00962292319218094
0.014195904765842
0.00999206804786625
0.0157978912521884
0.0139402814549535
0.0466953046731324
0.016266684782185
0.0452203471061541
0.0219625304053244
0.023963894452143
0.0275658970004373
0.0433812608349149
0.0124129134550845
0.0239099670342397
0.00549952445155347
0.0296098124709044
0.00967427162506047
0.0223615537625822
0.0153954231467523
0.044122899355742
0.0212185316735149
0.0282061892386632
0.00929312138414237
0.0124474821547861
0.00554609130120485
0.0458572213900361
0.0133804628602209
0.0330241121137993
0.0202183660506381
0.015338850105492
0.0150972085288697
0.051515685763796
0.0205308701907052
0.014573183830087
0.011227346284166
0.0203924357240876
-0.00102787869251295
0.0415074263865561
0.0208568489852512
0.0221018901518836
-0.00215463616195482
0.0159946340799516
0.0472374417559167
0.0464551305009939
0.0148288798020708
0.0122565656484459
0.00723083475312359
0.0523892138411703
0.0211493073142944
0.0138186651345077
0.0115164799603929
0.0323553908114197
0.0158286885373333
0.0180280739321604
0.00123305498911338
0.0276850647628259
0.0074575185122393
-0.00487316210461498
-0.00250112931847423
0.0652261227026015
0.0193984514789029
0.0513288815544235
0.0316863027782423
0.0228860742701338
0.0149273618590928
0.023201387001857
0.0115289135669487
0.0258953193094173
0.00711213057725887
0.0290536888042462
0.029812125301734
0.0175717017250104
0.0109330757702211
0.0472836781759001
0.0109285702278306
0.00933865657104446
0.0351143160627916
0.0347963567306338
-0.00267598923303076
0.0413583795030267
0.0313278371305958
0.0103959312157607
0.0110129710454558
0.0431249558740333
0.0169910284422897
0.0222175114762719
0.00289442760043102
0.0225139910866525
0.0268581700319134
0.0333152590854776
0.0109934358196181
0.0180346923319194
-0.00490720001221281
0.0171764593334361
0.03317666707862
0.0423811830642917
0.021219279052931
0.0243708702757019
-0.00617156871918194
0.0281570967774381
0.0460435756777203
0.0249886584447831
0.0111273864565343
0.0210416344247656
0.0168434101867071
0.0200765067793028
0.0130648587646469
0.0141611547940218
-0.00622976053059012
0.0373323281423073
0.0310404867635803
0.0228146447732589
0.00901426514991973
0.0137238437687113
0.00107517148065809
0.0385121118056457
0.0301153893185579
0.0258116121531416
0.0181688212952072
0.0139454378927703
0.0204038940068231
0.0394549106123008
0.012670072880824
0.0180754832575672
0.00979895598622314
0.020334543997207
0.00744958216402998
0.0210454497005576
0.0103122857466195
0.0257977723992542
0.0141725544735342
0.0228496704957269
0.00985551944852317
0.0250812024731527
0.0175434472921431
0.0221814371613222
0.0125639726980241
0.0182114494670426
0.0106987618397227
0.0361797105963504
0.012590996983796
0.0190381108390335
0.00781739529797815
0.0190990593556492
0.0112163207680319
0.0181131526545096
0.0176276937635074
0.0133398513623019
0.00283784737165629
0.0330518651226125
0.0310677782502585
0.0229917920238814
0.00782027073794112
0.0295413201096988
0.024807818853686
0.0223098993765458
0.0138694777579177
0.0237237438315262
0.00654574477233602
0.0217214065472827
0.022204938607483
0.0267699752283958
0.00761857728722627
0.027149915726314
0.0156742856669329
0.0231340246882795
-0.00627465710108927
0.00353794915077565
0.0455719620724077
0.0285409983352938
-0.00605891023025025
0.0627245722788338
0.0329320068215233
0.0335134810899413
0.00404336306238969
-0.0157819147032156
0.0199027400274982
0.0681666823441535
0.0181652631207398
0.0337497041852088
0.0147412693922034
0.0238484116060249
0.00781305754047532
0.0174663877422
-0.00152220896229264
0.0334397793297154
0.0408582085865661
0.0587959319185904
0.00476494870451559
0.0261299141737179
0.0407864570812224
0.0253644403151195
0.0125566190005277
0.0182879960308158
0.0101945527587984
0.0330761304902173
0.0209262430625997
0.0345155482195573
0.014305057626361
0.0255969725662378
0.0207156288478434
0.0340266667858012
0.0106678585821496
0.0297219162517446
0.0177638454713899
0.021025457178313
0.011747418562929
0.0218527712474827
0.0169656889297183
0.0165772393797975
-0.0109807250804782
0.0526159310122121
0.026078043371632
0.0214851513168013
0.0295118617532817
0.0297151696956766
0.00984897434065036
0.0235140937627345
0.010559178994208
0.0205485719491836
0.0106378185394992
0.00865818722949141
0.0268547799282964
0.0322247884106468
0.00734991345597561
0.0228204471803452
0.00817075853767267
0.021983580134809
0.0127288783040994
0.0178610292308683
0.00991428891269507
0.0189292765835038
0.00426347503924503
0.0339343823117228
0.0216673173386723
0.0073523310645959
0.013664986782102
0.0534736382549125
0.0156803641950844
0.0300609166308725
0.00453770670296644
0.0281419493966417
0.0221599309535276
0.0190508874468974
0.0103600645913041
0.0194820997078836
0.0253662757813697
0.03244768107282
0.000514999465344743
0.0115779473176728
0.0428956658456985
0.0633614539037818
0.0219485110803663
0.0283684874686509
-6.50739016078683E-05
0.0244868859594438
0.0365776340250241
0.0331570963021765
0.0273081460254135
0.028625729745678
0.018265394731582
0.0260925615972337
0.0152768378336206
0.0243642098935258
0.0138919489401043
0.0277828082616039
0.00521220682651777
0.026083442323909
0.0152216850438338
0.0163376083358598
0.00158319911319141
0.0422297157749173
0.0282338525037439
0.0307976178270374
0.0207395559982557
0.0192256246596848
0.00369617472963807
0.0433048951795431
0.0348804845598476
0.0433750056646759
0.0124879089514939
0.0533764238116711
0.0286735752364884
0.0387629959724077
0.015557709868692
0.0261996719080999
0.0222163217220607
0.0284402032517274
0.0199768713762142
0.0342299673968359
0.0219302450881345
0.0300995570270174
0.0242491431015253
0.0307998190675903
0.00747165507667387
0.040858572639628
0.0302960112623511
0.0331767885333622
0.0181595014827274
0.0150079839853248
0.0340664236096185
0.0724039217064093
0.0315384225461865
0.0359365272979621
0.0320356380249596
0.0317155495786616
0.0285847833205728
0.0365306329164425
0.0252813510451998
0.0364625438346381
0.0262468904484185
0.0544053614446989
0.0359077924571576
0.0459734833473019
0.010895799278619
0.048103052203283
0.0320457849548366
0.0378583141148387
0.0381516082195023
0.0528993624340422
0.0186359868612259
0.0468711590723054
0.0478600548100779
0.0436902852441991
0.0447799091411135
0.0549965319330974
0.0278405422856047
0.048079315646381
0.0376521658846521
0.0438826091765881
0.042179364635847
0.0535424195066276
0.039113280807298
0.0601675077488401
0.0366086848862981
0.0529562406080127
0.0487150366529569
0.0602395900142969
0.0426999650825638
0.0667423145939134
0.0411231311288251
0.0604638089004067
0.0420211009325994
0.0587700103641164
0.0532167133047384
0.0604838757973937
0.0591849489265243
0.0576719242421024
0.0436005044454765
0.0619371517687324
0.0547197730990197
0.0620147313254676
0.0454070111639971
0.0650532123188648
0.0575468122828104
0.0681476581277706
0.049569966374613
0.0724160122301752
0.0426932771280382
0.065349227040842
0.0582591808866334
0.0701312518807175
0.0626319108049822
0.0703159236664496
0.0532975830994887
0.073184247176605
0.074836211077466
0.0878530299954995
0.0614156652418529
0.0950936575376369
0.0626844923789746
0.0783811678625332
0.0656025888568355
0.0830037084737218
0.0735923498752464
0.0844093187592222
0.0753410371797737
0.0801371010212365
0.0728739353618579
0.0947567486494249
0.0737250340909454
0.0859772705550571
0.0782959350337169
0.0951120574269874
0.0794025859982534
0.100350280446811
0.0713476834646725
0.0995950972531732
0.0920809187652025
0.0987803108913776
0.0905441980517078
0.106942584935423
0.0793448177165657
0.105496725104173
0.0929769760548787
0.100545962403564
0.0880521389973785
0.102303492540851
0.0923318974093882
0.110739819244121
0.102759750978776
0.119390292449281
0.0963030440522705
0.12008526355988
0.0937592660508661
0.119744668188676
0.0921973507935488
0.126719170823814
0.108327658803733
0.12842533168808
0.100864351796033
0.134132937124003
0.0953308414144973
0.129736763413714
0.119862457790074
0.148293016661548
0.103900918477846
0.139950359878242
0.110226946032716
0.134301528654962
0.115995664576846
0.137400588022205
0.122183929729827
0.142330271367177
0.117158072249291
0.141622365887194
0.112361297161471
0.148497498779536
0.143338011334242
0.15153124904028
0.124384975834328
0.144509303092172
0.120111172230048
0.151756116974905
0.132892654041318
0.162626286006196
0.136083864275294
0.167228529279864
0.145148746595337
0.157915532535038
0.139257974274302
0.17124212425915
0.145273954113125
0.168927248753612
0.155447158762741
0.167502913818207
0.152633521307625
0.165992526457702
0.157937013545745
0.187272403728498
0.149834388022165
0.185610156559626
0.154668933001395
0.172297592997679
0.163506769286175
0.183543019804627
0.150091430882254
0.191207287837056
0.167171416694201
0.188255269838025
0.184607934119394
0.188130849389528
0.176343185843496
0.201846844588782
0.153748932355639
0.191105010350183
0.17492716721923
0.194842008654247
0.180389160672041
0.190545174353253
0.17225569484772
0.197642644904461
0.17939161493416
0.196184058534689
0.19250086100298
0.211551863738113
0.189383248949624
0.203830177127662
0.178831458010084
0.21577651073339
0.191772898151209
0.209344526184707
0.188489098966349
0.22280584381529
0.194759286855488
0.219377771092541
0.209375686459174
0.222768788261144
0.193452706886183
0.213108098938371
0.199185173340178
0.222156490561691
0.20662282986182
0.223684086099915
0.201629091978382
0.230805851441259
0.210736383071437
0.22469082852686
0.212014944197368
0.241099139341367
0.203387035541803
0.245726020157279
0.2209045845568
0.229876298401313
0.192804941295029
0.240746942079541
0.213838917049043
0.231019703821313
0.222218585094352
0.2456549698601
0.227160685578824
0.243577355282995
0.216463757247441
0.243442592513223
0.224176826516297
0.243877359136206
0.226579673917945
0.251823822792581
0.2326377372847
0.26272203396066
0.235662454685237
0.240472692755855
0.231587479291315
0.246719010151648
0.236728633993979
0.252841181285194
0.245387525430155
0.2528770890369
0.236317050048247
0.270929275952283
0.23578523756257
0.240672310513526
0.237481762610043
0.260072957490955
0.243105403455561
0.262650608455454
0.241358659192464
0.258730580469
0.235646057930536
0.261144508321109
0.244347757332312
0.257862229842824
0.24302011543976
0.253772713178382
0.236301867318303
0.264517262167388
0.243713484773876
0.273620181788588
0.253052207748671
0.276204163995911
0.25032229473043
0.268608940488544
0.250358420267856
0.275557979547937
0.253652950941452
0.277626481570396
0.245567343964397
0.281157239936849
0.268296312893475
0.276960759539902
0.240154251790815
0.273406490071702
0.257976217072497
0.269281054720132
0.255722150588583
0.277337670708429
0.254913994326707
0.274486952493874
0.249308447114244
0.27074783882211
0.249701418484417
0.28001359643065
0.251538559739398
0.279476567226564
0.2547688019193
0.277032923948793
0.26213080290129
0.278789780766584
0.248703717882098
0.274327652560643
0.273481471857512
0.269207084150864
0.263307788833801
0.286915879938279
0.262000708746873
0.27639348317863
0.265073418556929
0.281042940713625
0.256645264204813
0.287519989652965
0.260840745160418
0.278317816145916
0.259086745804797
0.272822638419834
0.260231297064289
0.285290568669406
0.254038375862925
0.273663152192135
0.249504693469681
0.275431239400528
0.251541792378679
0.289696149040979
0.247221993702459
0.283205422423918
0.262628264410223
0.275892145475708
0.255523479729652
0.267050993086832
0.268411213365773
0.283234310487026
0.257931004202802
0.270784025114381
0.256420106017286
0.277651758327853
0.243613563623517
0.277491739043401
0.258827628249735
0.271070593506945
0.256561623305331
0.274790911379854
0.260666486827372
0.271963234906955
0.254226944065155
0.271076630219209
0.251444894084678
0.276248146163686
0.257164925935121
0.274926240229398
0.247644717129053
0.267899927951193
0.251446025278696
0.259246152161272
0.258214049592186
0.266358199352472
0.24947635491671
0.265839110510336
0.25148082988141
0.26804374069337
0.248414510680841
0.264789463565927
0.245457780335298
0.259473929362764
0.239224519808045
0.255973403071107
0.249079991656661
0.260500807386684
0.247637322629333
0.261777798209064
0.249562385682682
0.248954792783424
0.239786527428154
0.253398208545685
0.245780011186806
0.258186441130957
0.235617649829135
0.255756928957846
0.231351810095235
0.265490204546946
0.23774611730174
0.253109700730811
0.227665341779719
0.24787230663768
0.230623327418993
0.256240219376868
0.230808245561791
0.244158880755727
0.243150059423568
0.247494217185928
0.232183197680341
0.244228429003171
0.233775859046946
0.251966583841053
0.227613653632593
0.249875736545169
0.23184465216387
0.242626210788964
0.22375306278671
0.232954266082601
0.229322405970058
0.228906415722156
0.221824455902873
0.235079017132946
0.227595663825314
0.235071729148964
0.215895099550028
0.232643242391336
0.220529617905009
0.230164041710703
0.224060209398057
0.223599398998119
0.210531174024909
0.235886957290062
0.217669180516024
0.230615547381245
0.216205971163184
0.2290691021147
0.218259687975108
0.227099078190888
0.207634320353385
0.233256674987576
0.204949241390425
0.209550104386739
0.199963771893543
0.226271212503117
0.196684223961787
0.219760015408812
0.20879781283317
0.206039470794421
0.204041458248212
0.211328250490611
0.195572547432809
0.214340029416897
0.203840006820952
0.209330101999112
0.193853726210935
0.208429056501028
0.1931851905958
0.207724562594321
0.198576682739382
0.212785131495011
0.199421026151578
0.204867577477964
0.196730619406339
0.199554342879052
0.179168849668244
0.19746675167867
0.177781257931687
0.195919502543573
0.179805114638951
0.198199920168134
0.183741206245359
0.196617030484759
0.177227000345285
0.195718631411363
0.174560442739724
0.188820672064317
0.169075072678231
0.191102371047827
0.175703424317338
0.18824272670345
0.178573114261221
0.180947851472179
0.178231737687077
0.183697432550287
0.173079963935407
0.172673448158573
0.164967601718047
0.178165432870618
0.166586982407483
0.168918312898716
0.161465597277756
0.177353931591001
0.162345485584515
0.174567418245731
0.166155144635909
0.174433090382573
0.158743860571788
0.173290677303411
0.160411321125245
0.169611351238818
0.154106949741132
0.165751388376407
0.1556836426144
0.158174531740098
0.151531105218475
0.162072519387448
0.144348128251201
0.165470143215802
0.139759404710154
0.151590188235306
0.140262497747377
0.158954201821379
0.146288807464393
0.159598858151881
0.136964918975379
0.156221743931233
0.140477344356624
0.15220937430638
0.138831123468201
0.146447819924084
0.138028860697237
0.145788033571833
0.132848736340865
0.144712612865271
0.128159242037582
0.143511942305247
0.133604174828511
0.133151789702489
0.124301092894833
0.142324715409616
0.129439035662688
0.135471124771779
0.124153778220828
0.131328086600415
0.121254932747831
0.133566282467446
0.121795484871092
0.129571752544497
0.113764582406602
0.130893387366323
0.117901137227717
0.128973286800468
0.115888599607156
0.124911672409681
0.119979214539898
0.126590746922671
0.111606289186116
0.129675007502045
0.117748918273973
0.123325243845769
0.113149755135218
0.120244439001748
0.108553345588873
0.11479330978095
0.106356114049729
0.113404116878567
0.105323260262851
0.114902010638818
0.104473230291811
0.108332966999717
0.103377115091983
0.112351223848109
0.100340840145314
0.109737734944342
0.0996571301091864
0.109765293869316
0.101068238932946
0.106692999457805
0.0986970564803386
0.100794401753683
0.0915853044044384
0.10360179698054
0.0936873593964337
0.103470891824423
0.0877964075287244
0.103608957844376
0.0881502375773514
0.0974583929518541
0.0886732602061247
0.100806532693502
0.0854855225204443
0.0975364427294348
0.0897883188814494
0.0909918543308139
0.0832977859790245
0.0931399264605017
0.0813383888554252
0.0920710097189631
0.0813628834529381
0.0875324085429279
0.0766071630749158
0.0871297520160313
0.0759178349620507
0.090270020360957
0.0780773231854841
0.0886336382823939
0.082508081865065
0.0856177122260175
0.0773794478493443
0.0886669279822072
0.0764648590599905
0.085770937787407
0.0734326267947865
0.0869189333817143
0.0753238827664182
0.0791253398174198
0.070723125809612
0.0773956091003491
0.0672980684700704
0.0830898467316659
0.0744318622702141
0.0797019733675347
0.0686540587153079
0.0745247144222902
0.0664004315053842
0.0750511217193539
0.0692598032848274
0.0751429276273458
0.0664795267536552
0.0755945367994696
0.0667708602620959
0.0741392486205336
0.0647205968493468
0.0699212402713876
0.0660046602979888
0.0719395365457165
0.0588278976042368
0.0670102041071975
0.0581684165333225
0.0678004243951632
0.0637663510882876
0.0695498944204692
0.0571057298317062
0.0709633986708532
0.06160328043997
0.060235789481556
0.0616332899874032
0.061003717225354
0.0549153656252671
0.0619035157013074
0.0577657852386066
0.063097471750089
0.0575295937645439
0.0640300615186422
0.0558184178597037
0.0586040749205931
0.0552095690557806
0.0641027863645229
0.0551387200566803
0.0570446434003097
0.0510380132816063
0.0584686748386178
0.0517334673175331
0.058776919033426
0.0514177941108157
0.0590755429024851
0.048127438395113
0.0589331362864378
0.0498355342187684
0.0506118274304791
0.0484402680765611
0.0556514056804646
0.0499093982899467
0.0528940941932052
0.0464653075624418
0.0552143202583704
0.0477035414597413
0.0517279402140505
0.0464691607141765
0.0548304393996893
0.0461664281219819
0.0526493101319209
0.0466426596922547
0.0521033133583656
0.0462538191994937
0.0583187358399582
0.0447224227476927
0.0518145807029944
0.0432808971400718
0.0503140572238868
0.0402642778181795
0.0483270994758286
0.0399241233218517
0.0473769174533714
0.040499021825014
0.0464951877915695
0.0415338772926986
0.0450307171065692
0.0368341855976145
0.0492169509630755
0.0408138615411256
0.0451084042550884
0.0361971321641045
0.0471526164910324
0.0422473857788717
0.044320873226595
0.0402957185887127
0.0454208565116253
0.0367836905226748
0.0428921807565156
0.0358577141517459
0.0439387378382999
0.0405885075149195
0.0398203858137017
0.0397272234822033
0.0454483735121808
0.0380329346671514
0.0432592974082183
0.0363062598215235
0.0455048001294466
0.0420914555445512
0.0375148198923521
0.0328204197179876
0.0437697383417555
0.0332779000188345
0.0433796895360033
0.035278619771689
0.0403671473594063
0.0340441696545194
0.041581849386741
0.0374109993194236
0.0399797914241934
0.0364424520133281
0.0475129047639501
0.0377032386147913
0.0424110751240933
0.0372539076941495
0.0421933500385575
0.0388795063958483
0.043887939766849
0.0365590679933314
0.0429379768665503
0.0342593416778522
0.0456010562694561
0.0397170074589958
0.0439111139118599
0.0391448003097843
0.04581028296695
0.0410920199526451
0.0450418092267854
0.037446483197461
0.0433299966167398
0.0399312326743677
0.0474300596252998
0.0402013199750713
0.0488632907510018
0.042035822426468
0.0475418670906193
0.0401237805597263
0.0437288719784632
0.0428113547708296
0.0484152637245823
0.0405226719394269
0.0510284805407505
0.0423253505185663
0.0512113583466323
0.0421250261856278
0.0510706535697063
0.0418994994207528
0.0484272282863399
0.0478053015914499
0.0491192434594014
0.0409500239946191
0.055140819240741
0.0501585714530689
0.0556234857156313
0.0438741725129998
0.0531498170659133
0.0494511506652384
0.056584304845057
0.0458163913505256
0.0549664286139299
0.0493949422567069
0.056153600091226
0.0511359013436022
0.0611216239559714
0.0516127991213386
0.0562068919821453
0.0569784159290209
0.0592888850403885
0.0528883976048664
0.0612408067061803
0.0617980720489239
0.0628373992274977
0.0550734423820709
0.0627297850367451
0.0618527161897131
0.0643365727941529
0.0561373811749011
0.0638992243624452
0.0586327221109399
0.067357202811692
0.0631205492213099
0.0677377898703285
0.0597643886631942
0.0669090960939222
0.0582394373605675
0.0696393552920161
0.0573156873678051
0.0650082442081407
0.0566130748406436
0.0625947158654433
0.0579503870671878
0.0628235415334826
0.0601018638211136
0.0635447888202366
0.0570426216415253
0.0638009698552537
0.0584709269488379
0.0620387889740734
0.0584509492170771
0.0584514152517795
0.0539573674400607
0.0623851556601039
0.0534125001067576
0.0619718468603011
0.0606047497407814
0.0564876384593498
0.0535182868614677
0.0575990690866909
0.0533509732996604
0.0610060475660715
0.0559654636530993
0.0634727027163605
0.0592076364118182
0.0624999677447151
0.0521764043003139
0.0582420849450307
0.053805255327246
0.0637656037313085
0.0580042850497932
0.0588742238508957
0.053361913129474
0.0597376269003698
0.0536380596691616
0.0603578403682516
0.056356015408303
0.0581612116752523
0.0507910382699563
0.0640961143774993
0.0577079403527841
0.0600104149400587
0.0590367070919952
0.0623488198966429
0.0500040430335884
0.0560154110032295
0.0526394249996143
0.061517045529164
0.055022357481042
0.0575360732586136
0.0484097188319647
0.057083116329609
0.0517216528999814
0.0568228782519676
0.0517563274899369
0.0527018250506171
0.0507946564605693
0.0536403739956863
0.0459987969316282
0.0487497608974777
0.0448166587837795
0.0517831035980892
0.0453607583642793
0.0522799294364587
0.0438249233254848
0.0499971343916967
0.043466916582223
0.0493859845635949
0.0380649696872187
0.0425753244924751
0.0423483684359343
0.0455074423624805
0.0381604103490767
0.0439177353111429
0.0398899133251505
0.0416507545975948
0.039072556265978
0.0428287412309998
0.0363106885864591
0.0393003712419908
0.0383829945773386
0.0389681518985844
0.0331224002619509
0.0394055718320825
0.0380747401069153
0.0381404027131236
0.0301268980054866
0.0382677078002964
0.0313404740120251
0.0346059956986135
0.0337242213664891
0.0391018973064469
0.0320991191231291
0.0353065280969356
0.0289914462965604
0.0352014395534771
0.0288955885003909
0.0364608856027127
0.0320238422770506
0.0382973935465872
0.0295479050043607
0.0281850831143601
0.0338927945595205
0.0363216965896019
0.0327430875322775
0.033184698598756
0.0265282454834672
0.0322772849736961
0.0304303786431844
0.032889253047089
0.0284398599963341
0.0328394644625854
0.0252760519357219
0.0277666508536318
0.0275873225161523
0.0309048709129055
0.026021966065084
0.0333443250435543
0.0268471855423244
0.030400160529231
0.0248277842439693
0.0303651454375352
0.0275440513684789
0.0303703019515255
0.0255128829773619
0.0316432852344847
0.024362848574699
0.032652141107214
0.0219812862763183
0.0286637337300707
0.0217897494831026
0.0274949709826976
0.0220405147626209
0.0271975397965462
0.0206824015955495
0.0333912337162428
0.0230730748175897
0.0253762627147102
0.0194440361979323
0.0269299566153446
0.0251926529946524
0.0286255766555047
0.023299783956815
0.026894475025707
0.0234597132587112
0.0244094161539343
0.0219065202875616
0.0236359476175319
0.0210646275441091
0.025836345718729
0.0226042338209641
0.0270890539665007
0.0229076829337128
0.0257858092638713
0.0213456369068651
0.0285436415150551
0.0217860112111962
0.0253166344645447
0.0234961497292824
0.0275882932950596
0.020048504305523
0.0221318258213769
0.0190510921172136
0.0252248878484102
0.0237398235414588
0.0269078637564117
0.0235760497824538
0.0287811529959434
0.0178077811551038
0.023826784845995
0.0211073285014549
0.0257811168054671
0.0210138435565412
0.0280752667254951
0.019470786102282
0.0246653697176236
0.019794052518891
0.0254118636071871
0.0196252786498574
0.0232632253387689
0.0187155933067839
0.0277485786616138
0.0178251787391395
0.0234328783502065
0.0189202047144155
0.0226062773515065
0.0215903753767474
0.0229898080885208
0.0183108717314258
0.0229485273798755
0.0138560978760403
0.0262017549881345
0.0162216069684886
0.0227312333980952
0.0186107162296066
0.0178610703002458
0.0146697568185328
0.0205170718192313
0.0207700088482652
0.0221295624323664
0.0172494990215885
0.022639230901706
0.0163720748947815
0.0241604058851056
0.0175572317899534
0.0212947147859124
0.0188958817044112
0.0239184140280763
0.0177297588145995
0.0220075330567291
0.0172943684763849
0.0211034118759415
0.0173330054796102
0.0194413399430797
0.0202523319135798
0.0248993482725492
0.0194020391729354
0.0204585926623427
0.020376782524524
0.0251303739703054
0.016085825019607
0.0227030217224642
0.0175735128334461
0.0222266079747081
0.0193460488805026
0.0264454311014351
0.0216373967746639
0.0229722798726792
0.0164697787368332
0.0217535867297268
0.0155894163762637
0.0217724483127053
0.0190549067682322
0.0212295862969301
0.0168394831123205
0.0245041286341481
0.0158899730447637
0.0234888930799963
0.0163420244482761
0.0222604917530649
0.0190411323512005
0.0235247529917168
0.0156881782487879
0.0207868828564527
0.0119112240339249
0.0188649830135946
0.0172709177026573
0.0207185145212341
0.0147445199193182
0.0182305343603884
0.0153351943272719
0.018794372199746
0.0119096502446118
0.0184222485105192
0.0159074088274108
0.0173390779365618
0.0145238446230468
0.0208813360332725
0.015948509136988
0.0174349182678046
0.0155684208557153
0.0191619018018597
0.0138975546604483
0.0207183654409977
0.0121893156131131
0.0150835798448543
0.0148492142562397
0.0188815823897963
0.0152750444234604
0.0139383028852518
0.0128222241942689
0.0168628834231674
0.0124508982298699
0.0172497431947541
0.0138894305361948
0.0171273857093028
0.012939720243159
0.0191031228723559
0.0150731719715652
0.0181642627765705
0.0132648805327327
0.0190930059737711
0.0153215622885504
0.0201424744947204
0.0146759665886535
0.0204287012046951
0.0167437202079546
0.0194879384947246
0.0154126706578516
0.0204693926678541
0.0138763682920166
0.0159298567590917
0.0111041797242157
0.0157573901900927
0.0130290296678998
0.0159808767647408
0.0115892867168494
0.0144169451085516
0.0134885088427017
0.0145440857858495
0.00884535580219855
0.0166206686289732
0.0132957103008408
0.0176909763111469
0.0132755703020359
0.0146870716229437
0.0105948272093773
0.0131347150755722
0.0108626848677524
0.014162688621194
0.0111859125199217
0.0162742920831267
0.00878487258419359
0.0128463592052875
0.0113023223563002
0.0140260683688505
0.0128088313165858
0.0155011923216285
0.00900010989179829
0.0136907745760222
0.011367232669007
0.012428112902866
0.00992604516903053
0.0132407793901813
0.00991508473124398
0.0137121357200998
0.0110213629731061
0.0136660489121667
0.0101969217402746
0.0113978272071829
0.0119242951343086
0.0144781998409418
0.00932163190642058
0.0140102946466451
0.0124147638498621
0.0134876801774608
0.010372134009115
0.0145837849474805
0.012224732646655
0.0129245439353171
0.0108204708076153
0.0140858104040394
0.00870618292350792
0.0121989577936156
0.0100610616584084
0.012705056752355
0.00936603245224101
0.011460408180109
0.011777105083171
0.0137876016632214
0.00966437055109795
0.0137871661840277
0.00967700449868998
0.0134586509156246
0.0120006331203734
0.0159862523796284
0.0111839878917328
0.0148166633764289
0.0132650434560875
0.0112479576026475
0.00771155714210682
0.0104362227992649
0.0118510233573236
0.0101140598392564
0.0072726009186653
0.00978395469431829
0.00944775693619551
0.0110718372303813
0.00935413230133908
0.0105668487542073
0.00752043996656053
0.00959550414745136
0.00638977305214692
0.0124816366603061
0.00544371749582193
0.0094930562951058
0.0102196173005288
0.0129170123947127
0.00831817235929626
0.0107158586958949
0.00850893103844671
0.0116803796366508
0.00790819722312607
0.00924361213869939
0.00816200460395381
0.0111195628566783
0.00810413591822692
0.00999931981811714
0.00660466650409585
0.0107175375575381
0.0112446541035238
0.00917630839041394
0.00945684629357475
0.0112792348087187
0.00818593935336131
0.0106515950040783
0.0102451331046675
0.0117175364685503
0.00710735464000243
0.0108345004709627
0.0085700277788541
0.011949876560844
0.00751744427823128
0.0141979740913571
0.00710701995704105
0.0106875455192048
0.00910678795661641
0.0128563630334069
0.00949563438988625
0.0129630163413711
0.0104555983867535
0.00993319727896723
0.00931506078126246
0.0117510055348251
0.0100172694467111
0.0125559992281933
0.00933461335956438
0.0114130406339552
0.0086677404496018
0.0118523632890619
0.00797678786155754
0.0116407737871329
0.00851470133504682
0.0118915571032933
0.0102882797974045
0.0101551915837101
0.00540911337030584
0.00976723972899822
0.00821302219405309
0.0095163503984942
0.00773666524622485
0.00957562036233285
0.00677234214548908
0.0102731351121102
0.00560589319517048
0.0127851104631979
0.0073828874271863
0.0128013740047898
0.00521912762139467
0.00967467954731046
0.00677089796228278
0.00886071079534007
0.00803269685215752
0.00907900232569997
0.00540719386614042
0.00868051734882238
0.00693373652777504
0.00941138254448563
0.00841256619757891
0.00898202544944565
0.00618377014944579
0.00912290296777755
0.00544443631478658
0.00958741497128698
0.00810222014918931
0.0101080418494399
0.00745608155141841
0.0089654413120297
0.00992471547108124
0.0118285718099488
0.00640461214234844
0.0102441553203371
0.00802961925295759
0.0094671799347126
0.0083401298388266
0.00967133250472692
0.00864965867319892
0.00771629088399333
0.00724362953127616
0.00971611867101134
0.00851148158936473
0.00970601155195773
0.0073803026533051
0.0107917053241466
0.0113165281373753
0.0108021331618983
0.00875920912651303
0.0100933913691268
0.00881232971727216
0.00940076997473979
0.00889595463416671
0.00975399384490688
0.00734572308782634
0.00791641673750666
0.00425628489554249
0.00779114755941986
0.00881513114699987
0.00902846728300168
0.00504563379768969
0.00754577234166962
0.00725901096346434
0.00728105155990361
0.00414522373984117
0.00959691545648012
0.00647775673517971
0.00703047001326316
0.00523410540534775
0.00899774261934204
0.00505641361480949
0.0112072524816168
0.00533120009150468
0.00777275013368409
0.00788568309271797
0.0084440844580655
0.00714153005921203
0.00779798097195913
0.00640812535801543
0.0085990654759911
0.00580153649203688
0.006775571624891
0.00751870236439194
0.010284105814186
0.00691826422316558
0.00895031275693085
0.00545914308889982
0.00959164551817687
0.00810465977406215
0.00977596883514808
0.00790743232053746
0.00956691500061585
0.00345843249979328
0.00709664605278939
0.00615971663148072
0.00822734408652255
0.00819631658870049
0.0084351679583092
0.0066140729225853
0.00946381355529919
0.00790138476160035
0.0062207825555852
0.0059344960280739
0.00893834856612579
0.00584028996412371
0.00759557159539118
0.00793668854261089
0.00750411908034613
0.00580382569305512
0.00741000032287213
0.00624987370634164
0.0084500778832068
0.00464694114288237
0.00857917526202398
0.0057494220692277
0.00608253681866559
0.00466583554710499
0.00555294130131893
0.00289566616339841
0.00764188949205723
0.00526799240984563
0.00932365412950129
0.00508144893712411
0.00434901691899521
0.00454900708655733
0.00598396636796573
0.00695472121563386
0.00640380334636484
0.00474923813914471
0.00595887801724546
0.00637498500941613
0.00666697475421036
0.00352817490775593
0.005035103113376
0.00495738457598401
0.00742436931661313
0.00430060645285442
0.00657682772878756
0.00531044670325632
0.00825778023421223
0.00662177447960563
0.00617416783492042
0.00435682836174599
0.00534419201487485
0.00492078595394051
0.00552541303908082
0.00492759529468975
0.0057617458714223
0.00363412223798559
0.00481476607339764
0.00550990067132448
0.00893131402512458
0.00598866252917818
0.00702527244555156
0.00626174633986476
0.00291454311855996
0.002681028171312
0.00221797926471906
0.00280458307956076
0.0047102138192209
-0.00124215606908129
-0.00168748656975106
-0.000502832787866213
-0.000899812204670322
-0.0016790068957466
0.0060058163595904
0.0100892474161915
0.00578556575934348
-0.00187043360152247
-0.00781127439516754
-0.000301006649231941
0.00431027137994622
-0.00133314114851903
7.09400987894706E-05
0.00431665022616903
0.00172808350050076
0.00206585240758473
0.00100743144719261
0.00378300105899362
-0.00114156272899108
0.00100673005039231
0.00387798586374703
-0.00230439709698382
0.00428277637455815
0.00767687374411195
0.00791413967667023
0.0104205911209389
0.000983295678508571
0.00226177638298475
-0.00187183796215991
0.00693995545947638
-0.0046776604728417
0.00743445927969481
-0.00173294613669039
0.00949480464207441
-0.00475475833084715
0.00766620879346804
-0.00905875901361897
0.00636745918591801
-0.0079656097526492
0.00835473562993337
-0.0137428771200803
0.0140742609597157
-0.00602133404457909
0.0216828102241168
-0.0137504847947085
0.0159180183285881
-0.0183963676567229
0.0186774923792722
-0.0105258719145177
0.0308695822475965
-0.0187657325016483
0.0172744643057154
-0.0131674683696039
0.0347679757153677
-0.0132991683288132
0.0139548778694899
-0.00660730503742455
0.0212297529203621
0.00138689474278665
-0.00130521580821466
0.0121192126179708
0.000659611818532811
0.0156346038595537
-0.00738507814589552
0.0228234667651165
-0.00864838141435867
0.0239956054818057
-0.00687067704985638
0.0161548162521745
-0.00188677366623964
0.0121729464903754
0.00141753727422191
0.0062174237041149
0.00270042878751015
0.00674521126341665
0.00464273446916766
0.00810578072999766
0.00183295118878956
0.00817321072009291
5.03216392175633E-05
0.00899987415135426
0.000709667423282213
0.00768878856862759
0.00191813126402062
0.00481167306007964
0.000321076063305446
0.0081117655442673
0.00219996588126941
0.00562428568052002
0.00178167744774407
0.00688762819743283
0.00161801724462736
0.00712524921377618
0.00175842620112663
0.00597044154038772
0.00329138669722035
0.00709720792717562
-0.000364958338577662
0.00616001494739252
0.00273476961148115
0.00766757077287726
0.00310511643850799
0.00566500697852081
0.00234219089790972
0.00548167524336813
0.000869775755914732
0.00499021559569484
0.00194143841592764
0.00528194396489751
0.00405094562526662
0.00843556413980658
0.0014198755983188
0.00706788751465117
0.0030861036900705
0.00613473381190946
0.00355749312643168
0.00831899821500924
0.00530176600774821
0.00572033347087157
0.00454997489407181
0.0076373795076051
0.00217521404453523
0.00539703174501599
0.00443586307219976
0.00860387464110306
0.00215081871540041
0.00831843335325188
0.00375839495798109
0.00787935468732986
0.00191704296446279
0.00712361727957593
0.00130819873999033
0.00568288450353669
0.00283762501176057
0.00722278232611713
0.00170042655019394
0.00595593583087907
0.00324250506753097
0.00690057518189773
0.00142335495532378
0.00390619286007485
0.00340370298646416
0.00550168585590152
0.00356496474028689
0.00633496083062409
0.00173111651833462
0.00487303166163648
0.00450811511963331
0.00680286732880838
0.00245181507300979
0.00427614829634961
0.00182941684515439
0.00742184671024931
0.0015843691998477
0.00686776876797662
0.00178016523131761
0.0050849894384378
0.00088553619976899
0.00370950999262793
0.000350990899673055
0.00479795084937087
0.00464984516033528
0.00828076998914781
0.0025532641109248
0.00512883608729414
0.00195716634562422
0.00488366411892792
0.00361103939819291
0.00835485817250889
0.0036300335391746
0.00467395374538562
0.00320578170299842
0.0067455311197755
0.00345836420181529
0.00641383488357555
0.00448260484047028
0.00735196588836652
0.00268593327107054
0.00529298536334465
0.00284801639812732
0.00686777833896213
0.00566508952810602
0.00654973494501955
0.00218981299667369
0.00425339341553668
0.00322934960844
0.00591351997136917
0.00272973515357591
0.00732622406810342
0.00303046734175564
0.00615917290806669
0.00560699091411535
0.0060200014525823
0.00315275025936424
0.00728868850635403
0.00318541089524936
0.00729687344987036
0.00372225312677401
0.0051450871152056
0.00319158728519475
0.00409089410333726
0.00196659169104907
0.00689942555406315
0.00386920775510481
0.00321891603315883
0.00179493459181235
0.00649888061739309
0.00352613296958138
0.00420227112545921
0.00310094039150822
0.00706611243081329
0.00231146312184939
0.00496194984732552
0.00413086539609689
0.00512158196287323
0.00323378165098439
0.00641682945010646
0.000652486393540951
0.00373671411711769
0.00244192289490873
0.00684136133915686
0.00209230000714811
0.00585876240732823
0.00297677098240459
0.00667244849619786
0.00346025399208873
0.00522870044404993
0.00243160227103063
0.0047495248150312
0.00208581015224304
0.0042762296739752
0.00378513890913682
0.00582479705142254
0.00319874036582562
0.007525166824286
0.00205550434457304
0.00582890490961083
0.00265742046139247
0.00680931458817364
0.00176018001683681
0.00702802062032941
0.00463624890356825
0.00676781203232978
0.00384165791194763
0.0052132705598447
0.00446930737680146
0.00370418204364442
0.00161853528598524
0.00486194402835117
0.00334336560714002
0.00489721838377555
0.00326427555262617
0.00641270291630997
0.00374269020101772
0.00686823230288443
0.00426109397936553
0.00568302930792467
0.00302613785498658
0.00581445481160412
0.00295419911868903
0.00514481021073915
0.000167056022015447
0.00668532570468905
0.00202058996032158
0.00393318106061894
0.0012056909667232
0.0054162549192474
0.00299698901661021
0.00501708963214691
0.00200880823154649
0.00602067848154155
0.00178676571155388
0.00511276280588533
0.00219582218753182
0.00545054335569268
0.0042038934750411
0.002965987514522
0.00050202558352744
0.00762368246271839
0.00263446721229243
0.0032276886626726
0.000396758427447037
0.00434788191251651
0.00197156718769146
0.00616873269341683
0.00423020057924749
0.00416983039996905
0.00217326783434582
0.0084561650126063
0.00292785957243215
0.0033075278636473
0.00244493329435761
0.00503789078243932
0.00308439126592155
0.00562183399396997
0.00268498651102559
0.00505347427397405
0.0011966307007991
0.00603093603245404
0.00248353465223461
0.00682314480033337
0.0027009540501582
0.00444897002390445
0.00420114153801973
0.00576219238692245
0.00239385724955641
0.00494457013180054
0.00241761101437062
0.0052698760035671
0.0016792878312763
0.00453063923563393
0.00398309869272773
0.00312494780186765
0.00124213590644
0.00588436862473057
0.00151117744708668
0.00500595530030993
0.000293674170200936
0.00232575073348388
0.000965152229323311
0.00191921317893618
0.00179875065660585
0.00442725012433803
0.00277775476405731
0.00497984861643854
0.00302537574982397
0.00633656372997815
0.000307011767135176
0.00523513740409895
0.00307699257973027
0.00473731783570086
0.00360116979083315
0.00414029638507875
0.00176565049934737
0.00601487105544102
0.00391166766917098
0.000408608227962208
-0.000184295258562643
0.00466644305903017
0.00262021179585838
0.00502773663508185
0.0019865797926828
0.00447210542022758
0.00280006074652961
0.00490369307607198
0.00139830973705663
0.00346866988131673
0.000171074179043014
0.00343399109613809
0.00139011743547564
0.0032520215960122
0.00307457194744729
0.0036949395683808
0.00245285146403671
0.00481867621569785
5.91709510199662E-05
0.00396290122556663
0.00239047524985536
0.004898321507377
0.00064299140693126
0.00405169275512143
0.00294306510077292
0.00623443271995062
0.00315329812758638
0.00333051229502527
0.00195851823814591
0.00469702257242926
0.00306252016610286
0.00248772475340523
0.00113826586425637
0.00505074980435336
0.00316898081514174
0.00447414320354424
0.000500511371160091
0.00348319147056431
0.00186800752439546
0.00566345180481537
0.00292237885162008
0.00357616069422929
0.00259139551306824
0.00552836676870661
-0.00140905854735989
0.00574067663584985
0.00111714255776908
0.00503364355006955
0.000862256346902428
0.00351090296796328
0.00374200904166023
0.00573578433481909
0.00100138875416822
0.00362362879991284
0.000923444946118317
0.00459473117694444
0.00223064974524917
0.00514712970904204
0.000561415025585483
0.0032624120187481
0.001103821133103
0.00284836976709874
-0.00166696720109696
0.00124493639843152
0.00201521782100633
0.00445437656452013
-0.00125889457086004
0.00555721420539342
9.28172027567627E-05
0.00500094062588448
-0.00236956394313889
0.00748733174751331
0.00747947358498536
0.00344950062183128
0.00450360829705791
0.0049771878518978
0.00277074901772302
0.00347439724859857
0.00357764100838734
0.00258757960408542
0.000942393473078194
0.00359749212371137
0.00437095968483186
0.0020945581938823
0.00185047050643963
0.00386643610782955
0.00194084309415591
0.00268315104699914
0.00208882066086749
0.00303452685592881
0.0011210783095071
0.00455962298955425
0.00162560250265508
0.00274840908451724
0.00209193958279104
0.00437747981800629
0.00171167557130156
-0.00069974801845442
0.00595668021278256
0.0058467294017852
0.0046966542006604
0.00364819937503785
0.00281224811642034
0.00288010025076514
0.00410571729057797
0.00298920195023954
0.000442456075168797
0.00410885634602465
0.00179692855285906
0.00332472267303205
0.00118758412588301
0.00167992038926684
0.0030159894055543
0.00326834399378547
0.00230984644153254
0.00224377983240829
0.0020333752923073
0.000941203494917862
-0.000204687134918817
0.00121376766851496
0.00359188764546383
0.0011731465891551
0.00358148171165039
0.00186118565242779
0.00193028536598785
0.0105692677973052
0.000819587921953184
0.0052926288848358
0.000334221842776141
0.00507544427886463
-0.000101801248927107
0.00444920512499303
-0.00121099827285409
0.0048068800026211
-3.86187620902909E-05
0.00185639325564613
-0.00237777640392057
0.0039448264075722
0.000827523715768364
0.00363344122731582
0.000878672752306194
0.00449395496269418
-0.000588227801902939
0.00721808331188281
0.000238139010701964
0.00437020523120733
0.00678630376586475
0.00476774975702196
0.00403624800882393
0.0053622482222654
-0.00693540603951242
0.0209441215274615
-0.00114782860518663
0.00667152245990293
-0.000579717431187506
0.00547042148669888
-0.000756032303272338
0.007791562943394
-0.00380531647401432
0.00286222068803044
0.00420093567337572
0.00370527133100931
0.00562865611165482
0.00188858037268862
0.000815865372360999
0.00464180223633906
0.00258322374852153
0.000711907560967349
-0.000450458975353246
0.00457422614839816
0.00122210371039011
0.00228074400239513
-0.00109425814209909
0.00540949538946882
-0.00183467549460759
0.00725031173800546
0.000667563803034806
0.00373963883224825
0.000656876982755745
0.00605231923314121
-0.00123066084285143
0.00386056485968268
0.0103077019014098
0.00134487790453751
0.0049221934532337
0.000635954856245894
0.0032972642272837
0.00158149449607281
0.00372360409575767
0.00212671475823514
0.00246449987159663
0.00228467244070265
0.00317705021458962
0.00239277456322806
0.0011408328121118
0.000111325151683922
0.00362422952078131
-0.000852479295915922
0.000340800735500071
0.00506828977771368
-0.000571049921224991
0.0037233310334874
-0.00488988585500486
0.0129822742624314
0.00316780782818165
0.0111326646011913
0.00287189735939081
0.00477921585342852
0.000823121365819226
0.00336304716787295
0.00141974366074251
0.00210966178578797
0.00426988776621812
0.00498490580631779
0.00211491962671182
0.00370662148728918
0.00242277778589756
0.00162632283005402
0.00124230722715736
0.00197116769999633
0.00217173346272681
0.00136003858271907
0.00253137211248621
0.000423625719700337
0.00482497675657418
-0.00553790601237449
0.0075723126875126
-0.000426885116950397
0.00865787009384024
-0.0187948843021633
0.0209107436024074
0.00860832087443697
0.00928043487363779
0.00447594007117278
-0.000231424653365024
0.00361436338971304
-0.00141297120278714
0.00314910819737557
0.00281157653056067
0.00239078152883013
0.00316948946465819
0.0019776413401084
0.00129436878898728
0.00385552081897974
-0.00420511974993531
0.00574848512825671
0.0176961751949048
0.00315130375528201
0.0099644345922206
-0.00665523669942548
0.00616264686013431
0.0186420890237215
-0.00159180781425788
0.00789995209045694
-0.000386514421500203
0.00760619519110761
-0.00210376716905726
0.00438817133616121
-0.00123660875462804
0.00718356920068199
0.00101720981942852
0.00401267278661471
0.00315211791030237
0.000104729440040658
0.00252611774250356
-0.000950245432811059
0.00590151952641675
0.00817567913669975
-0.000129632871501268
0.00770394303110367
0.000409050497305074
0.00288243219312857
-0.00123737841365665
0.00659630839904196
-0.00206326530973748
0.00463084861569869
0.00502390354553995
0.00277643858190082
0.00749923723044934
0.00947861656515811
-0.000351793349275416
0.00622159533298978
-0.00160462352152255
0.0173260486451286
-0.0144604886468656
0.0100033164853493
0.00904386786738638
0.0102595270891804
0.0158900458483948
-0.00185248032846431
0.00648195787421913
-0.00269771447996035
0.00473058441355631
-0.00996681054120679
0.0218102074317788
-0.00693156840998476
0.0134148838031444
-0.0102645866719265
0.011640956562959
0.00262975778337762
0.00686879496318617
-0.000532697526737747
0.00470644592770531
-0.0040154227550378
0.0184640203051442
0.00252545491788461
-0.00476651517289667
0.0135654430667818
0.000611642145830743
0.0271266874537133
0.000380099934963313
-0.00345421532967006
0.0143561228840291
-3.92019316109423E-05
0.011912711932228
-0.00410233775358866
0.00911948237567413
-0.00808196467989222
0.00368968365708292
0.0234330527736439
0.000874786335990539
0.00747815310251352
0.00379042431683876
-0.00114619401984455
0.0179700276626739
0.00361586691412077
0.00772856771117913
0.000194130396029847
0.0101693513813434
-0.0202767879192855
0.0445969546022202
-0.00571582453796807
0.0201298117229911
0.00665953739018011
0.0134586391590947
0.010951820124726
0.00841135436474675
0.000406313250770878
0.00996780929421177
0.0104747411481698
0.0103063534131396
-0.0106894754005127
0.0160119917219484
0.0111048857253709
0.00100680854845885
0.0120298752918006
-0.00327767749562646
-0.00679261141405877
0.00919276720506235
0.0296538696882427
0.0220011625706305
0.00649734318705044
0.00249538095341082
0.0213615822910513
0.00352393133463585
0.0102127403764583
0.00459112171842343
0.00673310539313739
0.00362897957917395
0.000857883131903249
0.0121904688476007
-2.12912982571005E-05
0.012514803972652
0.000114874187346909
0.00362402904541379
0.00207959286993356
0.0247894637640186
0.0265377705249298
-0.00275344093425701
0.0251431640329844
0.00584695827710221
0.0208573430555853
0.0032585483277898
0.00880372465989618
0.0062438782568963
0.00983786822913905
0.00860908960391415
-0.0015680063937395
0.0213530383019744
0.00310549970867686
0.0235258008549209
0.0181002499342837
0.0110967219839115
0.00403310570012125
-0.0291026121793723
0.136786158477501
-0.00113957788803705
0.0458478476945511
-0.0132608315206065
0.031661148094996
0.031850358785594
0.0274266345192364
0.0118820559072187
0.016183111973176
0.00584678084226777
0.0179002467234331
0.00881327664883756
0.0210037373672839
0.015422192786998
0.022124857109291
-0.00735537376111995
0.026742495579693
0.0181483787564871
0.0585843137975724
0.0218042562597964
0.0242525801581318
0.0202577694941588
0.0321224686019366
0.00895363249966195
0.0353764079788312
-0.00317425396517507
0.0279462974266111
0.0383696857180653
0.029753415359992
0.0227776378320493
0.0160399610714888
0.036025404196254
-0.0019395322134728
0.0674900322398782
0.022484131634581
0.0438456284997247
0.0142212320865956
0.0342114763654346
0.022405792853238
0.0174647215030965
0.0396243851172833
0.0308219204694412
0.0344983831894691
0.0253294276036321
0.0333702943641315
0.0258541740590072
0.0299082431527902
0.0261426101950269
0.0149804427905631
0.025882926446085
-0.00458357129547581
0.14061929409514
0.0297059560940257
0.0458138988810611
0.0239959882147877
0.0316318966386902
0.0460396544226737
0.0125244176137248
0.0756398068416884
0.0346011698008984
0.0381655574116892
0.0298816915057712
0.0313033577062378
0.0307159578976683
0.0282786354684455
0.0351314201330341
0.0118946127788301
0.0566590815324094
-0.00130163349170057
0.0646746955639117
0.0444896727278028
0.0400482775681989
0.027411216450401
0.0322984357930165
0.0269599250741788
0.0366497409150837
0.0187623312146466
0.0286319156107177
0.03135933310677
0.0268275092317746
0.0306104479880423
0.0104098674334952
0.0428940001686189
0.0279436890529656
0.0304533528818452
0.0289863982471477
0.0217982408946852
0.0383153497710475
0.00534813283007108
0.0305488350940223
0.0472019325828468
0.0283485802465164
0.0321234605412698
0.0217771252863938
0.0298934791733411
0.0269245584829891
0.0247635511604554
0.0240997511714137
0.0285949460697578
0.0227406587261965
0.0330937659557569
0.0195421394346189
0.0310130108052741
0.0180062996819955
0.030524749755072
0.017998241203433
0.0334445366002571
0.0240182744695558
0.0255931624609837
0.0217217399455677
0.0268402878949623
0.0224727769168685
0.0270137771590136
0.0218503842116843
0.0300815669917506
0.0212494564176128
0.0299913911348093
0.0204848364119677
0.0283375446801098
0.0221416358119093
0.0277538807298451
0.0190718648697851
0.0245757992206655
0.0197091803048421
0.0282563147449196
0.0172157245921882
0.0270033366577692
0.0201272001777623
0.0261584914266837
0.019628865314731
0.0245570950824276
0.0217402316566323
-0.000183485739104505
0.0622058853683357
0.0217921941720136
0.0336284436536848
0.0153202086906188
0.0240358783871662
0.0182727975425588
0.0059400794900722
0.0454818678103612
0.0252399207207431
0.028777015317608
0.017725591507386
0.0140481105038437
0.0244556671287683
0.019476151376388
0.0173959863321911
0.0283277689846531
-0.010663282274064
0.0635804070356181
-0.0228477858462941
0.0880830513108543
0.0291666092524795
0.0463501098005665
0.00123214016431173
0.0381940120069962
0.0298049967221532
0.0167288313206812
0.0216533248757728
0.00171224803536866
0.0332321182002629
0.0163578682210768
0.0202654305257843
0.0162028886323977
0.00422988288690316
0.0256407633715739
0.0310387960856029
0.0103586313701998
0.0265922856880644
0.0174990164535661
0.00615911463980901
0.0214043103269129
0.0515956765350627
0.0386126634244398
0.0134799492080293
0.0260530603518599
0.00258834085072153
0.0111758296607003
0.0339401048585956
0.0147104724007817
0.0261762208800372
0.00719319987075219
0.0161137116202082
0.00843440114955027
0.0271891177656219
0.00226379556490762
0.0137968161427442
0.0342284969864187
0.00337130634031071
0.0321819667891435
-0.00701509471765853
0.0481670857947633
0.0208407255654392
0.0330018516559029
-0.00576358250368675
0.0390200697735418
0.0185368440630699
0.0204151054205576
0.0210243443783296
0.00690004446196361
0.0126525186698776
0.026701038518246
0.00591427299862996
0.0276748859731817
0.00778595320697037
0.0235553835478014
0.0171653065801515
0.0346493431112874
0.040605567814806
0.0237043190550396
0.0114627541025617
0.0133008462098153
0.00875837871249358
0.022469994069318
-0.0101389749793939
0.04370698837506
-0.00148187236731044
0.0202119023821628
0.0227548225019188
0.0203376780592774
0.0164687407458835
0.0142494122968852
0.00627140611105927
0.018569863585108
0.0147483843526129
0.0460542961419168
0.00252011646071054
0.0297078238335517
0.0167059081561627
0.0247852305657424
0.0120617139787098
0.0217976943927643
0.0129925334945378
0.0180044280609182
0.021317321095869
0.0232747070585993
0.0138510285675045
0.0271422607652781
0.0030842246550256
0.0426223968021345
0.0302448797512273
0.0183140430445128
0.0337945566120295
0.0143459318059775
0.0579681157826573
0.0271737227355096
0.0337879810529496
0.0265807803113642
0.0251675931098681
0.0324009222989471
0.0138074457699646
0.0382794493625602
0.0385425833300903
0.0283657700709741
0.0319105581083143
0.0272585838775683
0.0314315222251764
0.0181879370912082
0.0485648546193099
0.00637508511406867
0.0821118648594001
0.030444566666908
0.0537818612774247
0.0332414877518804
0.0323503835325054
0.0369526410765266
0.0288871770296766
0.0398350699704609
0.0238177907129365
0.0349804937335876
0.0473635462536354
0.0326012006825572
0.0371426995476988
0.0288782913925068
0.0328478658940888
0.0342819676940405
0.0342360236158259
0.0343079433429918
0.0268741534960897
0.0436826379832658
0.0243825296849292
0.0331638264737309
0.0803903170324624
0.0368586804788206
0.0462056347137154
0.0296557942088017
0.052348084621068
0.0323869706745076
0.0361197342270956
0.0495482288895349
0.0439384051105815
0.0443372761985294
0.04353401716054
0.0453049574980822
0.0352760586537173
0.0445179103510002
0.0579884471122034
0.0363175265701735
0.0566440172670754
0.0109147874611252
0.08628247917633
0.0426105899130151
0.0569920122335326
0.0454374865285513
0.0515525558329745
0.0441011265534928
0.0447717513652252
0.0415084618311187
0.0423763741254271
0.0441830464057202
0.0401124761780868
0.0442633877816035
0.0356805761425436
0.0469044798936657
0.0362022391300395
0.0391622138583373
0.0499756789211462
0.0394251030929132
0.0418363405746904
0.0389258113125668
0.0430760132848734
0.0306507276275128
0.0571595266387802
0.0379087595319094
0.0500690978534531
0.0369973401495823
0.039413492198097
0.0517126790538092
0.0476682139294688
0.0364012801661816
0.0420694205256856
0.0327498633925476
0.0474138965936963
0.0308850899423001
0.046126409248439
0.0439091497033296
0.0471405946091025
0.0395428750722799
0.0425462694245576
0.0407108940007683
0.0401623507668586
0.0389827411986314
0.0402618539038855
0.0406769224821644
0.0435122748476672
0.0450198320569365
0.0389483360846608
0.0440332264951796
0.0409501667843955
0.0497098748256963
0.0492538068403114
0.0392444114791516
0.0443978274428119
0.0345952940082235
0.0435663425033219
0.041490511259411
0.0431858123568473
0.0317110301375561
0.0445713333882369
0.0327406631308941
0.0412755376477894
0.0487774498725037
0.036135719531771
0.0488363028287549
0.0318759201610097
0.0413763379152966
0.0301143298315959
0.0377538868811295
0.0299825271310456
0.0340743041422174
0.0347983657217942
0.0341685188849842
0.0324361139944236
0.0334284905088299
0.0283573500164695
0.0328118405759149
0.0335178682262451
0.0321072576558633
0.0318665808711839
0.029992584686084
0.0308519337947092
0.0306820993781876
0.0299168279351302
0.0323559564556218
0.0281871925197997
0.0396205902074836
0.0303102341486003
0.0422733358569912
0.0286366572143137
0.0389556800270847
0.0294084217899661
0.0340179780070018
0.0294607937976207
0.0334368365380367
0.0298451329683277
0.0305962676206071
0.030793590007305
0.0322141192939783
0.0282715197487849
0.0322596660953892
0.0326875569387801
0.0285069131849843
0.027425206490971
0.0316018578588618
0.0310339758320917
0.028591431069583
0.0336014094430101
0.0308015103011055
0.0351772469682547
0.0292876127396813
0.036050998460696
0.0306682266082023
0.0325179789141463
0.0325441182487473
0.0332607604386681
0.0355451643455575
0.0307864135644003
0.0318214584819317
0.0306117159576404
0.0314755877937559
0.0306644890315751
0.0311428814845274
0.0312394222683894
0.0296377582788417
0.0300181773942521
0.0301342530948858
0.0293385692889049
0.027828687756219
0.030840211958726
0.0285621823055936
0.0276114063699944
0.0276125644332201
0.0298982616614298
0.027254180240977
0.0256093595760306
0.0266745987566248
0.0280850779968874
0.0235272321777605
0.0233325982814879
0.0253363953326019
0.0248871571268239
0.0259126938328584
0.0257420834529354
0.0275040598168712
0.0267527133143571
0.0252502479921577
0.0227998131520724
0.0239598435222784
0.0232420036328898
0.0229829107359769
0.0251224288961576
0.0236929366993906
0.0272119327053178
0.0238900270637948
0.0242367790533903
0.0230146156235164
0.0259869577641074
0.0250320734504645
0.0259837802294311
0.0279935660402776
0.0252297241436257
0.0264020162622708
0.0270628604683339
0.0273163059942747
0.0267565410097051
0.0297738829216319
0.029435666597815
0.0294815145879004
0.0289088083726389
0.0296660943611344
0.0276433636558679
0.0314856352834971
0.0295237060807305
0.0275043785398076
0.0267349711754786
0.0284286859148548
0.0276802221599646
0.0300557177085779
0.0292367621403357
0.0297515328124457
0.0299682002025464
0.0292986001849231
0.0300211716079649
0.0267111238657772
0.029902614721436
0.0274978778082199
0.0267503664802508
0.0265210163375506
0.0273359158845824
0.027112525786024
0.0279246522503434
0.0288528519962253
0.0268651844922553
0.0273489300708359
0.0261334620066115
0.0266653072820805
0.0265840727840164
0.0260281626646147
0.0263494213185145
0.0266451781994325
0.0257026791292231
0.0257300503176435
0.0257536915711764
0.0257487896978401
0.0243990651482305
0.0271478979479468
0.027170860000349
0.0248759150430977
0.0263984675764553
0.0265697411201719
0.0245764858028554
0.0245283973174752
0.0262782663191132
0.0249451852191752
0.0254979307906666
0.0253723023029033
0.0262808301974141
0.0248828273914918
0.0250420531799307
0.0253750443591225
0.0247705175829225
0.0261221135558367
0.0250646831338449
0.0246632205180814
0.023498137460246
0.0242268421123823
0.0233829772016446
0.0237120155227531
0.024127901528488
0.0230772478532936
0.0233243677345847
0.0237777704934333
0.0239923588619586
0.023250901352821
0.0230768264827988
0.0246440433839984
0.0248057874960668
0.024960728382783
0.0231585601675447
0.0229397598840568
0.0245199051316308
0.0245441512716908
0.0233127464831639
0.0230573244081074
0.0234316405350022
0.0229952213998728
0.0223965039392425
0.0236259625159365
0.0226330211908835
0.0212072356718464
0.0229242474078341
0.0233049495583798
0.0212847758828049
0.0249647146252853
0.02553656381762
0.0259256272809699
0.0292243214384705
0.0307064981247603
0.0306300361978126
0.0302863486706314
0.0328073035278152
0.034958405337168
0.0369160142573624
0.0393419627849272
0.0425865460087548
0.0431184426844941
0.0455437449724701
0.0469668239357685
0.0492290242013568
0.0508761656807284
0.053273193061949
0.0561256847705772
0.0581234366672136
0.0593089076876539
0.0604239033906703
0.0623590538035131
0.0634716747331103
0.0648453800773897
0.0667167239513753
0.0683248439470668
0.069188267373865
0.0711580450078288
0.0715348214849618
0.0719762280135592
0.0729535669575669
0.0742959020387569
0.0747970816307163
0.0726994211181432
0.073069157079216
0.0735496942998211
0.0720469041120004
0.071462538741465
0.0737192634916288
0.07123897706617
0.0715069764340742
0.0731936404848238
0.0723280710581887
0.0716206201920812
0.07264247081695
0.0740269317363232
0.0730709594502737
0.0733785054699211
0.0740266172234111
0.076307269165019
0.0739450056867098
0.0756796617626049
0.0790640939087377
0.0777945322404992
0.0796637849319725
0.0799143469111665
0.081143821505532
0.0836827232010555
0.0841112911284245
0.0856576274277279
0.0870439342159365
0.087866399523343
0.0916544574004283
0.0928698866600113
0.0924548492662542
0.0959557479893346
0.0963082742262424
0.095929906360731
0.100937910597296
0.098453129312086
0.0996591832652192
0.100481446780639
0.0996924973703442
0.0996531919848834
0.09741563750821
0.0998826373039991
0.0987758788423783
0.0995656780066359
0.0975432641185089
0.0980534097327204
0.0996363490522384
0.0985782787734968
0.0996451137223752
0.098318526522842
0.0980483330836512
0.101683169353971
0.103818793292711
0.106653783531173
0.104970097557433
0.111143764017067
0.111687154147822
0.113850011991068
0.11572363403012
0.120135178454989
0.123370901056492
0.122496992084393
0.129367317076401
0.130107758447197
0.131441894706892
0.130918252048712
0.138268726188914
0.13962804850325
0.142651236327252
0.14590301918588
0.148349651795743
0.151212130429078
0.156273280853613
0.162267078868621
0.160540592387417
0.162355368569605
0.167617320280118
0.166673648211894
0.168182162533473
0.169305876050354
0.174101159395504
0.169349968040781
0.173697751003951
0.173907207778509
0.172185595405396
0.171805441786721
0.171073842252365
0.173315015845218
0.171404716389219
0.165724634970098
0.166388442090671
0.167809710429922
0.165158046024208
0.160953597949386
0.161318679110322
0.156437361142159
0.156478890095205
0.154726978317584
0.154685963242181
0.155653873086047
0.155328808757473
0.155861980550684
0.156059812500596
0.155906677261335
0.158664586417296
0.158063222631002
0.158766095488929
0.165426046828056
0.164251265974506
0.162327145886605
0.167895264415824
0.169348905983392
0.169426868617531
0.170332669808265
0.171363342927619
0.170335560392409
0.173348399077878
0.169045043699687
0.172331065180652
0.172530652969329
0.173393013687236
0.16870939781191
0.168713508551784
0.166785509115866
0.165915760010338
0.166101998141376
0.165139977900251
0.160908842383188
0.160232656281502
0.161480770781698
0.159369578923635
0.157043883267223
0.156679425039578
0.152219298487362
0.151054487480609
0.145165532177784
0.145424444632027
0.13924575726961
0.137266920996616
0.133550075060397
0.127502623792064
0.124328538524816
0.123314713916373
0.116028561369394
0.105892214170429
0.100919087107518
0.0963663503259902
0.0882683386050161
0.0861328211036398
0.0767105439290245
0.0645762774588145
0.0627897998228664
0.0577279623391151
0.0487143230972895
0.041724790582801
0.0388591834698406
0.0313005933243777
0.0307492162035048
0.027223382546786
0.0221080469247335
0.0206404270814625
0.0207973990775439
0.019103996593231
0.0171490731423738
0.0167180558885311
0.0154174809333813
0.0108967352249128
0.0145777908258682
0.00891270691081537
0.00853140791229566
0.00995262702879529
0.00291752477588856
0.00296350365965016
0.00235902268971239
1.40044864347264E-06
-0.000441989309180753
-0.00213769340674273
-0.00389677908291683
-0.00544002289244906
-0.00946887975837329
-0.00895153071342909
-0.0116810817878564
-0.0132323547922167
-0.012478660389751
-0.015917886961446
-0.018218704726119
-0.019474735270434
-0.0196409926849576
-0.0177900032582408
-0.0209800416252589
-0.0211260164962897
-0.0175393581147623
-0.0203032118543295
-0.0205453513526946
-0.0191839090403781
-0.0169000806615465
-0.018633492546743
-0.0189358934062911
-0.0169786692835981
-0.0178872537126865
-0.0150873525185816
-0.0141944879743664
-0.0146833794124035
-0.0172933702620052
-0.014494581197718
-0.0136730658990624
-0.01150085212495
-0.0139963642002979
-0.0142931965790123
-0.0161171918706114
-0.0148330050820723
-0.0151876870020542
-0.0100557477829796
-0.0130872389127413
-0.010274542241484
-0.0132082588247652
-0.00811642547881383
-0.0104361943966282
-0.0113884795484435
-0.00773757271824909
-0.0102994629775975
-0.0119532207582247
-0.00904583686569688
-0.0101325324929321
-0.00950356145485687
-0.0100859630648121
-0.00936924776834021
-0.00730957391899048
-0.0136739380183389
-0.0089923854055731
-0.00997211926190254
-0.0101109913397556
-0.0140375018848288
-0.0108076370127872
-0.0107305399220883
-0.0145298388572327
-0.0115939281392586
-0.0119413503748981
-0.00807952484922711
-0.0129058089949543
-0.00917866027367692
-0.0103131048386048
-0.012758497471089
-0.010406436488063
-0.00493343233845649
-0.0074011654030022
-0.00803697123004407
-0.00786295611398247
-0.00711137344468049
-0.00748771062149118
-0.00677414185555842
-0.00538702208475164
-0.00479367421343332
-0.0095547546266763
-0.000452991208872528
-0.00826087927994395
-0.00461603677974091
-0.00776994551469247
-0.00753641985030972
-0.00386720436554704
-0.003649121965714
-0.00506138418282262
-0.00192652120152541
-0.00282741914788399
-0.00535908277264161
-0.00234503434442694
-0.00270716605665929
-0.00184269211716373
0.00356210443948307
-0.000327039704129362
-0.00258443877871783
0.000482581659971508
-0.00479586680761226
0.00408207457641117
0.000217579832541574
0.00212049349135603
0.000166145922574335
0.00761585854857015
0.00304088289060793
0.00312755092007842
3.03835904771439E-05
0.00372112444949697
0.00580485365670143
0.00284218459927879
0.00131126026371422
0.00243477802913681
-0.00434082868530635
-0.00480803587556038
-0.00293985638178997
-0.00146234418102822
-0.00313534744306046
-0.00349873076351561
0.00350329057801899
-0.000153250380071822
0.000717627105981435
0.000947712492364624
0.00315607330087015
-0.00287309372703091
-0.00134770676484896
-0.00356282253332776
-0.00414222733462202
-0.00126266865143463
-0.00261592380862619
-0.000603188372423677
-0.00676868936476391
-0.00140574045750506
-0.00191558728890117
-0.000962062716076012
-0.00191596151790769
-0.00423340073048051
-0.00179176646162146
-0.00688626166385052
-0.00878675566850737
-0.00517001252147645
-0.0123740794641334
-0.0127040979028477
-0.00807635817808443
-0.00407859584263974
-0.00907541125900226
-0.00624641066650876
-0.00648507523210367
-0.00473994668032241
-0.00904662173218566
-0.00256736069186066
-0.012142421914263
-0.0120939034963426
-0.00262458913870738
-0.00319253652649949
-0.0164645272190689
-0.0089448548047723
-0.00527120593084508
-0.00910503115284785
-0.00970076976323512
-0.0119819717099056
-0.0102090169983794
-0.00758629946610317
-0.0172465168807029
-0.00701131108909521
-0.0111054606979644
-0.0150446809582061
-0.00934892068324412
-0.00718611103267542
-0.0141871250384337
-0.0171454136567772
-0.00652267755286525
-0.00931592639218107
-0.0105420460239382
-0.0068712123530937
-0.0102913363212145
-0.0170892489817275
-0.0184661707430929
-0.00933696588354653
-0.00965374610904526
-0.0127045145447161
-0.0092723095500677
-0.0130014327685726
-0.0130692201739926
-0.0111747026134445
-0.0104220195625356
-0.0097890640902533
-0.0112057290490127
-0.000403782306485648
-0.0148933252826735
-0.00483495842583688
-0.0154986732800092
-0.00472410005467578
-0.00394859912075194
-0.00395484957731203
-0.00321141775701537
-0.00422742325954803
-0.0131165529701211
0.00104886948845859
0.0014527788694085
-0.00670315191444554
-0.00443844573366486
-0.0014260875202727
-0.000292557116809104
-0.00542212737646709
0.00431786477752435
-0.000773747241281229
-0.00684347238871601
0.0119680682304245
-0.000776357826306273
-0.00929999727121826
0.00353133096816408
0.00968005007294964
0.0102505836046049
0.00154605448790213
0.00484940423629473
-0.000205725476647182
0.00486428525791228
-0.00273975886087265
0.0107247974154445
0.00797243630366398
0.00223397284231908
-0.00580402634166254
0.0158717551545194
0.0165047924112332
-0.000253646163492158
-0.013826590765032
0.00111183377507584
-0.00278469594400909
-0.00281342589252173
-0.0042119575090415
-0.00875161042638489
-0.0121805616705113
-0.00979318034551031
-0.0174637419842332
-0.0148273664960549
-0.00204010469261905
0.0109681179362582
-0.0210605278448381
-0.00115720741661026
-0.0125656999069362
-0.0102093342624105
-0.0171597681033385
-0.00879639462534872
0.0100376314604385
-0.00877460991878882
-0.0106439117245029
0.00364760134905513
-0.00320151247181456
-0.0150703980398286
-0.00467880558950533
-0.0150679018752514
-0.0193096177340286
-0.0100325048957834
-0.0169025427174736
-0.0107257082770991
-0.00853070730034345
-0.0170879450090514
-0.0128164495718411
-0.00397622940881824
-0.0104318238081223
-0.0035096506528249
-0.00518804461823579
-0.0106793395346723
-0.0135609619023043
-0.00589039500009011
-0.0223206871509077
0.0105261607617814
0.00767626801489421
-0.00130746153121433
-0.00659122935219088
-0.0136792233413152
-0.00866038928135039
-0.00690513034992479
-0.00661888680858859
-0.00475921517472295
0.000456095589371852
-0.0256054841415593
-1.28781291276815E-05
-0.0224553247138016
-0.0331587999470967
-0.00840999376663971
-0.00421892024212452
-0.0195564921826474
-0.0300658333255053
-0.0154804561602565
-0.00324052298011586
0.00770869319271911
-0.00701085215800383
-0.0128754514056385
-0.000318138764744484
-0.00230805881525088
-0.00634116751649112
-0.0304386645178818
-0.00768535257366983
0.00418976434196706
-0.00794984360373604
0.0200441335685487
-0.013848268383504
-0.00660221280829166
-0.0165207404676203
0.000347666719567284
-0.0197634739987563
0.0217102542497513
-0.0240608361580458
-0.0318725428823891
-0.0012424866574026
-0.00220623768522653
0.0103509370279399
-0.0276404116194217
-0.0263361852766847
0.00758452374279262
-0.00436050643314764
-0.0147248421467304
-0.0367815018532008
-0.0117732764407537
-0.033862155527936
0.00635529032328099
-0.0018910421466928
0.000749256263785394
-0.00598033374812561
0.0249976614672203
-0.0468508371572188
-0.0115689555307707
-0.0361924645848404
-0.0299937810566751
-0.0407138914755027
0.0146276494081953
-0.0109578096330397
-0.0348012022504722
-0.0335393899478491
0.00458584641246673
-0.034403698321358
-0.0255957960220459
-0.00268766204342857
-0.0174551640953289
-0.0219905742488059
0.0153782813392313
-0.0175119412718459
0.011406345915159
-0.0771025184580931
-0.0303328245242078
-0.110448143989214
-0.0152947147385796
-0.090789279142945
-0.0662823983737149
-0.423014480515327
-0.0446442529097874
0.0105177207074115
-0.0551811950782971
-0.0705805517105413
-0.0652477646200532
-0.0671356587668413
-0.0935847503034367
-0.0464342534970061
-0.0248961026524246
-0.00234135189634209
-0.133106775373536
-0.112069824617014
-0.0298447973160037
-0.132343429031641
-0.142969159748267
0.0353298060122464
-0.0622993162523644
-0.193825771812108
0.210496636303804
