3596
4000.36533379555
650.420452594757
1
2
2
0.0319613293594795
0.0217080341226745
0.0247288819107676
0.0195453667519239
0.0267185902907278
0.0133844191133147
0.0265984735719316
0.0183263245402131
0.0264908877593732
0.0221440498445029
0.0229121412909073
0.0160428388693865
0.0304320205210936
0.0136246086381004
0.0247811378126196
0.0133981303684656
0.0277844048178072
0.0200663818810128
0.0213187659286577
0.0176333459923232
0.0239617366430719
0.0132732450833735
0.0263411902144661
0.0203162847404667
0.0227850249447579
0.0169484765806834
0.0276847444278448
0.0191906657273604
0.0268699717759253
0.0167164240832978
0.0221106781003037
0.0134054054416368
0.028856264541555
0.0151959059647801
0.0274928603065774
0.0187301566793223
0.0276517189395704
0.0121950188270073
0.0260161573838066
0.0193154007935664
0.02218332788533
0.0157955370567961
0.0287621609577879
0.0104035006106901
0.0258654011809033
0.017861084949423
0.0295249340845583
0.0180241470526213
0.0232201539634897
0.0177274176626434
0.025827956018981
0.0193895615769694
0.0264870805148372
0.0210640273623176
0.0277792559554154
0.0286036340913653
0.0402906309970431
0.0164256868643073
0.0250066105692209
0.0135909046570094
0.0292170982135651
0.0280567064244908
0.0274082336676556
0.01299722410456
0.0305722704923922
0.0208096852505297
0.0323815276581282
0.0161655585865997
0.0292430379354897
0.0158091769815008
0.0302733162089391
0.00394876227466515
0.0343660964479514
0.0192186162540148
0.0340683128266566
0.0192161307477864
0.0283361217264339
0.0147754016722613
0.0216332362150095
0.00572407701718835
0.0351753156415765
0.0157373608427852
0.0301591174218721
0.00753426585618199
0.0237555892480447
0.0191303283030598
0.0306936537850046
0.00551414346030634
0.040150857524279
0.0223067103242228
0.0345229303661763
0.0086778030601656
0.0264601807508928
0.0105231192367466
0.0303755081689406
0.009912840431685
0.0219653043128113
0.0125988421886787
0.0214438855692142
0.00811339692529392
0.0227419430106841
0.0153939426445519
0.0481048507201324
0.0160603251860621
0.0396658656931505
0.0385222552182843
0.0117557550417495
0.0382497674037319
0.046954160345433
0.0165882483081616
0.0294150004852996
0.0118762982547785
0.0360728571242646
0.0168313503973577
0.0223357780360381
0.0182893460657093
0.0521432186822254
0.0248095940837708
0.038124572280608
0.0115517892509444
0.0171163662024849
-0.00275183632874835
0.0659306850637769
0.0233473012803806
0.037804327714978
0.0190660184549869
0.0143591389399771
0.0115636490818568
0.0598218267914002
0.0171863457815028
0.0208786754386373
0.014188922992653
0.0199240614706824
0.00423535712277727
0.047171608407556
0.0368605308147723
0.027986096850501
0.000310021995688004
0.0180574586592499
0.0502480777041042
0.0444014407803854
0.0227190229559318
0.0202425243331139
0.00479245248561772
0.0552503235567375
0.0232692955328322
0.0123831650200535
0.0158450286778907
0.041960489986352
0.00968699545892168
0.0196849457145229
0.00710676591755502
0.0357926167895312
0.0125316006802818
-0.009558301178053
-0.0152636510477457
0.0842598215049143
0.0226931217746301
0.0716159233763541
0.0409331821877462
0.0209682569533129
0.0247494863383447
0.0185449384714602
0.016928821938186
0.0223059111456344
0.01678217102757
0.0216145985497709
0.0380590983378179
0.025585393841141
0.010278607310526
0.0448007934704402
0.0156738027654055
0.00523434928794848
0.0384946609132122
0.0517799453746339
-0.001888037263358
0.0474433508171182
0.0398860916220915
0.019750349646231
0.0132455521279651
0.0477067657481941
0.0242546565475092
0.0284980101424966
0.00875524851709646
0.0251281510494089
0.0312308297386963
0.0349026077487564
0.0192602819680018
0.0269999081758468
0.00173312483716397
0.0130787906652445
0.0353646425741391
0.0547402241737317
0.0233955019976862
0.0213335928738996
-0.00898949434570917
0.0267619613949475
0.0568453954169423
0.028777416152433
0.0153622621647701
0.0244783561898175
0.0168104819068639
0.0210912921900023
0.0182536853574262
0.0153699277868753
-0.00445931375366041
0.043314983597936
0.0377513742827703
0.0196713695190216
0.0164487865209541
0.0132472545295159
0.00357514974553722
0.0359901599050934
0.0478184750217088
0.0285155771307632
0.0254226578484016
0.0108316032562519
0.0245605326492695
0.0461174246195891
0.0190150612837464
0.0228409131953398
0.0174314965831263
0.0228983039230768
0.0143545763237619
0.023833941394114
0.0142926503151793
0.0243223987630201
0.0158121472871722
0.0215671741892947
0.0093270994869306
0.0213799158203835
0.0224391975941005
0.0219317722394093
0.0144458567172166
0.0155513721367465
0.00745969590620425
0.044444072061638
0.0197846777394027
0.0211150659775393
0.015062426990589
0.019249180979301
0.0158980475364576
0.0238273032263528
0.0228760849207052
0.016654383556248
0.00327259093482144
0.0349068199729242
0.0388676539167616
0.0174452123665484
0.0178928034531731
0.021805515683078
0.037362463539443
0.0249373327252885
0.0200594926188577
0.0213987358783755
0.0062759572465737
0.00660830686128447
0.0307791303403243
0.0268478753491801
0.0155117705294957
0.0287749187971427
0.0298221571344117
0.0239160038996939
-0.000692638255254414
-0.00405750530547216
0.0455331416016086
0.0377382636752956
-0.00991708190087265
0.0671205625471721
0.0466030751911675
0.0294648782848613
0.0126312913375849
-0.0324216969788562
0.0360229817182359
0.0795510981552329
0.0210101865388478
0.0274263057167298
0.0232057307460694
0.0307538931852032
0.01326594880358
0.0246958415818193
0.00702558693830519
0.0450859879933929
0.0478002708598355
0.0580974906181639
0.010404233605545
0.0106829272507673
0.0486212768753502
0.0258636225004776
0.0224885402082708
0.0206772194131393
0.0167259237732842
0.026434583601519
0.0301923732742957
0.0371275401443375
0.0234587327752382
0.0252291585907768
0.0317818871835243
0.0332210706029275
0.0193511748256343
0.0273068185164163
0.0243956798322527
0.0243813280276038
0.0170020114680679
0.0238600232423351
0.0123582432021151
0.0168782196561918
-0.00714170513588952
0.0560445043755821
0.0371863609744122
0.0187847487377458
0.0375488827041422
0.033538657594774
0.0170889158549365
0.024995832807139
0.017132553695021
0.0229695434081856
0.0151643666949383
0.00990844540533055
0.0219385579921198
0.0379698418331743
0.00923031806479437
0.0255608506879816
0.00938444739510617
0.0267123601236305
0.0173241336671972
0.0224512103204689
0.0126198514009423
0.0201479317972517
0.0025979299114017
0.0256751529052099
0.0336953235665977
0.0102092229130186
0.0137369990927251
0.0680319827153191
0.0219943908016582
0.0277353817244707
0.0120251945463803
0.0283125911454267
0.0199682234084043
0.0224227680797384
0.0154392522834205
0.0149415061129691
0.0247788981597784
0.0362821908575787
0.000976483316894525
0.0140780361735334
0.0483830833006743
0.071144413795586
0.0372798544293313
0.0282170793939102
0.00301083192802885
0.0253957275856507
0.0513965001994493
0.0300986650892224
0.0394565633744009
0.0334917154245052
0.0223176058736314
0.0298096253353997
0.0174794128460543
0.0269047493965856
0.0158294826827634
0.0325640175505328
0.0126705384016504
0.0273813262947229
0.0195787653373077
0.0221642196067438
0.00461444550332648
0.047650091783782
0.0361539686242717
0.026963035707521
0.0184059834159473
0.01678506569564
0.00592447063648604
0.0541406761567505
0.0332204003792796
0.0656266439374341
0.0131821093423625
0.0619990040664285
0.0391784373450079
0.036010014481019
0.0202105384942175
0.0271147205964252
0.0233772731822962
0.026282659031555
0.0241799028904058
0.0297359359488985
0.0250641654135136
0.032745765768487
0.0232686014606068
0.0312092815471115
0.0174309318794473
0.0382123450372094
0.0407331425354776
0.0260726725324017
0.016798377870077
0.00784561724432139
0.0429435697726702
0.076471273004025
0.0423030961093528
0.0324955029523679
0.0334578801254647
0.03051582406799
0.0315986405507142
0.0297950943277917
0.028706927685506
0.0365470268261703
0.0340291838398572
0.0646413495384152
0.0418823337385683
0.0522781618229376
0.0183234359065013
0.0512725013152427
0.0365498509630732
0.0318073497654728
0.0486780713662387
0.0571067345783986
0.019146761680081
0.0397342969731842
0.0564399860471224
0.0447625462624455
0.0558596398428826
0.0546289772006984
0.0350121499424738
0.0452489532422214
0.0385887738643756
0.0523808725173727
0.0384431520649496
0.056120806790011
0.0451267395997458
0.0550411401953367
0.0429958384801643
0.0562851812954265
0.0483037601161736
0.0587092233057462
0.0472945703680716
0.0645610960172671
0.046100213663442
0.0604331660794102
0.0428082043203127
0.044157380481147
0.069053391194633
0.0663633389461477
0.0656013461776318
0.0678520336349853
0.050067668116771
0.0637156955857547
0.0551170499677218
0.065965510490054
0.0445784103641845
0.0611788638908098
0.0565122587262492
0.0583838661040043
0.0503758952389055
0.0676177336968111
0.049085960313676
0.0736582049993546
0.0498686762703185
0.0635115021751835
0.0581859091252699
0.0709809773687544
0.0582603227991133
0.0768740991949037
0.0751541897756495
0.0834953851001713
0.0786149638234448
0.0829918240375775
0.0618940630133077
0.0893706215672569
0.0732397575080279
0.0728954480239715
0.066305932284624
0.0836781289660314
0.0700696538722994
0.0817512284262896
0.0700790574864256
0.0907103024037914
0.0733346012371445
0.085687271449938
0.0823398993703794
0.0936063182559658
0.0741104980082066
0.0936668359011898
0.0753013934748792
0.0936809993174763
0.088003298652678
0.101146011057026
0.0914446646715137
0.101338529377524
0.0849967486940877
0.103820109178183
0.0913122811325497
0.0984578924909429
0.0763110567682122
0.0981615218722702
0.101413935204693
0.112862829107378
0.099613149429626
0.108737221443389
0.0966883555108368
0.122021144464756
0.093445461422782
0.115224399299504
0.101452161430171
0.116076802371101
0.102324226280144
0.126838173803193
0.108284892436043
0.127255902201891
0.107134227480988
0.126874674170178
0.10914658866949
0.134245049717791
0.105855081985404
0.127519653635944
0.109384190114047
0.125002128757783
0.115396167389311
0.127817270539959
0.110134148306583
0.129979119293996
0.120551839146812
0.14113731438143
0.118122499518383
0.141175364575256
0.132114573369538
0.146536867082934
0.123531174639204
0.146627039259805
0.123447536804534
0.145102199232244
0.125127492753968
0.146907641312339
0.137282263841976
0.146964149934875
0.136087025127785
0.154425244875244
0.133230827330911
0.157098588244577
0.140109173968418
0.153427736453946
0.15025024316112
0.152651989166662
0.153002554909268
0.161406291295731
0.151504037584302
0.174111794243406
0.154093134129507
0.169162090193007
0.140456627280284
0.163203747242544
0.152800331601728
0.172383838378477
0.162728373282805
0.176009509281622
0.163246048065893
0.169998614286658
0.161129468120706
0.176101309721536
0.157829366965949
0.18736598240209
0.161694330308005
0.181179678191621
0.165643968426211
0.180185683810433
0.177991642567381
0.18363958194245
0.164943432992693
0.186447260825259
0.166653153750334
0.190940476738637
0.174242605334667
0.194368692577174
0.187771997559741
0.190843147845858
0.169263932133139
0.19623341654598
0.178465997512262
0.195819089757989
0.170260809017443
0.195329517583032
0.18465733141797
0.19411781641275
0.180394897070242
0.202995909240608
0.183492608243378
0.201114685004209
0.194173019308858
0.206011461386512
0.192085819031416
0.210408827461737
0.182033533954144
0.216500567007223
0.197130570085473
0.208518657958105
0.203963697775273
0.218193255181706
0.196589503457473
0.226749464676452
0.206493421265033
0.227984858327827
0.193411876599461
0.221699700822503
0.185641257368534
0.222105372072004
0.211409113987622
0.221468206420074
0.209913605990912
0.22240939888654
0.213878320010853
0.216682938281776
0.199390570442335
0.226729481968316
0.21454842417317
0.22578324334089
0.207920321404846
0.238214942473027
0.216023077955744
0.234546533440658
0.212571613675113
0.231266280873218
0.211637914023874
0.234382032911377
0.225277052058079
0.230546270616798
0.220240681644505
0.233011057191678
0.20696139389011
0.24264764683531
0.222470105913545
0.247913317873003
0.226250201245954
0.239883165089217
0.23699491491971
0.241840017748805
0.228598222285347
0.246401833145541
0.220370130910973
0.238507378840642
0.223189107295843
0.232745768798382
0.225492341586852
0.240968342844095
0.225706655458668
0.255166145534658
0.231317459827505
0.250841807322295
0.23449957501818
0.247188224181792
0.236566792254846
0.24390224658341
0.236933234506559
0.253410790764309
0.235255687809669
0.249857147108007
0.243283022717265
0.251726765534
0.238138309705591
0.253412017220584
0.231650790510542
0.25339377596227
0.238382899809439
0.255379747272737
0.236617568525108
0.255678985370514
0.247642646238849
0.247873905307678
0.227854609593576
0.252199227327318
0.240119776905081
0.251284886935401
0.242897080958364
0.258512095795195
0.239579617681752
0.25523183722429
0.230035385890373
0.251622083497635
0.248736201954789
0.243396170008595
0.245216494100986
0.263329010275297
0.237410349534145
0.25192158147434
0.240991948434295
0.259390059103191
0.245547256949667
0.25917699728219
0.236404328074467
0.251908003948646
0.240087968675898
0.252542595708262
0.240892570967723
0.249356606832407
0.237372996785195
0.247656431499149
0.234760987032383
0.255371568520748
0.236689364530275
0.256243957668825
0.236467079093153
0.252405638922573
0.243163433234143
0.259046879600166
0.229833442592419
0.250471297219431
0.237352595167063
0.258654711583278
0.245026373723299
0.257325717685185
0.242785695406222
0.263510012075783
0.238013778760956
0.259306969960108
0.2392116740844
0.242562436107363
0.243645268406469
0.253094149902243
0.235349010779794
0.257234454479468
0.239702060645021
0.240511669119937
0.238008346266977
0.252573796423467
0.237158275119322
0.246369050549395
0.231284708058592
0.249604421891481
0.22613592995281
0.247467674783778
0.245246395995993
0.255190163176376
0.232153062204503
0.248755941851971
0.239018194495471
0.236787303027887
0.224799223793499
0.245624896821619
0.234726043690494
0.242790498497105
0.227888023744498
0.238297525980506
0.229967620323084
0.239381888860542
0.226473443385733
0.245231621127484
0.223351760532566
0.237182411076953
0.228451130484284
0.236283778320306
0.227171915217224
0.237420190887259
0.214368271142941
0.234067101510975
0.211860200125246
0.233882234558412
0.229261909219104
0.233941706595526
0.225541241318652
0.23136456451244
0.217019837996372
0.231136366040161
0.212057527742239
0.227664922887988
0.213336710345511
0.223144203299394
0.21893810938171
0.224522285058665
0.209409849230179
0.231272314778623
0.209334382159233
0.226793680936228
0.213057494406653
0.228976388535843
0.216869084131954
0.226230313018448
0.210332604295115
0.214444112337668
0.196248097787137
0.216613407482821
0.203923989670006
0.226662397651339
0.208392506215788
0.219429038616413
0.211936116085875
0.217375753774458
0.205396094580559
0.211700427690777
0.200387463502474
0.212832182768146
0.203296332522363
0.211787188727108
0.202186401508891
0.215391760927037
0.198436641394561
0.210478939597426
0.191002653104051
0.208553143604146
0.195725948635771
0.201664302202538
0.19122848517425
0.200596094302758
0.18796574363377
0.191805776291947
0.183524472379659
0.198803206084525
0.183472901256795
0.200386529940309
0.186126128278209
0.192265574876511
0.197659864640123
0.200142505934251
0.179753489681169
0.193626704094976
0.181006732592561
0.192563415156242
0.180365490313547
0.188763852920167
0.180180624971675
0.18927576431498
0.17689728254921
0.189224445624282
0.167952329283998
0.180189931695371
0.167352351095253
0.178622756342978
0.173163504690065
0.180711280834305
0.170578622152656
0.185645015346527
0.164468024384989
0.180249935732574
0.16798431459268
0.176793754235498
0.161485650602523
0.17468498176641
0.16610296615121
0.166922908583204
0.159969464576007
0.168642229315242
0.165135757225746
0.169079132206455
0.158179154554939
0.169486607801771
0.160667440113941
0.167366000180918
0.161895440745765
0.160857336024518
0.151174109375843
0.165016314951667
0.151604456459831
0.162823774878268
0.148438349559101
0.156632454778913
0.147405486905989
0.165080808462116
0.1436164684508
0.156097638558978
0.146888264920671
0.150362496010478
0.141784079518142
0.142705971025424
0.136374126726659
0.152913487577539
0.144015780477783
0.152181603586849
0.135930193222652
0.14480026792909
0.130868183333915
0.142851305824492
0.131228300678764
0.142744870047609
0.130196102045106
0.141211588984136
0.136138154593347
0.139453962701237
0.124203860557476
0.134627153062974
0.128063034786033
0.135422911200524
0.122273628663339
0.128342334781165
0.119424233452145
0.139163059427308
0.123267381090139
0.124873645344543
0.119205119904276
0.128548032648852
0.117478546925792
0.127832623790566
0.122711684590933
0.12182876749516
0.113651049453382
0.12270642958251
0.114970404670405
0.12048595557078
0.105587753601161
0.115919927578688
0.109602582418218
0.114230167936778
0.10956270079116
0.120058834500547
0.107501530177702
0.119685288213249
0.104294184420986
0.110803321501781
0.106978079368048
0.114790956260956
0.105424127364017
0.110353284621243
0.104460890288234
0.106596507326353
0.0975753467528956
0.104648968805501
0.10172622819776
0.103803114243128
0.09793208356406
0.0960765608752671
0.0925668183045571
0.104592633350803
0.0891979100812745
0.0991275933004646
0.0936343221733468
0.0979766921398732
0.0906949429694009
0.0997545138545045
0.0905998897590304
0.0943972410166093
0.0852975135937253
0.092087814780301
0.0827163052540992
0.0943244210529614
0.0809364180535919
0.0957779943482854
0.0810923618446192
0.092603917040689
0.0761203073129901
0.0903821022489763
0.0811159154628721
0.0868079752802997
0.0787183881356418
0.08383792765188
0.0831788986785123
0.0868233461038013
0.0788070938917423
0.0848090537287468
0.0746707647007727
0.0775328936683864
0.0758708020006692
0.0810968589886972
0.068690881834279
0.0797702800960188
0.0699656311001955
0.0798365041538096
0.0717043633055206
0.0753009994980864
0.0760162371819784
0.0829150031537968
0.0687460229993932
0.0777318230159883
0.0632830011781935
0.0761220479887172
0.0687823857339986
0.0766665335906688
0.0684254871838952
0.0701295962636831
0.0675253834632731
0.0799159297451219
0.0650188284279979
0.0688693010810327
0.0636228148957221
0.066750084079329
0.0609452352564733
0.0684839593291275
0.064626859676379
0.0690619877009429
0.0631679628164322
0.068738135012792
0.0614724732190454
0.0670881532619638
0.0581008064436541
0.062326713878149
0.0598633793003678
0.0599243216985434
0.0542125201547836
0.0614313082109679
0.0546046557470978
0.0624758326045306
0.0556220026453201
0.0608921183156326
0.0541207690547315
0.0664218738788721
0.0584344904906826
0.0588998423919341
0.0562742306102029
0.0577480783240127
0.0488919707411201
0.0561984749442144
0.0557545170054392
0.0542503431777189
0.0497472327210963
0.0533023041382111
0.0477558006918614
0.0551709562163122
0.0489674444617905
0.0553390587321271
0.0505994790098566
0.0463424338154244
0.0472397732216006
0.0541872725814967
0.0484232683282033
0.0531369844042043
0.0477028097596949
0.0521658978791449
0.0488786040911606
0.0554290168712978
0.0479887894018633
0.0489973826737285
0.0444025608761983
0.0480738837575964
0.0450645653272391
0.0484965286457435
0.0477706997604134
0.0514714864298673
0.040684948599472
0.0486901642184708
0.0443185530634462
0.0496689504806714
0.0390291918314421
0.0452670473530003
0.0376676906513711
0.046950640703274
0.040988913271672
0.0516674060958708
0.038454284307746
0.0470578184981008
0.0430643592855035
0.0437162562698162
0.0363978867377245
0.0467781469558982
0.0379851513165948
0.0426992135590655
0.0352455928845819
0.0434495957894127
0.0397130196940455
0.0403747583257841
0.0336928476681202
0.0413476776813855
0.035121407083358
0.0400915960458877
0.0307650689900435
0.0434991558723965
0.0348806588206241
0.0406051372554617
0.0371961654885517
0.0382924766302807
0.0339329261747021
0.0396641982785614
0.0353702465493092
0.0361243855710314
0.0370430759817036
0.0384562876157115
0.0359720590253566
0.0430295860166385
0.0327540700977749
0.0361978933644675
0.033684296497126
0.040499199575813
0.0377398784423863
0.0400187674247892
0.0308327199008032
0.0405309890574602
0.0347291310386448
0.0399562170748905
0.0344745551713817
0.0377361338421552
0.0294338259536712
0.0382400533845991
0.0350901672674753
0.0377909659367998
0.0332356105075565
0.0378343640695982
0.0356349380039696
0.0393936651746893
0.0317708370319016
0.0388282361838601
0.0359901618463917
0.0384514283368167
0.0352358973416976
0.0378582472549944
0.0329072286487679
0.0409521453177932
0.0351051053200688
0.040048365426369
0.0380252819584591
0.037715287807485
0.0371157933243889
0.0417475831790756
0.0376364186598075
0.0450627395390285
0.0349216346665372
0.0429275581827294
0.0365028335722617
0.043553450407849
0.0389675088332458
0.0437864936816539
0.0353928438894252
0.0398500154738247
0.0338249990121051
0.0446583041922167
0.0339270405179362
0.0453616147940393
0.0380974146582548
0.0444378415250902
0.0397598719020476
0.0476589100351244
0.0357703121450362
0.0455826612753594
0.0421802618649967
0.0488955164526723
0.0391973598851564
0.0508543669959637
0.0470964091462832
0.0512596835989768
0.0442729681930388
0.0518593774918835
0.0437312108553616
0.0547098852116351
0.0436441194844786
0.0521326152199752
0.0461229421875415
0.0552232703242089
0.051862794758568
0.0602646691183507
0.0490096284182217
0.0565528721624344
0.053636053135078
0.0581263430887465
0.0515895116854883
0.0553914208736636
0.0541178086284859
0.0593561592027626
0.0478482181936428
0.0628500945322058
0.0591839583758411
0.0617829031714714
0.0556608583335747
0.060190650411178
0.0565988951682963
0.0611974480301331
0.0588920849881225
0.0626497654374609
0.0554634371660551
0.0646786706527485
0.0519802503397564
0.0612785807570711
0.0524406928208267
0.0625302296789616
0.0522638120826739
0.0611881498615097
0.0554594552277347
0.0572514693029793
0.0527593092703811
0.0609617992861891
0.0522027244899589
0.0555598111613192
0.0546654456983623
0.0592789524001253
0.0530131134319477
0.056725528219132
0.0511286327894344
0.0582422906321782
0.05105713633468
0.0605187503561022
0.054513675210886
0.0563749328495267
0.0508214092070472
0.0566240594343863
0.0489951791788895
0.0563819426834586
0.0522141316566865
0.0563870451453537
0.0534578425137096
0.0592045611654299
0.0482193109093402
0.0555628329890223
0.0504149283480656
0.0581274707653139
0.051972141296017
0.0536675105269891
0.0527235431633544
0.0543915426936469
0.0496251902378507
0.0581998848001074
0.0559117499327562
0.0519829266825775
0.0484257926675692
0.0548667577807923
0.052646198275936
0.0560889024046695
0.05461096341637
0.0566402709768368
0.0477524151883792
0.0539919344007182
0.0514646212119109
0.0571281644636173
0.0501670716198625
0.055512356285571
0.047266959626119
0.0506834402543485
0.0435273365835177
0.0521435651296053
0.0460239475397592
0.0476973344839904
0.0445495073215868
0.0506804825319041
0.0433556732274727
0.0424276432572771
0.0444074969332737
0.050969877940163
0.0427682117306854
0.0474833167684072
0.0399029545595924
0.0436847086928531
0.0371083086094171
0.0436781294823874
0.0370900583028604
0.0435216885455059
0.0383758186307928
0.0393516650375331
0.0328060677831031
0.0398381833434977
0.0351822573278889
0.0374870524011101
0.0357705630131221
0.0379190727529003
0.033942074647759
0.033096127835127
0.0325736315500233
0.0370172014901932
0.0298669792858879
0.0302007093991787
0.0336970648995445
0.0330412527993357
0.0291262387491258
0.0369127390295105
0.0291273075163183
0.0290459596996727
0.0271753705838941
0.0346138923059525
0.0313611570771692
0.0320150071410962
0.0306493786784754
0.0314559642577118
0.0251365471611282
0.0308974389764805
0.0294720463873855
0.0319225851079593
0.0276242575990961
0.0274094007305998
0.0265522774022905
0.0323230107044517
0.0281300384394094
0.0297276506075011
0.0226473751429006
0.0290513727786372
0.0279401776734323
0.0308696964431936
0.0259504485352339
0.029331541037483
0.0190107540160782
0.0268787446097533
0.0255085219729368
0.0287613842940207
0.0240139437927484
0.0292439699810484
0.0246593926948045
0.0279632422523826
0.0236255432193792
0.0268707675679008
0.0232591156890225
0.0256222497033929
0.0204516821752889
0.0286331345517307
0.0232541073657089
0.0258851353287836
0.0223961316068307
0.0287836603682159
0.0192811698374957
0.0266044112553303
0.0205312898337897
0.0229275163704158
0.0196324771956272
0.0270921540347
0.0220059361963362
0.0252487035546907
0.0208714652187873
0.0239976520278017
0.0197071693883489
0.026334979108336
0.0222349862259399
0.0244984905684761
0.0188707532001617
0.0221996786604623
0.0206679759205345
0.0201325067122616
0.0196994756023411
0.021851995988138
0.0197353995466693
0.0219553592542241
0.0169888584954911
0.0265742830962887
0.0212768167990805
0.0254951940868455
0.0204414952319987
0.0256223236127153
0.0207364695992971
0.0220486572245704
0.0189415353138118
0.0195164794052696
0.021300453248594
0.0252120510168949
0.0215645180051225
0.0254594769992694
0.0184017009731692
0.0241098893621286
0.0180038165494208
0.0214736589625201
0.0212250775547722
0.023969052231099
0.0201047440540355
0.024100369553357
0.0215539605893658
0.0242454520059506
0.015688266303388
0.0250538272443309
0.0197055350144149
0.0220690988258867
0.0168995345439202
0.0244676107888305
0.0200532383832017
0.0261823234635757
0.0192450017947395
0.0214521583116762
0.0165616767719201
0.0214943763189399
0.0155006635191434
0.0229380749643467
0.0157084504655095
0.0228900729082923
0.0166057082180046
0.0217307568823926
0.0173724820475657
0.021071203291628
0.0157951825282464
0.0205718323067654
0.0175607687236168
0.0210451023178023
0.0143247621178697
0.0203592662974013
0.016781747597811
0.0229646452851283
0.0192874700703678
0.0204252239784625
0.0184740815113442
0.02092278241191
0.0188034933670415
0.0216357207785571
0.0169367981106112
0.0195523075526864
0.0167129456002506
0.0201516723204547
0.017137414171347
0.0213943463222822
0.0183090159386407
0.021623974502125
0.0178831147609958
0.0237013289480592
0.0168191271864604
0.020714716344452
0.0181325939364096
0.0207120453517649
0.019725035008596
0.0234398367266474
0.0200096088458658
0.0184954909713767
0.0157553309974684
0.0193663943847184
0.016088781589881
0.0188336884693946
0.0170830070527543
0.0202763007554583
0.0164014197432835
0.0229527108103094
0.0153239052846762
0.0194478566322978
0.0169412651831537
0.0202882147587752
0.0146856251689547
0.0214837740752036
0.014350568697468
0.0176431493912207
0.0124514164887976
0.0191709912713647
0.0149533586773443
0.0185311951484469
0.0135512393758438
0.0185644401250227
0.0155698783576812
0.0168307978943083
0.0127000228875158
0.0194587632855095
0.0164880672116183
0.0170992977764241
0.0140599815241778
0.0172075167629365
0.0141894398134078
0.0187454456361161
0.0114434062633978
0.0176379953794876
0.016257315704666
0.0198608378457768
0.0101397973452286
0.0162423093578686
0.0141174810234187
0.0171364842045112
0.0129602316145337
0.0138292838258544
0.0117473731628842
0.0148718977517148
0.0123162517808069
0.0196962743030846
0.013659041817781
0.0168841180421818
0.0112673516678888
0.0161236191654358
0.0131114268533423
0.0195516355051051
0.0143334780525809
0.0183011744417323
0.0161339356180513
0.0196812730922565
0.0121594016760086
0.0174409116108401
0.0147316273651203
0.0166314725999961
0.0154933669783204
0.0188090346473819
0.0146809267926145
0.014582675253938
0.0151770454461705
0.0166993683434151
0.0138266496697152
0.0141656637905073
0.011481356115558
0.0150350978912602
0.0132386806049907
0.0148186265584572
0.0108583215299257
0.0156166075719308
0.0128180567910445
0.0152795492707672
0.0122822312074446
0.0163142858876335
0.0132023011739594
0.0127590607642011
0.0108539958394203
0.0135158095578426
0.0102913751629467
0.0155870441228496
0.00772702013459968
0.013007939638216
0.0126751473659723
0.0125492012409262
0.0105204543128427
0.0130913329798436
0.00968993372549298
0.012745956293165
0.00839148923585976
0.0136157845199489
0.00945101922611026
0.0137567280110656
0.0122572893556928
0.0125332729272007
0.00949551347025888
0.0135718132087746
0.0103407383098124
0.0093453980679133
0.0100145667139748
0.0148633179305072
0.00889204175660026
0.014236858130941
0.0127770207816301
0.011885158094059
0.0104478108980019
0.0150698509674694
0.0121194751243121
0.0120212725236534
0.0121220737975968
0.0148396935981321
0.00851401653460736
0.0139510038039234
0.00897578695335591
0.0114080241535718
0.00784786203305203
0.0130573538198312
0.0121762201429336
0.0120959772555793
0.00969442789968133
0.0122005509404803
0.0101377274679698
0.0116250785891851
0.00953980637382554
0.014402124986561
0.0114005049438593
0.0131533739068462
0.0118189733709965
0.0104714508833662
0.00449608211817999
0.0112725761888213
0.0111455068091567
0.0112020740482935
0.00972121238104869
0.0117605495762822
0.0100359599247423
0.0111012693115531
0.0086579229096748
0.00989911540257923
0.00960657431609701
0.00972197545252273
0.00799021299180707
0.0132814701436775
0.00696421412495992
0.010869179760847
0.00764290921826478
0.0125609734797776
0.00869062463698931
0.0100437531865974
0.00726163554367705
0.0100280242882385
0.00762780653365281
0.00933202696044739
0.00826146578427307
0.0112840061535858
0.00780316373082495
0.0111638642437583
0.00747420916588389
0.0092536539382641
0.00965305863348791
0.0114479257289513
0.00715653168399946
0.0128662723953574
0.00775466155886515
0.00986982490888942
0.010510120069866
0.0115300805563076
0.00560627170377866
0.0114612343941019
0.00880449701135407
0.0133530620483592
0.00861732319237273
0.0133366951691387
0.00939363951618828
0.0137192657743274
0.00774648867569719
0.0139753546359753
0.0090047971104715
0.012424783026776
0.00972293404226378
0.00918492417753883
0.00860798506870624
0.0109028663255444
0.00864451024347026
0.0104023925891186
0.00933845011526262
0.0120841321720543
0.0080544381422484
0.0109769590626754
0.00554346243442806
0.00848946578898106
0.0084481491783744
0.011189190957804
0.0114031770269016
0.0109778312809202
0.00377224419657828
0.0122177824655383
0.0100346068372976
0.0109957988132013
0.0061465966903001
0.0101222999665097
0.00663526662398162
0.00948668796009548
0.0059764999398387
0.00808175859147737
0.00761242979616216
0.0118338392012358
0.00763269697047149
0.00993776575966404
0.00620322081253599
0.00969476279627102
0.00786625754376125
0.00896037312664668
0.00633260236817349
0.00882373902322681
0.00784203149086261
0.00814968924419192
0.00618826515458297
0.00966164357970502
0.00790143011134398
0.0117717376472295
0.00688104631215163
0.00824879725036863
0.00759184915618581
0.00896973766427663
0.00662876764179224
0.00973099896694518
0.0105723554646199
0.0117783737461265
0.0061901587981803
0.0100973269787989
0.00833053763953702
0.0104614927600011
0.00896840216226476
0.0105186000463797
0.00889717120291529
0.00858305035872146
0.00804338627555538
0.00757566137868554
0.0069976727602008
0.00735836895886475
0.00649541144235335
0.00922653890945686
0.00806093960285812
0.0102762326911787
0.00983563269466056
0.00923666202211567
0.00992227486861693
0.0108320526338282
0.00888706487133448
0.00917746143209846
0.00784233107615796
0.00919308451396385
0.00486296431835989
0.00753949899081374
0.00804322687987741
0.00856412666990485
0.00372889866920747
0.00886494709010995
0.00674405026342738
0.00512515991530785
0.00489054281857864
0.00920868586405642
0.00597531325834192
0.00584703112930705
0.00844195387446114
0.00842612254957589
0.00620816848738564
0.00693532120665051
0.00413048790737639
0.00760055404317252
0.00625847624014412
0.00634303632134088
0.0061732180292832
0.00753094976597331
0.00655911363105053
0.00827930543942772
0.00401232215352957
0.00845145437055691
0.00709952580104822
0.00865283663537738
0.00624354535440276
0.0105003654733832
0.0065706937560651
0.00855639720705088
0.00757918851805164
0.00806559967063558
0.00567406514539748
0.00838429538888212
0.00605747648793393
0.00946853524573146
0.00686618549119499
0.00769942160368913
0.0072574535319451
0.00840347452071706
0.00733898072150139
0.00846401444666986
0.00687371427692594
0.00733835229445881
0.0056910313836807
0.00985459373902131
0.00543133632645588
0.00957278164383523
0.00883236626120385
0.00786471355387938
0.00588343869575218
0.0101115661326725
0.0050956569204629
0.00783524983044606
0.00501193233602483
0.00737706881352953
0.00565061947213767
0.00589316028181496
0.00474456490603921
0.00665072708461118
0.00443803246738291
0.00552282664175705
0.00575316021020031
0.00765158244001622
0.00479947112859464
0.00765620473218397
0.00609555320572261
0.00484463694391032
0.00571257312956097
0.0077043200591424
0.00534939044680239
0.00450046351395076
0.00560505159523749
0.00838422826339739
0.00527052244178338
0.00666926100332259
0.00551806756723802
0.00690646189093376
0.00476520202916315
0.00565165221662311
0.0042896176158905
0.00842695473261472
0.00776235249241276
0.00792054096689034
0.0048172721614568
0.00528976428927121
0.00522355171195622
0.00685328712758459
0.00553460891021334
0.00808831230563133
0.00376507583516781
0.00453659447073403
0.0051146886761602
0.00687215372885086
0.00684911289809472
0.00748052608162717
0.00521030777765003
0.00429235286908771
0.00332595108792965
0.00175120124513672
0.00292051710014472
0.00276219560895127
0.00115033349220088
0.0014929872770642
-0.00530619338847055
-0.00328315251594554
-0.00247771162468857
0.00374508465598388
0.00690591712683052
0.00699978626580956
-0.00122319034449415
-0.00547998690440822
0.00237969001994851
0.00816687994899766
-0.00178684958410374
0.00139669895956387
0.00623113564082754
0.00244631592847238
0.00162342733658317
0.00315324372144681
0.00352222870719535
0.00246549563073359
-0.000396791484520167
0.003065594827184
-0.0011591735142127
0.00792048834386114
0.0127184861899316
0.00820853009085071
0.0088357910510961
0.00407530003917789
0.00172060109551626
-0.00228088013507291
0.005109084311646
-0.00289732808569696
0.00659997327076358
-0.000358876859732932
0.00560151514341685
0.000807323792386297
0.00454059401058181
-0.00310865839433653
0.00365789377277174
-0.00566134291195946
0.00710206202112841
-0.00941588257192009
0.0112339076973412
-0.00345292875598939
0.0170349398648352
-0.00501223489367895
0.0108909329262797
-0.0136983364260515
0.00947130540561219
-0.0061118053390038
0.0254154581020957
-0.0111461920629836
0.0130314214764481
-0.00715337739554909
0.0294999914223909
-0.00857715612072474
0.00938563908079476
-0.00184068528788467
0.0196725085324829
0.00342296738331649
-0.000532222996975354
0.0104616902959816
0.0045006400952428
0.0108822928100051
-0.00308914107447625
0.0177502202086763
-0.00470591714029072
0.0175417390242037
-0.00214602987749232
0.0126388807427829
0.00201433600954272
0.0108064411734077
0.00207375206858732
0.00493159271242167
0.00443173293970774
0.00463205528359754
0.00639562718401819
0.0086299332296145
0.00392225905584961
0.00850023753162168
0.00292258873022543
0.00699317805211099
0.00175629582872528
0.00901157589307655
0.00254577358117635
0.00599077933337939
0.00374365565442682
0.00721532846255443
0.000783690015319483
0.00652797350748665
0.00288991625262895
0.00588294117665742
0.000785883394298773
0.00652410719149661
0.00260308626655924
0.00751890210473263
0.00575074532957175
0.00615015730867343
0.000199398034542085
0.00591992475250608
0.00245184147301936
0.00769321271709759
0.00548743740786468
0.00672035776921284
0.00277840749191938
0.0064699294335908
0.00185656370092895
0.0056380230224887
0.00253772484848042
0.00584262184934621
0.00529235211937642
0.00768415948889726
0.00172185140715649
0.00526141537295255
0.00425507331911123
0.00540954839168756
0.00352911633294662
0.00644028184246557
0.0044053258939435
0.00567150681355963
0.00555326813846684
0.00807458634715774
0.0026327755921991
0.00663385223117921
0.00508894625677199
0.00724289981547193
0.00191467498546254
0.00657222687893958
0.00445156927270479
0.00627316205989802
0.0044919812359139
0.00811994323768912
0.00511392932906836
0.00650779583326353
0.00313969486445399
0.00704737921423232
0.00232798484178005
0.00548891720385533
0.00389774259724816
0.00523566916766079
0.00129147751254261
0.00482803030344328
0.00338406520208509
0.00597054649110163
0.00569944229551651
0.00700899709924767
0.00230188515397462
0.00461218054137251
0.00292645516088304
0.00786535468088636
0.00394821526613899
0.00531805136511861
0.00281260637701615
0.00571303729388338
0.00215432119571165
0.00652043725615352
0.00253851128844321
0.00589087350785785
0.00440028303722826
0.00447762540667751
0.0011093412030982
0.00323729522613164
0.00397635733729547
0.00877138534260828
0.00268847920924501
0.0042553602323779
0.0032840740304744
0.00621577256320989
0.00334303192232591
0.0068235684360506
0.00419826064443301
0.00569161351398383
0.00484326338442508
0.00650439443820436
0.00290995821176286
0.00739031787237798
0.00236507436534601
0.00583781598239549
0.0042829800658977
0.00660356217776717
0.0055104722544342
0.00730735998818329
0.00500799055044101
0.0071752316992958
0.00359459455062262
0.00517686801326025
0.00293016987249675
0.00537654464533315
0.00218358911929757
0.00754571017100712
0.00336198288803096
0.00463750201658187
0.00371291886107875
0.00833609258652338
0.00263390153443017
0.00755249657116181
0.00498994612625986
0.0052376399454355
0.00317881036967618
0.00504003595487501
0.00262026036889103
0.00500747554554486
0.00352115521965068
0.00554623860986707
0.00377222611439431
0.00518106759866317
0.00164324067803298
0.00602239039235472
0.00527831133905394
0.00701838891066967
0.00415052161227465
0.00686618904674268
0.00295410378617306
0.00548912665741762
0.00370502533366054
0.00551592924095845
0.00433610885789034
0.00431524490890367
0.00336162399145138
0.00364070150073291
0.00399502960094347
0.00751910415258791
0.00323476964886487
0.00499661839775928
0.00235402101266146
0.00607173479023267
0.00505067641415653
0.00634791260546654
0.00332795625516858
0.00552754456911379
0.00211718059233814
0.004069653960847
0.00501455382530765
0.0047292807922976
0.00432427724981301
0.00651975418422565
0.00364471814059531
0.00752787391115444
0.00409458799421686
0.00685458078596031
0.00452445090396533
0.00487638785710756
0.00445880075470213
0.00558571901217411
0.00310450146163092
0.00606466289884435
0.0046563574941529
0.00678147984534313
0.00211605082880695
0.00437297857174658
0.00254877982064774
0.0045646148738036
0.0047823347334638
0.00678181573932827
0.00414795792256711
0.00626377430969602
0.00503104400881712
0.00476628488112135
0.00371902278416094
0.00617421813546748
0.0037774924893494
0.00422200094269306
0.00358644596730269
0.00584402140380501
0.00351454672276115
0.00495552959163851
0.00255038100834391
0.003979891746732
0.00221141525475623
0.00473209572402607
0.00128805096910853
0.00528726607463017
0.00203116226433086
0.00380550880111271
0.0034563689696939
0.00539920876510933
0.00484369982078998
0.00509710065359322
0.00372292933198825
0.00747448864940463
0.00241247222994545
0.00385363695823037
0.000741370258563944
0.00465655051876261
0.00313253080762955
0.00463048402453921
0.00540021870115819
0.00447575471566902
0.00282475943910059
0.00625559248742107
0.00376392859280531
0.00466440868734336
0.00212788270686304
0.00464236723231281
0.00250613908109279
0.00555011851972118
0.00336235657251734
0.00573699107064949
0.00376806218279105
0.00682083599834702
0.00390614899227487
0.00672521713091643
0.00438655556823017
0.0044068026003913
0.00376393152145761
0.00658401252926747
0.00322159472270034
0.00510818570694247
0.00317119905535905
0.00433059220318878
0.00214267565073322
0.00640503964626637
0.00228786256512449
0.00450144599143979
0.00264954334623065
0.00487753843629713
0.0017470036037167
0.00547709168656014
0.00274224217360725
0.0049951343005127
0.00224461254303015
0.00334521159912733
0.00236959173273382
0.00654435903873068
0.00128040323719932
0.00472574539668786
0.00257650284647982
0.005619233181813
0.00236260181721095
0.00559419482662532
0.00234522516785023
0.00542301656158735
0.00305121553342819
0.00458616533320491
0.00289161492496535
0.00508263857927342
0.00431314525868398
0.0032795320467018
0.000873825409729495
0.00509238499304133
0.00259124077613957
0.00455813935915403
0.00431257313822853
0.005533744359622
0.00357025697773154
0.00589120905145361
0.00279906829700374
0.00585793592857071
0.00127613993977919
0.00321683117745035
0.00371568061208608
0.0048827829823542
0.00226538878470166
0.00395811833352046
0.00467550255927445
0.00494608909341412
0.00325849025906356
0.00297294808912682
0.00208735998671349
0.00503484460777032
0.00347194951920292
0.00395019020881066
0.00271550099026244
0.0064542650845111
0.00363604279329349
0.0043069318709365
0.00210652000251732
0.00438137587633412
0.00469733146175315
0.00446866194143615
0.00322718670496292
0.00604942725312192
0.00340346268677542
0.00482588261633926
0.00262236644376805
0.00443426927631967
0.00264171926859425
0.00415953373383352
0.00426267839688968
0.00453085375689883
0.00176033991935966
0.00573134921282348
0.0015317528367705
0.00641507224742037
0.00321937086793119
0.00639569680939369
0.00222359238344408
0.00400652808251172
0.00489041088040497
0.003509519447747
0.000342597301510264
0.00418179175479237
0.000304002404652039
0.0055388517333095
0.00202563819727777
0.00484831137254416
0.00203802083951718
0.00288865542065812
0.00196954686783363
0.0044412999325847
-0.000457104930272595
0.00458879131605906
0.00215567023009367
0.00413107780587213
0.00120105760737544
0.00594697238906372
0.00191835017139921
0.0061213163925318
-0.00101286867715662
0.00776842157453944
0.00772853228801484
0.00437967059883468
0.00623996689050432
0.00629780026506371
0.0042097868928146
0.00573758309570612
0.00329873062051356
0.00365367431560779
0.00137416657441266
0.00371475447203516
0.00452260976136631
0.00299592105259813
0.00176760031801338
0.0049471766755434
0.00412017810381407
0.00440427529574893
0.00345017217614302
0.00599921502659261
0.00219730741461882
0.00423489700692718
0.00241648354816277
0.00493934332258299
0.00183435176900681
0.00386997529957728
0.00319486326759684
0.00112077683616291
0.00463173337879266
0.00677622276548644
0.00510808033005834
0.00256443343307594
0.00240859801752449
0.00331441476467907
0.00413415866454538
0.00320057610584686
0.00142256946076625
0.00411758629911785
0.00467766827897408
0.00341123168716872
0.00121183662132475
0.00388955132191018
0.0036233581549657
0.00352339805295005
0.00206966186100688
0.00259006878785367
0.00427966600464529
0.00207871776255727
0.000672381626522838
0.00235487463796389
0.00324964134533028
0.0010350892104435
0.0042541549089085
0.00165753961239086
0.00270620279297175
0.00975547967005143
0.00326152658774472
0.00419119307176441
0.000571083414885765
0.00498750392792258
0.00191276100969021
0.00439419307214746
0.00146092627508829
0.00563983281987553
0.000303455377632679
0.00342881036988073
-0.00106502037521174
0.00463085114814776
0.00162967592105561
0.00279055749009137
0.000862246490747769
0.00400589248829096
-0.000486578288388623
0.00605067641237809
0.000678958310161916
0.0026810917617426
0.00783934823606757
0.00548990017511303
0.00573003073295644
0.00611220611280269
-0.00520353953494724
0.0212097745369005
0.00272300865247709
0.00686287492973766
0.000821805232568012
0.00635642373421447
-0.00142613651807569
0.00700874983655682
-0.00166010281169316
0.0037984994902765
0.00293948766146747
0.00546628713196519
0.00486968125714159
0.00343095660242438
0.000341800877852655
0.00353549277501191
0.00130237750257048
0.00219219021447061
0.00212429750332514
0.00488123970853596
-0.000898792537366731
0.00436479499069189
-0.000157669583549969
0.00393152510573341
-0.0013317265433604
0.00675764401250803
0.00090748991294346
0.00396074652274274
-0.000557232643731928
0.00694841871184285
-0.00205412177563597
0.00225729469403944
0.00863415307731844
0.00323742815265506
0.00422629303007145
0.00282397139498935
0.00324395105260838
0.00247034468201476
0.00289865791604136
0.00283143667256524
0.00287822311939648
0.00190443199737499
0.00352103108415239
0.00315522893181142
0.0017661460476687
0.00249337692847627
0.00418953542753955
0.000903428156901177
0.00165319479498797
0.00311817082471178
0.00123605082022152
0.00404526504894032
-0.00233198661882027
0.0152301017216801
0.00644410362406974
0.0114383989464423
0.00563853355610827
0.00755821969048519
3.56119235670971E-05
0.00360870111114975
0.00161890548295142
0.00306896355683442
0.00206382131302525
0.00530618390457588
0.00210172537015459
0.00415062029435719
0.0036977210264417
0.00326016225061857
0.00127829831378627
0.00248268054899724
0.00379014650588994
0.00128064397356986
0.00253975877992719
0.00337754889853112
0.00390704999153363
-0.0031994678897276
0.00591353784763593
0.00371188290302285
0.00842160365081285
-0.0165387709540025
0.0236195025490604
0.00970309585331341
0.00777631250221248
0.00398174349385894
0.00100049925520761
0.00298597006916019
0.000225153741918736
0.00136976753610418
0.00425738826994132
0.00318145325954529
0.00371165785594553
0.0040275268290301
0.00171930055068523
0.00380608517202233
-0.00529430269810899
0.00847989875095881
0.0202240146886073
0.00690379795203934
0.00811906604588146
-0.00681655584535172
0.00709328533834402
0.0213796188369834
0.00190802423477908
0.00875041710903854
0.00239467736795104
0.0069839451876738
-0.000347904697681242
0.00475891874087498
-0.000796708787793711
0.00893820228847883
0.000684812860303011
0.00459718620364793
0.00206700499382237
0.00146750814943446
0.00196070276475379
0.00154138990355014
0.00590139212202983
0.00998199141649071
0.00244585266981473
0.00750925353023392
0.00186218783179344
0.00415484429967736
0.000317213412120771
0.00769533820602472
-0.000969047414302004
0.00465290683847285
0.00471811632789771
0.0027691327371918
0.0097452572313629
0.0111093090756979
0.00210555347344237
0.00675490847557851
0.000352310867999932
0.0171267874554
-0.0133042962421847
0.01246844116722
0.00777777505093564
0.0154750029899268
0.0150944697662246
0.00221995844447883
0.00637822735494361
0.00110976883376595
0.00351088728372941
-0.00635015725124179
0.0200054550737066
-0.00341033930066957
0.0120875683344419
-0.0105805878459011
0.0103982314417017
0.00456883243987243
0.00933153674119299
0.00063236089357444
0.00737929815497072
-0.00523401693568883
0.0208285078177288
0.00134178787671313
-0.00277755037534857
0.0160614682402007
0.00625462927883963
0.0286751056752547
0.0016682901538439
-0.00334926675322896
0.0162743171895696
0.00555552147496666
0.0104538266053521
-0.00275165537168325
0.00911751108339007
-0.00709620546475291
0.0032062041410493
0.026417493335697
0.00424457295031437
0.00749505127094562
0.00525602332234593
-0.00101899357924904
0.019596294716352
0.00701792695021013
0.00770005347150562
0.00202280787147558
0.00850818962707322
-0.0171466755430183
0.043063280629558
-0.00295442210134837
0.0193268054347416
0.00742540267298793
0.0151246870787423
0.010378263170902
0.0106096438722926
-0.00128661863750347
0.0111650940493635
0.0125521716256007
0.0110714495704495
-0.0108517065886501
0.0145882926043006
0.01212365067714
0.00331130902446549
0.0108701546812701
-0.00128177531152335
-0.00821875993747741
0.00897167276495445
0.0350678083785847
0.0249783832869996
0.00753240669760303
0.0012861864219943
0.0173950418847552
0.0066067393456401
0.00919057517085771
0.000387692026907052
0.00711587268691254
0.00451212276125424
0.000417526105181412
0.0107594410742469
0.00283481622805702
0.0130244633806922
-0.000723628059627563
0.00304180643895209
-0.000637339032322868
0.0301161960975167
0.029037714072743
0.00332692093726603
0.0192673309517473
0.0102214706443389
0.0205220759362592
0.00325949759591824
0.00915048725777982
0.00583510863487917
0.0104360628025545
0.00763472465790455
-0.000461647975535877
0.0209418703310664
0.00101245784014831
0.0273711227287613
0.0176915293207428
0.0133235110784378
0.000811241984280711
-0.0229118214659647
0.126017043932576
0.0103231657027555
0.0404610067307732
-0.015146117841069
0.0213281189990131
0.0319606635512075
0.0302089453605299
0.00766184113799346
0.0151083251142607
0.00536293078375565
0.0159246914408886
0.00979455870502012
0.0184027375995456
0.0137931025722903
0.0185901409995313
-0.0115018305119139
0.0242849696062441
0.0255613582614645
0.0618276544832908
0.0230043881027909
0.0208201536345101
0.0177099336755296
0.0292450422215105
0.00768525826218362
0.0304742272083529
-0.00844699139202672
0.0256068012538605
0.028922652282514
0.0276988059258539
0.013454236101437
0.0123177582818908
0.0316698280238742
-0.00103135362324192
0.0553224631234377
0.0167256712649365
0.0366277738827153
0.00813217685246294
0.0264381358005046
0.0134927034641246
0.0109806841234887
0.032970932199014
0.0253519049869082
0.0286879777006837
0.0179724241453085
0.0267429419959905
0.0191514747486394
0.0220138554296004
0.0175773057016315
0.0126188656070128
0.0164149302052051
-0.00607694313742648
0.149212849385834
0.0333090101479587
0.040759046478164
0.0174501562578082
0.0239960077255824
0.0332391610127255
0.0103080924693586
0.0633923657200072
0.0314796154006898
0.0296423684358943
0.0172760428852396
0.0264446046109662
0.0225790469774331
0.0203489946200227
0.0264059794894266
0.00600713470848077
0.0433078080996642
-0.00715450534977034
0.0603750381065719
0.0403450834278813
0.0390850059782995
0.0154754655356983
0.0236825854036506
0.014477923063242
0.0287883093861246
0.00724648194538341
0.0232058667204053
0.0254852006867543
0.0190971367284912
0.0217915608169647
0.0048816124569275
0.0358786703040483
0.0218505700588213
0.0235491752658494
0.0226215586152916
0.0165040052995651
0.0308660452508145
-0.00642575575164779
0.0234045745363528
0.0415893264877676
0.0269475723679868
0.0214205032638643
0.0133759013704797
0.0219317138206954
0.0215369726694711
0.0171159140515221
0.0214672219502004
0.0168016909994936
0.0188710454338173
0.0251185852979218
0.0167098546984175
0.0214660790622173
0.013454136619975
0.0234960592208694
0.0136237405891491
0.023241382592492
0.0160143228874073
0.0209498096273467
0.0150410444200904
0.021782651620735
0.0160138306251138
0.0190033535734371
0.0194318034069675
0.0222543657729912
0.0134654404204641
0.0227780862090496
0.0152487586348334
0.0210760419700205
0.0126091288252659
0.0230152650538963
0.014842230085728
0.0197582681547416
0.0131373298432785
0.0186019941022509
0.0144078105595742
0.0198952261850483
0.0122848776164311
0.0208848224741625
0.0129869293497797
0.0182416011170697
0.0153000068126148
-0.00739091123768182
0.0579437935192039
0.0216759328402419
0.0286713804237274
0.00495187524295652
0.0210472319169468
0.0119341208365733
0.000666545128695977
0.0362779814828001
0.0228478052856289
0.0205929213361109
0.012347379654866
0.00833206711013665
0.0198589026589018
0.0134435911986
0.0134551976069431
0.0188454787205648
-0.0144883110094394
0.0514563033593973
-0.0202479548924524
0.0819755825774196
0.035121752780027
0.0433539791650319
-0.00515146359587814
0.032660865073311
0.0241972129483707
0.0161856640231454
0.0144996455446976
-0.00240608884988938
0.0285799653863678
0.0118278341492477
0.0137691093919567
0.0105086198928223
-0.00149064516803225
0.0196284744988256
0.0292974682234855
0.00729747930514173
0.025242584778892
0.0162835223462527
0.00246116834251376
0.010671833412665
0.0543706907890414
0.0337372159875339
0.0104174200646192
0.0219161763020074
-0.00187469289523628
0.00945123427441788
0.025306780937671
0.0153185306655483
0.0246795101436359
0.00165354768715145
0.0155161408842554
0.00349574572258647
0.0286130576919125
-0.00323338994251602
0.0135937543662537
0.0298692819922865
0.00575817901953401
0.0232424850294981
-0.00544833016519541
0.044402686957652
0.0209867918086608
0.0328623081346483
-0.00815317323425168
0.0337981666973814
0.0181363814515591
0.0193771864819084
0.0217085351483861
0.00470119041573467
0.00953437934745035
0.0208334241837496
0.00309977023737373
0.0204488004939648
0.00578639601646825
0.0254462922772314
0.0135485395742192
0.0430041761993029
0.0412564513705064
0.0194146739346981
0.00983518549715775
0.0112622542964095
0.0082423643885023
0.0184537807973752
-0.0108077562637145
0.0396464945842565
-0.00119218023576769
0.0196374967169936
0.0183014912399483
0.0199996298589619
0.0149631242993175
0.0145092396247847
0.00378610575481327
0.0135891671299612
0.0145361913674151
0.0463528084791137
0.0010981087021248
0.0235960972253803
0.0166295823457613
0.0252509264137263
0.00995252893917566
0.0200488679291947
0.0114967107159963
0.0138058928469373
0.0194426211959666
0.0225273274359398
0.0109061920996394
0.0240298236683851
-0.0025825760460116
0.0452200163342465
0.0255283539950449
0.0210541996932481
0.0328194915755346
0.0130538846707204
0.0560863364135109
0.0302784461014972
0.0296990325076278
0.0231165917297914
0.0221327233146464
0.0292017108648276
0.00836089027784243
0.0347101217411285
0.0378343250222322
0.0303719182585346
0.0274761145025878
0.0247140641178576
0.0260585593479242
0.0169120159976161
0.047196521483421
0.00640262182113896
0.0795069510063039
0.0342375857784335
0.0531927837115821
0.027830589464337
0.0281583452451898
0.0316162607760087
0.0276158434240802
0.0365003831358519
0.0201147498866937
0.0314956510909334
0.0435421513921801
0.0289283383294834
0.032848605669474
0.0249038848240615
0.0276592681729088
0.0292762865997986
0.0310188739766422
0.0320625811460578
0.025422191854913
0.0401490394800883
0.0204150548489051
0.0274173308922927
0.0777783380171765
0.039876192303671
0.0423169450125597
0.0269789658087607
0.0461622925741012
0.028329821510096
0.0308937889878456
0.0466959101994762
0.0412078981744593
0.0398606437275955
0.0358294879389417
0.0400849611522169
0.0325880146868526
0.0401330726560471
0.0504110586063156
0.0302989022910569
0.0515407200103147
0.0077304335895255
0.0788681697596647
0.0367239865128982
0.0570150491564652
0.0424481087951892
0.0465047790042866
0.0340320786244911
0.0409967802412096
0.0378191847097181
0.0394149751954377
0.0382656355566271
0.0362939864752314
0.039542787573342
0.0315359413941172
0.0399141553881268
0.0324187499104988
0.0328261405386019
0.0462346484339789
0.035587518319652
0.0359683513686806
0.033218355880737
0.0364129358723
0.0256132073334858
0.04971586368126
0.0365096335006957
0.0458414207487131
0.0278429372717847
0.0370937130571929
0.0478115094852905
0.0442758853893544
0.0301927383621565
0.0367249840896172
0.0263662456344202
0.043181356476096
0.0242107087932108
0.0414793488061202
0.0398488806297313
0.0436675357765865
0.0346427030423405
0.0373957467922988
0.0333284675103721
0.0360264795635173
0.0344209104005261
0.0372004147261371
0.036243813500335
0.0406934021821948
0.0407779645501245
0.0338049540905352
0.0374696955594654
0.0342272606417565
0.0461829687367501
0.0462468073984246
0.0358561141106701
0.0413828986107575
0.0309051540890173
0.0387830093096663
0.0352640924462142
0.0376768440188428
0.0264967922289649
0.0409827423854875
0.0278271239049434
0.0389449010604874
0.0452435584346655
0.0333232654593489
0.0450768882317023
0.0301095694993028
0.0361702536955719
0.0281435176424609
0.0357052317276955
0.0286764309274506
0.0331538751016273
0.0306667872089339
0.0299201751312594
0.0279386763915109
0.0311090340580147
0.0267962048604706
0.0283125467065604
0.0312330232641739
0.0304151433376577
0.0304465069199925
0.0307760969546974
0.0289178951785428
0.0282316274342425
0.0282439129861881
0.0295344923673504
0.0235885540484763
0.0356049361005276
0.0282467343240062
0.0367903919914449
0.0257440004733438
0.0397341513388841
0.0265318427753659
0.0294465552573065
0.0260137233781576
0.0295528177677001
0.0264880362119467
0.0278208438535859
0.0271514428923265
0.0272837726730674
0.0260633391476768
0.027902567428741
0.0278349975504187
0.0262929146478951
0.0243667775302354
0.0281994478285918
0.0268260308838
0.0272217436138301
0.0289398687764366
0.0266049035464407
0.0325700283948619
0.0261205663990505
0.0320341058890502
0.0275022323466787
0.0273699297478013
0.0276558780916833
0.0290529852840104
0.0307528237606348
0.0259164851777915
0.0284459184313439
0.0257258429774891
0.0262093899186246
0.0269460027049567
0.0263960084723866
0.0272584259917615
0.0274344037469705
0.0261387162048997
0.02732109773085
0.0258347534912065
0.0237788070528359
0.0260395181846748
0.0244985239668599
0.0230671951822006
0.0229655503930445
0.0239506235497896
0.0232455457738802
0.0232692771143868
0.0236558909251412
0.0222739772742461
0.0202678028540257
0.021016098143814
0.0208137292847953
0.0232893965268874
0.021278094967567
0.023977506482251
0.0220260931867959
0.0239894386607911
0.0214159011969433
0.0202482740412814
0.0179521501361513
0.0206556535560466
0.0190329272912725
0.020819182882345
0.0211763472436755
0.0218439180232483
0.0194874890526716
0.0214005520220912
0.021841029220686
0.0229781199327828
0.0197747296581874
0.0226595704971036
0.0219472330979685
0.0231542597738005
0.0224019538968012
0.0241915233476439
0.0235034689026035
0.0209285473922619
0.0243144380014199
0.024838521034965
0.0258645276871957
0.0237913607071626
0.0250723564426393
0.0249072490112603
0.0265929739381256
0.0251095876191967
0.0249480206543561
0.0233627770929734
0.0253037196479243
0.0249996294935902
0.0257205877255947
0.0229509846309041
0.0236311414946684
0.0250501479778894
0.0233005135094215
0.0249492557289732
0.0236926023151866
0.0252553614556052
0.0239938534848755
0.0239094508591634
0.0235985252272836
0.0233951321944729
0.0229447299188091
0.0233799810767342
0.0247433879217733
0.0227527382258684
0.0217191220491002
0.0223430065938863
0.0231957316801476
0.0228016221716494
0.0237843622780662
0.0242413507670794
0.0232999042057349
0.0207684077014151
0.0216878409902693
0.0225402859812485
0.0216601354432023
0.0229649430516485
0.0225918293777314
0.0224038312739743
0.0231718319832645
0.0228602203591388
0.0231891375214393
0.0221140933477668
0.0217017112938059
0.0227937804262384
0.022416518363591
0.0205176713489561
0.0220584424147472
0.0219601376547107
0.0214023935470181
0.0214727675817459
0.0215173709267603
0.0204365829078013
0.0196427005933265
0.0217866347208077
0.0211242934335163
0.0202757293168972
0.0211010447868875
0.0209876540575125
0.0210613681839692
0.0209768163657234
0.0205297659304995
0.0201364684713389
0.0211588894000158
0.0205913033408517
0.0212549395629293
0.0208697120997849
0.0214885571511705
0.0212080406624563
0.0219349432801699
0.0220782709690458
0.0211585354901466
0.0217421343191696
0.021552192262184
0.0198416668691833
0.0197796605818182
0.0205866664132388
0.0196904023403382
0.0204429483121148
0.0210447469094554
0.020588580379818
0.019297163364736
0.0206132818389023
0.0192836974176566
0.0183795206442954
0.0212891999653797
0.0219998948241659
0.021490618512347
0.0237705356451351
0.0260726047423863
0.0254904728586693
0.0254781040700547
0.0293326175046554
0.0304057787476117
0.0308565003955407
0.0343605878542508
0.036540679885815
0.0377139022342956
0.040117507118699
0.0421526045889549
0.0444669744372691
0.0448763834855856
0.0473485584948132
0.0501338556255182
0.0514145459948339
0.0522458859365452
0.0578659835749373
0.0571676965305942
0.0589040148402505
0.0605332283939297
0.0648709276919234
0.0661648178647728
0.06535222575791
0.0682577347999695
0.0677720990237745
0.0694869396675742
0.0715599483062361
0.0726694896250985
0.0728513286229306
0.0724620992165097
0.0721593748820713
0.0719117674475005
0.0700241549316543
0.0699311705450335
0.0708162399512398
0.0689624217305831
0.0681894980299852
0.0701657487462881
0.0697930123088669
0.0692664946757323
0.0675834227073857
0.0703338198489527
0.0666490072214005
0.0683964675345691
0.0687594234340053
0.0690297342328542
0.0668487076041516
0.0706900931042278
0.0710692664887564
0.0714493003923427
0.0725508913100947
0.07451041390479
0.0739327804224222
0.0725534724808006
0.0768961820347705
0.0781078348631945
0.0780872893572681
0.0795420737437255
0.0815062916452138
0.0826152711940563
0.0844553835744842
0.0850872879951904
0.0849724300695905
0.0856849105033119
0.0884531749162048
0.0900878286229472
0.0880185865386672
0.0890000957773777
0.0907355387499325
0.0901761551685782
0.0889146711607576
0.0912815068195007
0.0909319403525672
0.0886392535587635
0.0887222558538296
0.0897237867478444
0.0888824327564598
0.0890955954886647
0.0894188037844572
0.0907754413398229
0.0908827644232976
0.0930441606598865
0.0923962515969086
0.0967900153054583
0.0985175329097091
0.0995368632359814
0.100981980518169
0.101701571949248
0.105859025437868
0.108877821571405
0.111158178573549
0.110809209525118
0.113472601240802
0.116413807933028
0.119288531313247
0.119829691375729
0.122401521460054
0.125790546903151
0.128286385618124
0.132256424687116
0.135791641935493
0.134487392358628
0.141026215909226
0.146378189196807
0.14294109271265
0.147412736987427
0.153436976707546
0.153342463759101
0.156365637859466
0.153915144337548
0.155858627369196
0.15325606375148
0.15729113121085
0.155504919889889
0.15656067463212
0.154230582519108
0.152744941056181
0.153107059567698
0.152290156207287
0.14741547795292
0.149055435641067
0.148649637575814
0.146413957169935
0.143086749673851
0.142123232740312
0.143504509511194
0.141063719943783
0.141317670211682
0.144210110863361
0.139956822388669
0.144673215839028
0.14277924317417
0.14403754506197
0.147657884526678
0.147632783848305
0.150931993696509
0.147651075304052
0.155009079895415
0.154516477980378
0.15283461962752
0.155459811654193
0.158216267047871
0.159666051140394
0.160357112507783
0.161625857046463
0.163604959603571
0.163056840029727
0.161978309722002
0.167668307381814
0.165684948732064
0.164361651123897
0.165934649131773
0.164025024348063
0.165205123756066
0.16427956024589
0.162379549205826
0.161478669435391
0.158145425186833
0.163561027232872
0.163511852850764
0.155519126600351
0.155170867364468
0.156946198017464
0.152777597552217
0.151880324712185
0.149396688523958
0.147418418376962
0.144742523534731
0.140353734365487
0.135728849083414
0.131497435613893
0.121302670119505
0.123661615131875
0.119163103673448
0.113371599533428
0.109257413810307
0.101062503973002
0.0923351606354373
0.0874870678109699
0.0830502813721389
0.0716755861514026
0.0695645648882166
0.0610275483325993
0.0577217266406353
0.0478401576297115
0.0473494345812185
0.0418934881122931
0.0346975703904539
0.0353722785154276
0.0298420696339857
0.0310904675541928
0.0265177802201646
0.025500459814248
0.0227910465117691
0.025604771956632
0.021211461844057
0.0189709924281282
0.0186381515243201
0.0123730111105612
0.0109345639841726
0.0123370953121341
0.00503586495142723
0.0022324281510447
0.00377451423772972
0.000546209984935214
0.000723115858497538
-0.00277870987450401
-0.00411740145372137
-0.00690495458705487
-0.00785190182930865
-0.0140927695848193
-0.0148629105974506
-0.0146799784204961
-0.019334076921682
-0.0177490281518561
-0.0194409069556959
-0.0230228101722923
-0.0227942417853528
-0.0216595746450654
-0.021801601791202
-0.0238511713578283
-0.0212820060815736
-0.02098611333702
-0.0231408327044059
-0.0222985032201057
-0.0188314339684901
-0.0184312395103491
-0.022184166657724
-0.0194528601688161
-0.0206100818358882
-0.0187398444514973
-0.0169533796418691
-0.0158037597623264
-0.0154825161295427
-0.0188598576776879
-0.017034435388184
-0.0132925118043515
-0.0177031445564956
-0.0141845435994787
-0.0138907313796632
-0.0146191946894247
-0.0144043530799745
-0.0133006398481492
-0.0128858346386637
-0.0139646313530781
-0.0138498933855314
-0.00936428653271346
-0.0114718800258086
-0.0110568773738409
-0.00777375505132283
-0.00841132420052451
-0.0111788542442634
-0.0094710806072601
-0.0112476592033095
-0.0112242232188613
-0.00991963535467826
-0.00948027808967441
-0.00903771557985488
-0.0129509622327938
-0.0091328843397336
-0.00811571215784637
-0.00908566899988333
-0.0123745299937494
-0.0106413950386918
-0.00789304598759159
-0.0129456557449494
-0.00959083761210295
-0.0101394582081096
-0.00773135732821142
-0.0123253888258097
-0.00889506601623149
-0.00952293626601607
-0.0106778973799681
-0.00952308407428784
-0.00732053169127859
-0.00807056101527965
-0.0108006978386052
-0.00748207494211964
-0.00530873751410728
-0.00660307628663005
-0.00653544462604776
-0.00488194814854923
-0.00700209201593554
-0.0059691229592305
-0.00439876341262329
-0.00755949649737567
-0.00536931576857254
-0.00881439857324048
-0.0081502582728649
-0.00329455089210571
-0.00593333366595395
-0.00301828851049533
-0.00414923335924774
-0.0082602604735593
-0.000141305728669168
-0.00408152901684314
-0.00159647899746003
-0.00543239088364366
0.00305897185485448
-0.00384881539956792
-0.00669446042382415
-0.00367468374942361
-0.00297237204915738
-0.000997817974883642
7.55961601152424E-05
-0.00408421061669711
-0.000735098786342249
0.00225826885505179
-0.00203353823464307
0.00140802465445781
-0.00151546241107212
-0.00161041900099676
-0.00014658984462434
-0.00186650752725147
-0.000306013199386337
-0.00635444909256915
-3.88352662578993E-05
-0.0060167412601774
-0.00303321251485247
-0.00435228701485538
-0.00531247960788435
-0.00823815239703952
-0.00107618201438524
-0.000985859413235741
-0.00131770715858302
-0.00337804679786161
-0.00338358294879725
-0.00348138287951029
-0.00552700086098605
-0.00612584918876569
-0.00223690480410268
-0.0050217367664315
-0.0052919965363466
-0.00424705652845319
-0.00895746582323738
-0.00168254064191176
-0.00261114443674982
-0.00465239098613766
3.18378918304606E-06
-0.00832694011453731
-0.00496135343503057
-0.00277251989734105
-0.00600283025077058
-0.0097853717104124
-0.00612463947447152
-0.00864713893197951
-0.00531704252317321
-0.00349025589929246
-0.00866124539004848
-0.00516235656073686
-0.005110424897885
-0.00694179806340971
-0.00904383917558086
-0.00433946162672981
-0.0147116023207565
-0.0119478953750634
-0.00556877278359258
-0.00809935838329743
-0.0139745576008289
-0.0159318156410412
-0.00298340914400717
-0.0148596035310666
-0.00989981320420389
-0.00855688363055741
-0.00462502781662104
-0.0104187522588594
-0.0126011723962529
-0.0121273183833007
-0.0114222275158396
-0.0138621442664213
-0.0104646747407286
-0.00948872904423897
-0.0143924427513692
-0.0157897722457408
-0.00701984421851602
-0.0135808124554619
-0.0101005472703178
-0.0070652357870127
-0.00979006659481839
-0.0132257035649493
-0.0142129456941031
-0.00521943267239922
-0.00812090717610326
-0.01252525102827
-0.0057890912147772
-0.0150363353851573
-0.0104101146072775
-0.0119900781515696
-0.00796220006203632
-0.00887987425077474
-0.0156574136734882
-0.00393306040052362
-0.00549417637618352
-0.00550846257593186
-0.0126755329024017
-0.00819969163046604
-0.00733215775893697
-0.00807638437493513
-0.00489639371877721
-0.00451639832772523
-0.0116580098544275
-0.000854461274247506
0.00574474603138994
-0.00186284061430109
-0.00171388406243691
-0.00365175454264036
-0.00319604090796294
-0.00605723567456124
0.00274113832006864
-0.00267005111772898
-0.00447469923195322
0.00192448438982072
0.00543611293488702
0.00447912582059249
-0.00493397084683277
0.00630668824968076
0.0126869464002695
-0.00216666658363219
0.00389806857974502
0.0027632073586916
0.0080058385367824
-0.00857935507107875
0.00870119008451252
-0.00096809812488052
0.00866875421755625
0.00166997750758246
0.0172179212583367
0.00638940165777127
0.0017357717286766
-0.00536878515360825
0.00691151052365343
-0.00119146832301842
-0.0020497498966474
-0.00280227440857111
-0.00247740669979591
-0.00712190455295542
-0.00263946599586522
0.00720000630973973
-0.011307149042576
-0.004980584311609
0.00792238472158072
-0.01606204439919
-0.00301528867239675
0.000525492976686094
-0.00227511792225303
-0.014282053336198
0.000624232505902555
0.00662839621257596
-0.00566026926927149
-0.0227023279791086
0.0109864996673338
0.0122689464070005
-0.0292778311523419
-0.0112814123410704
-0.0114225141841731
-0.00835424896042227
-0.00109620388325885
-0.016411993088316
-0.00906907078899584
-0.015677373763306
-0.0140626813832896
-0.0150834801318481
-0.00657055649334488
-0.00892231425232721
-0.0055320348129665
-0.00128877711214756
-0.00691662628161897
-0.00983303384266631
-0.00838036911444655
-0.0150260702387074
-0.0077928647667523
0.00364706648896956
0.0045383758334098
-0.00947370355894837
-0.00635497795831003
-0.00814808359512405
-0.0107552694158576
0.0015036149428354
0.00388268986092452
0.0124517294920587
-0.010823713214388
0.00772759770914685
-0.010443197492041
-0.0101324003199382
-0.00784936950406114
-0.0216962519609182
0.00772799239508771
-0.0236351798328746
-0.0159910298092633
-0.00362815501308084
0.00177359726818913
0.00449888744018671
-0.0118231140505783
0.00241760721822507
0.0111281096520767
-0.00263389156288071
-0.0151221448527037
-0.0246960372860189
0.00691263766789473
0.0143100323949586
-0.00188404175187087
-0.023487023104532
-0.0380483905574705
-0.0058605682368942
0.0208138208791634
-0.00981950387913024
0.0199124487877599
-0.0147775019180586
-0.0168127096679621
-0.00754175261113948
0.0332810254563322
0.0042711437544791
-0.0331552003264035
0.000342570832610113
0.0197964013027246
-0.00250390186637868
-0.029929537707126
-0.00511668889810713
-0.0304631576742885
-0.0150744435893818
0.0179727009453736
-0.0136408081440099
-0.0141678889510968
-0.0335073956654932
-0.0154856122307517
-0.0267772380539239
-0.00121506763233411
-0.0306934423675779
-0.0315564956097167
-0.052350335586024
0.0407408766391357
-0.0157007210873891
-0.0347859378220126
0.00290590617191773
0.0156254737762141
-0.00374061809333848
0.00374205183433487
0.0382418121245498
-0.00754696051876444
-0.0410857158824684
-0.0214790703370693
-0.00481618666458347
0.0153685642835422
-0.065025449529368
-0.0100841980676196
-0.107605622956602
-0.0649713944539491
-0.104262851487252
-0.0670642636839967
-0.251262187409651
-0.0899201201404927
0.0013064615101738
-0.0633796089798293
-0.0115478917180769
-0.0553186434633772
-0.0810164121315498
-0.0656883033763301
-0.0739185549270222
-0.11476186492235
-0.0525838685234443
-0.126872820055206
-0.0781669717740883
0.00700170450662992
-0.0805080790428336
-0.0978929106063316
0.0525619605531638
-0.04666157841202
-0.126208765743027
0.227266436219372
