3596
4000.36533379555
650.420452594757
1
2
2
0.0343816055517778
0.0316612634379673
0.0294394252781348
0.0218115358257901
0.03874182975298
0.0242483244964099
0.0290726473663296
0.0269356767784421
0.0288693113829976
0.0271906551919179
0.0350209520720642
0.0236168375895715
0.0292552395523159
0.0249654481483345
0.0305176993446484
0.0248044716822591
0.0319104714681336
0.0230812258339126
0.026242880501028
0.0251456836236646
0.0318284874616839
0.0298970050120652
0.0334911636875492
0.0289156281202326
0.0333604539373405
0.0308237547334923
0.0371115435479704
0.0269073998278018
0.0276359279804055
0.0258867230445347
0.0296170702057081
0.0267808434822878
0.0351654762807808
0.0235864558750734
0.0331409249907522
0.0282742290872764
0.0355923441256746
0.0239298808295997
0.0328997970633624
0.0268187738409144
0.0266664302997003
0.0232414914369609
0.0366237935314953
0.0282092083332525
0.0297599108940239
0.0245558847404658
0.0355595364918471
0.024033725477107
0.0250550334897881
0.0289979014209807
0.0340253158369857
0.0326402266326638
0.0319214300023519
0.0307042543563654
0.0374816137452502
0.0363448478688053
0.0399056560613232
0.0281808683509718
0.0338254236379346
0.0209380514965857
0.037027659633486
0.0434145606940676
0.0347601653116022
0.0194521188570952
0.0253747161679529
0.0253753516935751
0.0341556203073483
0.0250132973496786
0.0339335697529374
0.0231863027451049
0.0365271057885132
0.0154162236627119
0.0413038649311278
0.0273056387894187
0.0388685269609254
0.0283000990523479
0.03031363963391
0.0233109427586065
0.0272390439847084
0.0206640163209113
0.0437852066476338
0.0210558003228791
0.0346508612897696
0.0206613931054851
0.0382073757491955
0.0312376755128955
0.030404562537039
0.0127028573979214
0.052876497446991
0.0327497638423215
0.034350908889828
0.0172390445340136
0.032764285935101
0.0133086460874898
0.0332787634232691
0.0148383322215188
0.0284392888428465
0.0183767295265075
0.0313224649009003
0.01591843446472
0.0332480452263775
0.0158324623059749
0.0576253200620343
0.0280059013985959
0.0448101331925638
0.0509684080194336
0.013004118866967
0.0500058002218035
0.0494901913893792
0.024086482377018
0.0308515332312088
0.0173532352469781
0.0311460030656179
0.0219136071031917
0.0355515749469595
0.0230005836063824
0.0641854094414258
0.0294565695156526
0.0370475184933069
0.0187401045989782
0.0249281551243066
0.00472905367455551
0.0750139081812608
0.0243656151491965
0.0442242086890373
0.0302419234418682
0.0273281440296298
0.0186033191556385
0.0613118343420218
0.0287515566711162
0.030676463304214
0.0165938973487767
0.0261985776626366
0.00696139215728751
0.0504474522424516
0.0387480646595369
0.0289350416249032
0.00754383250487576
0.00913237643342203
0.0633042842553422
0.0524004083464495
0.0245296655258545
0.0159181246807576
0.0101237494353308
0.0647149601628372
0.0297126016122712
0.0220471418434427
0.018679261472259
0.0484647138487292
0.0254613752751519
0.0262552588129773
0.00940741383362753
0.0404012791684246
0.0188744191738243
-0.00338634475882009
-0.0241591621927995
0.101598755993341
0.0214025523748563
0.0794028844382852
0.0463947717181243
0.0311152351808541
0.0347731663035355
0.0215892478152416
0.026893737672827
0.0266209183294314
0.0211312288058444
0.0225804991389753
0.045821511910644
0.0288037364574973
0.0216711114643827
0.0474049004675056
0.0218313892192404
0.0159620506533487
0.0504073961891953
0.0624176957788199
0.000616763707506272
0.0522691269759959
0.0414565740277827
0.0229951495285276
0.0175101581455846
0.0581406229073679
0.0265903916959164
0.0303368523763471
0.014569253189163
0.0272766955032186
0.0379995491221997
0.0425067747668211
0.026753060817717
0.0332423459271428
-0.000227868198357795
0.0140305126433078
0.0457825587195345
0.0633409790484371
0.0264480290330799
0.0304407421401098
-0.0021163946421452
0.0217698851873865
0.0686870225944399
0.0352030893901436
0.0231460491369422
0.0259730299981529
0.0209770351567733
0.0314514964918939
0.0209537415292733
0.0209768115634329
0.00249145612618832
0.0459826294112481
0.046408217745582
0.026200971810506
0.0177980166354833
0.0134071322296541
0.0124144926768851
0.0408980349053478
0.0652103328843713
0.0266752562936688
0.0298016431388522
0.0208660487735123
0.0311466002167961
0.0505247173880846
0.0303138995677305
0.0265860880304472
0.0237076500118246
0.0244440806921544
0.0170329423036713
0.0259379342341188
0.0245256499951495
0.0306959844378821
0.021665871207955
0.0217476570366438
0.0230081605528918
0.0317130962329743
0.0283060847591553
0.0310448118865936
0.0213058964351782
0.0225107787246575
0.018474251531955
0.05207076876303
0.023925362459084
0.0254179951583935
0.0221878531286399
0.0246568975263476
0.0205004082507281
0.0289950023233698
0.0220885044547691
0.0210577995900967
0.0124348213599004
0.0440809308763606
0.0445842388139482
0.0198321561185729
0.0225389951362394
0.0268822586602916
0.0502952314035756
0.0245324257788031
0.030693291659599
0.0216928357051593
0.0204991340142625
0.0125255828958286
0.0425053985582865
0.0325226386369704
0.0218931125914747
0.0340527714964489
0.04223462484323
0.0174571564332428
0.01226212854695
0.000708909686458867
0.0581292416311283
0.0459933469249752
-0.00706237712043405
0.0764838873289415
0.0544348306331845
0.0310966291558946
0.0248960371924084
-0.0343590410452949
0.0611081476481234
0.0924333995676287
0.0291854817074192
0.0371047458120588
0.0339242246743483
0.0322926540654613
0.0189385379629659
0.0294278270614844
0.00546651150005496
0.0548620372052717
0.0447272871546287
0.0664518760451018
0.027911062614633
0.0158146474954255
0.0558574049039811
0.0290162661618047
0.0363062643135453
0.0285985744790447
0.0261037388010467
0.0316596554671419
0.0422337527453505
0.0359411112165627
0.0380461270086343
0.026191271788648
0.0418328099345403
0.044405839231673
0.0278771020905322
0.0299507460571481
0.0374640883229058
0.0332444618788479
0.0271530814597555
0.0280314290034259
0.0270710217779374
0.0275940769904091
-0.00287796917969588
0.059068932549362
0.0483433036322282
0.0199935315987361
0.050266643716533
0.0403052753004058
0.0284087511924975
0.0303847578790935
0.0245574328712682
0.0259880843431615
0.0197712003688041
0.0129052959054316
0.0383082039553441
0.0463570476909797
0.0176687725301208
0.0343434074059394
0.0190934030597883
0.0348438193202115
0.0292814365423318
0.0321353866963027
0.0228134987683694
0.0313770298893232
0.0157228951580689
0.0362818057685038
0.0456722007347039
0.0132042584048183
0.020306633737464
0.0796603203667866
0.0284727944460327
0.0410540696739263
0.0197263851696364
0.0356052134007748
0.0324239323070541
0.0317940260685448
0.0305431837016119
0.0288577694210896
0.0301482916847474
0.0433756320671739
0.0152068473186614
0.021335058786625
0.0594191707801677
0.0899822181123205
0.0499630996351257
0.0360682733760311
0.0186268103799856
0.0292603726583813
0.0734445537959179
0.0427453241713836
0.0662193159534297
0.0424630205729735
0.0377894300312797
0.0432276712406314
0.0371481327123052
0.0387307821988172
0.0323161113522443
0.0468689966987211
0.0281037882726638
0.0479607481088514
0.0361574142123527
0.0400316984179614
0.0235545046683223
0.0688962376800348
0.054130850110011
0.046912289991754
0.0484005316352571
0.042261458344332
0.0220069664711901
0.0721538678179921
0.0490101911166925
0.0907513239871277
0.0341003072654228
0.091605734650524
0.0595321978728129
0.0626646614578804
0.0488919209771125
0.0510618130106372
0.0528586863874441
0.0603154933718071
0.0540671866201509
0.0599174366267891
0.0532011147985761
0.0651838967899678
0.0555976610408373
0.0618226386371229
0.0478349342874067
0.0676730549021539
0.0701669517045075
0.0610905882808659
0.0607076536885528
0.050017375848338
0.0876028723516793
0.105348330234201
0.0917799852389241
0.0698913194041441
0.081311352411228
0.0684882384381609
0.0774606747871818
0.0764767743352571
0.0767266448228107
0.0789742174589543
0.0843195730001822
0.113919101479948
0.0859671066094045
0.10619470908182
0.0735990344356992
0.0946930326912917
0.0948383576264367
0.0845607651270856
0.107081324712171
0.110652215680095
0.0778197005276148
0.0984373752442789
0.127711061122211
0.0930499550851658
0.116944152631557
0.114665753952307
0.098025082446868
0.11141548974625
0.108879521613468
0.11385839922301
0.109983780720455
0.123491394915911
0.112922646547983
0.131069264558212
0.120020796686318
0.130915273248476
0.123998151690188
0.136630639910849
0.122690197889126
0.137329488492534
0.126651471760619
0.141632510795083
0.135798174703883
0.138268774306802
0.15910199146979
0.146520177373139
0.160652486996556
0.15204086577605
0.142310485939025
0.156042607091925
0.153245312824584
0.156304047171878
0.154174648373753
0.159358840365034
0.157219339656693
0.172974056281043
0.164048315285398
0.169258450936227
0.157383160524091
0.177398742964152
0.177188653250737
0.190537119127072
0.173108099718568
0.185148997165714
0.174937901052397
0.194967460395337
0.213737931985515
0.197348973741712
0.215783859759239
0.211693064125269
0.193349827098162
0.204636909603637
0.205354265774468
0.226481268822568
0.216527280705484
0.226568282300052
0.215233187308028
0.22904291680642
0.217190415416848
0.23120946778578
0.226958501709054
0.234675633520742
0.229310473546981
0.247557027189245
0.235233920091666
0.249524035428045
0.249138807323412
0.260112989541258
0.261836216407448
0.278115036484205
0.262182890276423
0.265478257463372
0.263611118283343
0.279912850804516
0.276216344381742
0.284288184548722
0.275626076824626
0.277240397859239
0.272811940932472
0.292689393964546
0.304182503945373
0.299644858609885
0.284915338665459
0.316513115553701
0.29297261566217
0.324816564212069
0.313084093067254
0.324537990442288
0.318050582360231
0.328445550495846
0.318860844095096
0.350971923373057
0.328512310898773
0.337901574027058
0.334858107253928
0.36074117125385
0.336478417405367
0.34776519968233
0.349364694336727
0.369604597399024
0.344536058932516
0.349972506567801
0.353360366028574
0.364248307348269
0.360614005565185
0.390812512737575
0.375743386947194
0.394959320419895
0.39968440672982
0.408691338926694
0.379284011944681
0.398721550740209
0.395780654798648
0.413169103281975
0.390390057613897
0.416092238902857
0.407596699660964
0.414933374692929
0.407085940769784
0.445614727405418
0.426813137078656
0.439455005160537
0.430820278898485
0.437856587237495
0.441410074070482
0.474168045632725
0.452224879793591
0.441225927813427
0.454242078555992
0.497230248194252
0.456962549105842
0.462448230677152
0.464023913477603
0.479976560389208
0.479873506293024
0.499335988161461
0.474352915271291
0.507516674424935
0.493784179496396
0.490905026285083
0.490429248796957
0.507156640559181
0.501380390434996
0.521637785624401
0.51088798987437
0.525145893631552
0.511965229208438
0.526519624704048
0.529487593932183
0.525333844661659
0.509195078037098
0.538186159629797
0.519032470786531
0.557149404371618
0.555848246017945
0.583832475595192
0.569152518520971
0.547271738667006
0.548181258967966
0.590984334000707
0.550159648438774
0.580087080373604
0.568706998147883
0.585430024604332
0.577229256266297
0.590102175519
0.581327890433449
0.607487649577935
0.575598896352446
0.591935217710477
0.622081747818554
0.638072083877584
0.603242025002538
0.623839198587051
0.591297913874671
0.615662042111659
0.631360042932203
0.642942305443749
0.621287289085759
0.644476372582142
0.614451605940578
0.645400798784427
0.637844608395855
0.674523552683561
0.649494361372498
0.644076923952154
0.634163631451587
0.646140676593404
0.643788114202854
0.676169721231649
0.663266910778028
0.684532901048238
0.677075560137808
0.66403668119001
0.642459604429835
0.696524693135808
0.679004219460947
0.684415884186482
0.69063915527889
0.692169518896107
0.671194013093594
0.705172881400028
0.687317313139372
0.730500114493637
0.719413120435757
0.733943909554664
0.723100784209953
0.716678230191024
0.693523190238841
0.723182123124845
0.71469546399722
0.743023872466705
0.69893388802892
0.722654289262958
0.717336132459897
0.738827231110677
0.736957095666745
0.777354285502864
0.749697824453487
0.760376120279208
0.728398421262709
0.757914208587492
0.73610412950281
0.7608141631995
0.762325760556367
0.746959199833652
0.746072495319636
0.78828724852621
0.763794615363013
0.815488615496394
0.751399336471228
0.78349837516733
0.783082460642618
0.754093867716125
0.797231967501752
0.78843370277343
0.765589813843162
0.847086225152937
0.788026875066414
0.787290198867005
0.801780477152653
0.840100193818722
0.794681681539464
0.79731448060657
0.809198279416816
0.818315439711086
0.783047833435125
0.785736932469487
0.798781762123767
0.838749482276379
0.817197002913216
0.812714855438413
0.820922979917937
0.859112560167804
0.821168533679758
0.81999784131398
0.799651466614973
0.818014991742025
0.79831053108901
0.810026043078939
0.787540454514029
0.83047265796129
0.822253218678302
0.849507526561113
0.843586115533011
0.841083581966968
0.843188930592241
0.885581186008892
0.851753682393487
0.840996063627272
0.847328400062892
0.87061730320838
0.820334483936964
0.851546680441367
0.824176839349777
0.83194842546229
0.880822348778362
0.893217930427101
0.817514627064798
0.846762522879784
0.867973234166896
0.870055673805742
0.839933570884978
0.902447271272627
0.845638744154479
0.857936941306604
0.823994969326085
0.837267787997903
0.836558687257441
0.859394277327573
0.869411644374407
0.845440281964367
0.841680090228296
0.902708183707201
0.852215218868302
0.849982770972427
0.870269285462118
0.872412265880848
0.851422192841153
0.891408597464506
0.859577899428001
0.893682976880995
0.838878995187879
0.851855622017302
0.86379182905281
0.853514503490422
0.800147913471551
0.86056630024665
0.853848395045794
0.852461377464689
0.844178736665788
0.881389903571991
0.849875689429754
0.868747610246802
0.851948259116692
0.84370733404376
0.863445024047683
0.903838213996124
0.833705076165576
0.839831311564607
0.829765228588677
0.841694744762423
0.833545160899104
0.823571164885673
0.828136972842098
0.833347563419433
0.813360256116395
0.833885902704016
0.812493083461108
0.825386461159446
0.839887461179399
0.853580246770157
0.842376075432956
0.86996905406892
0.833193423843208
0.851840272793979
0.815609596479828
0.83618348241053
0.825473782638829
0.832485229617355
0.832149363884892
0.833846765769808
0.817646875838394
0.860621578433509
0.819518611481789
0.817910948280357
0.831367983300239
0.819150969042398
0.810104643812135
0.822395334822461
0.802359655595687
0.821959581178934
0.820965370285167
0.837438181252543
0.815224873055084
0.842885867717857
0.809890756420744
0.809178241288086
0.796883465290174
0.823495124186044
0.809280164801068
0.781861564874927
0.788411114465045
0.820222826755401
0.803923489203655
0.798253599103345
0.762851418156913
0.789279393260031
0.814197926871247
0.803619175257046
0.768477128362569
0.786812597342301
0.785701063352077
0.793920988173618
0.806076929011296
0.819915956548777
0.774805220559584
0.777932729478686
0.744065852137648
0.799449757498483
0.776715389328061
0.750891208898552
0.760014104114351
0.782218732912097
0.754148193681486
0.769017860333609
0.752082002804196
0.757753822166227
0.747960727372112
0.753920285209749
0.738032569995863
0.758830238580045
0.736021960724311
0.748495523407252
0.742810935428859
0.763626886704607
0.733659484765052
0.746523976657467
0.71902628878545
0.717103580386447
0.713739658793652
0.725853909502224
0.720041823051104
0.749926225406857
0.705731641606498
0.726073320492639
0.710661308598635
0.719771089238493
0.719276299914458
0.705012249855717
0.696740732134502
0.712095531933825
0.69009898860281
0.692671670576285
0.684843712676406
0.711174120408714
0.674096306563119
0.686781531148623
0.687904973682321
0.679790925151316
0.677072895784554
0.692172536764256
0.669452759281882
0.666593357283737
0.662382058215399
0.67036667508434
0.656994440634581
0.662820063706747
0.660495708001094
0.653394563224699
0.64309709337329
0.656256419951317
0.637181045540991
0.640650222000805
0.624791374157158
0.648785604791843
0.630142552982189
0.641962101723322
0.620484348352906
0.623878108969831
0.607653971882121
0.622063548467157
0.603308166133587
0.614568981854008
0.606205242747619
0.612928449146453
0.60174454795197
0.607253498995062
0.598505717359322
0.600786838169003
0.575959404650884
0.582716788782087
0.558072830584146
0.575774751660808
0.568971293253829
0.579151310528357
0.577536666447902
0.583038743284603
0.554495580509865
0.564079733804218
0.545256848409229
0.557977501265495
0.550374350133183
0.553932439641817
0.532192733796409
0.554662980785158
0.546433005055372
0.533818948892167
0.51854024745603
0.529208519796266
0.519849095108723
0.526204045002902
0.507519208608437
0.523700127734974
0.512165647315153
0.507136617417291
0.495160459781319
0.51295998574335
0.489452838331918
0.512478909177733
0.505417197544028
0.491195884726568
0.486544861935958
0.499319231771273
0.483641959447723
0.491826699030157
0.472723173974295
0.475732540345115
0.464551828345352
0.467186136440905
0.454741036687014
0.456080551592613
0.461277491760917
0.464893377006768
0.44126859541298
0.454903748616783
0.444547814396825
0.439580091497482
0.444883083367122
0.438903537759038
0.428844923076475
0.426894811470983
0.419124072102288
0.439498477302591
0.419383628012162
0.417586847785511
0.413582041123159
0.417594750849694
0.406082513436898
0.406625244556994
0.397006157655206
0.405517888191986
0.398834505135742
0.40380799479552
0.385108991141685
0.39534631134519
0.38273114126762
0.39143517987833
0.379014500545571
0.384501190053235
0.378174985622383
0.386683559856665
0.369011717922659
0.368408273322747
0.366006134988448
0.36582240883584
0.352481077947745
0.362189308260223
0.348891320350369
0.353697463791016
0.348330039152207
0.353094272213345
0.346986677504905
0.342479177136496
0.335921254627262
0.34650587678337
0.332671517572151
0.338158799973137
0.329324388567568
0.334209693710001
0.324340076358087
0.332807704938447
0.317225494734871
0.331260138208119
0.314420153685103
0.320517280085797
0.318785352806649
0.312832922624498
0.303247661546573
0.308639091838813
0.306306192551925
0.308965985997611
0.299627429248556
0.303920061599146
0.292504878240769
0.296144679789399
0.291241179628404
0.291725971185151
0.284636993258177
0.289737230055917
0.281712718986445
0.28425905884522
0.274984885729541
0.283024790185018
0.270474225270301
0.276306635422929
0.271867251023898
0.276257146965943
0.265686411456411
0.274960586802473
0.269034281522229
0.261370275866895
0.258851196134946
0.270197767325818
0.256031409678076
0.257347315551959
0.260616461964777
0.258124622602034
0.24581123682156
0.252041812839354
0.237187896123921
0.242650138238199
0.237116685824752
0.239435451523576
0.231957331925214
0.233242113768058
0.231399562305724
0.240585859022821
0.233398573028437
0.232794478662415
0.227933168190265
0.231800050903471
0.225051626466279
0.232679460811891
0.229656387833543
0.227605813235362
0.217088841842112
0.225650247331826
0.21938568308563
0.214551759123707
0.20879882442364
0.208618866064171
0.207767276542035
0.207108297194593
0.207071400546425
0.212923371949403
0.202691630973859
0.205796209345088
0.203543663327766
0.205606717902589
0.194746278969472
0.202702981461446
0.190497955077463
0.195837973583109
0.192911413494823
0.199193508346462
0.185301196666727
0.193338092933567
0.188326543578457
0.192252069825278
0.181994032687047
0.189601524576787
0.184685385684503
0.187134031915136
0.181651143054031
0.186185673554906
0.177488302488547
0.180007596063758
0.174824943573315
0.180632991642725
0.170867629851828
0.176804596735956
0.168341918399124
0.172392263242254
0.171880549864562
0.170936441934259
0.172846873831389
0.175619616034101
0.16456943738445
0.168454602830671
0.161916803226641
0.162657546701625
0.162726462581849
0.170078633088073
0.162346366524943
0.167150789026021
0.15988465801079
0.161284148679431
0.158387874954384
0.162514372528125
0.161089569051406
0.162287837767126
0.154667081639661
0.159377134613018
0.154866685465367
0.162206492834024
0.15523830414929
0.157259692521132
0.15223952544092
0.158123372449667
0.156895705384706
0.163712941026981
0.154913706514307
0.16120733304816
0.158405318369846
0.162235538806443
0.15760268155604
0.164757003591246
0.158175735736083
0.160737614420018
0.158193696935233
0.160964016823466
0.158548497005916
0.169331502642822
0.162912606898596
0.168509296762341
0.16673494782096
0.170164569578396
0.170577983579507
0.173498016174596
0.167596470963574
0.172995255399888
0.168150917638059
0.179146434413926
0.172179793635678
0.179293984311991
0.176392489443747
0.17557243432414
0.174410957013562
0.18128666270504
0.17629531722757
0.182632262988385
0.180847028668693
0.193897054662573
0.185405124693482
0.193632580592238
0.190563482756792
0.19391885931926
0.187550328746666
0.199857787773614
0.190568619660785
0.196004304767287
0.194355983224859
0.203418459111381
0.200265673439213
0.208943013298156
0.208677124485007
0.212353622513099
0.20727725412066
0.225997690734702
0.217292042525587
0.223146592692981
0.220359260154766
0.231046277949363
0.230829846663446
0.235206960793366
0.226335216787693
0.24210079751468
0.243480030089406
0.245429602981669
0.240500241431091
0.252022215950552
0.249768221175014
0.253942113907687
0.248702675628882
0.259313660314738
0.261345584283957
0.261624188165727
0.25853707664433
0.266675155016553
0.263542372002798
0.262544763373478
0.262559352269638
0.267087293508189
0.262885734774012
0.272973927080651
0.259770033542988
0.272086598625863
0.262917224391984
0.269739743119701
0.264446698280761
0.263343675214939
0.262291840164304
0.263983628775795
0.262300422154791
0.265111442940579
0.256655435963862
0.262802151399263
0.253698822838144
0.260487134235726
0.254106445534053
0.256559402341754
0.255814262943238
0.258281176328757
0.250050139649107
0.254535633753419
0.25113462934763
0.247804953765508
0.243888042956906
0.24744408416827
0.249260725329967
0.255659337100907
0.247905987723943
0.25364669764932
0.251957012286897
0.25162924388552
0.241032804689511
0.2498282173888
0.246108718119852
0.250439128599362
0.247306754181596
0.245483277732568
0.24738885493033
0.247674746142165
0.242113686424793
0.249269267376066
0.249469762860566
0.248350894090182
0.241494129522015
0.249896652693438
0.241381269419718
0.245952030198652
0.245172940705519
0.246949451393613
0.234602031910168
0.238991830066531
0.236929000531708
0.233439867883876
0.223985874310775
0.235782384437136
0.225486399396218
0.229071306856691
0.221679701918199
0.227614273599585
0.21909647525561
0.223052556421387
0.216042562722128
0.216410638164756
0.213044091574436
0.212525694583129
0.208981000226919
0.209424547524607
0.202177904651077
0.210909438926957
0.197929726670654
0.198705641942415
0.194581064180519
0.194163252698827
0.188146762559016
0.189302570445817
0.185806983224474
0.187551907749639
0.178067089643418
0.181818176468614
0.182715649881628
0.179018402556167
0.1756970469355
0.177510249363875
0.168632286295258
0.173248587443237
0.166970518442845
0.167541180588446
0.162351643697647
0.161373261450768
0.169262194499097
0.163674219725508
0.157040286666382
0.162061569784695
0.154639864228079
0.15588296178004
0.151848347726829
0.157521953568779
0.151949060512459
0.153071091955166
0.149611244850461
0.149561381538077
0.144680441181701
0.149798664521098
0.14469871045407
0.148193721651564
0.146781966934253
0.143561860993504
0.143565736620513
0.140682983086496
0.139823650862767
0.139121963216451
0.133796188707111
0.138661418389956
0.135951051147091
0.134209189897233
0.132855008762771
0.135758995424957
0.129468347055913
0.128545175390614
0.126392316533243
0.130585909117782
0.126633312243239
0.132610217921589
0.129347247024479
0.130373081294939
0.122152596625352
0.124468356354124
0.125416596346812
0.125085328691084
0.119949240115773
0.126425985144246
0.12225166141976
0.124282369145331
0.119366097359169
0.12521500255902
0.115352919707543
0.120189973433494
0.117723985078134
0.114200208974038
0.112036556516384
0.119467385270499
0.113126234661748
0.114643219328916
0.113071551195805
0.116480059165862
0.110028021221817
0.119926647147775
0.113962995542578
0.112064401573212
0.108450286313712
0.11099697078726
0.109420332807048
0.109462602483156
0.107128620903536
0.106297657460846
0.107593570375173
0.110708493582163
0.105162202088464
0.111456052201411
0.108890173451135
0.111430627745305
0.102968338219189
0.106306495786217
0.105314646574012
0.106215181366863
0.101230966317871
0.104024172323712
0.101293378340456
0.107064676204664
0.105298541823523
0.106883638760985
0.102694050916625
0.102779348001727
0.0994533626610607
0.10379592670771
0.102336989271634
0.104410543426501
0.0984013883194324
0.105224675944001
0.102039122864517
0.103725122240059
0.0937871298473849
0.102858466069695
0.0973275338790182
0.0992362768408616
0.0954182326355099
0.101401035394761
0.0948630915589634
0.101548412600646
0.0968030200729248
0.0988099987794555
0.0958905671567752
0.0973900084516579
0.0961018010616848
0.0996427216031249
0.0904460014522636
0.0985224944383843
0.0938101416652352
0.0953068833637248
0.0933413255026916
0.0989461422225092
0.0924056680246736
0.0951539733347429
0.0950966796869413
0.0959579726958585
0.0932860431167365
0.0937989890864848
0.089377992729413
0.0947170121204509
0.0896432892237038
0.0924194785308893
0.0923289561412681
0.0921362907796254
0.0905332452363589
0.0964588716786249
0.0886637109032
0.0923381530631115
0.0917277434276751
0.0905776890631984
0.0897285939989609
0.0938700079540996
0.089104849118876
0.0897135170126465
0.090687179556436
0.0972826145229461
0.0895675736706167
0.0920095981504736
0.087425881019222
0.0922676895473792
0.0893605792082632
0.0916086210963345
0.0901937723989443
0.0887306876531221
0.0872762202121673
0.0875154464672002
0.0837127539637172
0.0883855969040829
0.0858803187730926
0.0900211777597582
0.0827969203342385
0.0910313246232359
0.0849730565688368
0.0878713380215946
0.0832511704203667
0.0862992757395871
0.0834030866459382
0.0863771062229888
0.0794115886275504
0.0837888453185892
0.0803521890833664
0.084414569631482
0.080998023384698
0.0847862624447955
0.0793808612430222
0.0800664893120602
0.0823861277216468
0.0811434480576018
0.0768833566221009
0.0820098031638393
0.0767091058666017
0.0808926471241155
0.0773346639254361
0.0816387657165495
0.0778448122576002
0.079735069964329
0.0734536952169894
0.0771703619043514
0.0766706869845989
0.0780320636157732
0.0721249626545673
0.0760568128448781
0.0739839727901657
0.0771291769046802
0.0746505203568818
0.0763866909959154
0.0710474925402634
0.0746672159156394
0.0718242820246663
0.0761284233956837
0.0750223508303681
0.0767206470580549
0.0693157455784342
0.0730642496315672
0.0705045106435298
0.0743161889202749
0.0698619769424531
0.0777496607249704
0.0749750523400952
0.0756963764261625
0.0683400885676051
0.0716900661669128
0.0693046452413807
0.0720252802935824
0.0697489439968943
0.071881137636341
0.0663893293110661
0.066551845436314
0.0659006400981763
0.0694994791586125
0.0703425405674473
0.0720265576197817
0.0635930237039736
0.0671915084003365
0.0622497963243159
0.0677369270912931
0.0632242553111547
0.0651627172922381
0.062099155732243
0.0669902280542012
0.0608535362261153
0.0633044687915706
0.0588768778359689
0.0599949717561782
0.0600213959889278
0.0627434980364245
0.0580496453665879
0.0629723717525813
0.0585347469452222
0.06082883043572
0.0597665386822897
0.0575808763280354
0.0604631837794715
0.0602123049709409
0.0555329265833173
0.0590193397901271
0.0565908446148108
0.0572864653539654
0.054653715149466
0.059094839771564
0.0589289821395554
0.0567714108732187
0.0536721095613817
0.0580969764713571
0.0526379829984225
0.0553271626262663
0.0551428136340723
0.0566022786138207
0.0513765906430262
0.0587264575595633
0.0571445920335806
0.0557390056757078
0.0529772246711205
0.0562493179542125
0.0543236549061399
0.0547989575284253
0.0529139654559379
0.0530718467899706
0.0516478997068076
0.0536485970028138
0.0506858934520449
0.0500122800012785
0.0480911897609031
0.055170873564675
0.053555018409147
0.0509829883649266
0.0483863387336386
0.0530441899647148
0.0507802699495122
0.0536732627612933
0.051667931474836
0.0524023124942646
0.0517131892339645
0.0522171899066441
0.0513423879162086
0.0506809283048096
0.045100948019868
0.048669496438465
0.0486625313735857
0.0492872959753607
0.0474489259443846
0.0506780741928256
0.0487237498645827
0.0505317183787374
0.045594998054674
0.0472568237675747
0.0449822134189016
0.0478267681386043
0.0458416404222136
0.0487902863668202
0.043354918077819
0.0468606685507572
0.0439809978398226
0.0464549572712699
0.043892012267186
0.0495486976106598
0.044044367083723
0.0452841020242378
0.0438205901097746
0.0456017469022975
0.0468200320323475
0.0476555263960048
0.0459311741267757
0.0449346265718084
0.0428291904031504
0.0440372772041476
0.0462777000460382
0.0486927702826363
0.044642628130833
0.0498129426651349
0.0433147750468318
0.0440255884631382
0.0454162578870458
0.0457219947672421
0.0427432640403533
0.0461301178400998
0.0431168038719824
0.0464254441611884
0.0419427230500345
0.0465038971150181
0.0431666080302885
0.0460361296041585
0.0432885341850276
0.0466035885282807
0.0446693249071763
0.0454075470945038
0.044718297373044
0.0458807875899389
0.0438195419840226
0.0461521160054202
0.0410758009309554
0.0444216403749797
0.043323232629275
0.0429582723582896
0.0424170609698246
0.0437301394925202
0.0389078764899932
0.0435330113553154
0.0392608130089948
0.0416192293872553
0.0421099078449986
0.0417247752881748
0.0358992303618561
0.0408109794330001
0.0426200571412836
0.0424464858726153
0.0394241924579925
0.0405878816467716
0.0402635742800773
0.0405210593466617
0.0372851946698905
0.0408265569450075
0.037989118711856
0.042238087145668
0.0397116447276053
0.0386271783411021
0.0367883218863972
0.042801339883364
0.0371007933992482
0.0384559147252821
0.0383624439467706
0.0392230947871973
0.0378348062300588
0.0393788317672339
0.0375514398368576
0.0391596335608548
0.0383834926495487
0.0408117366343983
0.0375633302356671
0.0394130904706577
0.0364101516337336
0.0385979126596879
0.0379075134199176
0.0397609819333201
0.0394963083972505
0.0408035754464885
0.0378275879758355
0.0395582408266078
0.0385423215828692
0.0402208873839362
0.0396151110532285
0.0392579953018335
0.0360809430692007
0.0388477628693388
0.0378982163148295
0.0387096750128879
0.0358732859470174
0.0376258092463078
0.036761861313728
0.038942677980086
0.0390954758395074
0.0394150890746451
0.0377684893597842
0.0371535205307592
0.0352853356313637
0.0391772787883257
0.0364586683288605
0.0360223494476288
0.0357467296263526
0.0357146736638098
0.0321639318068433
0.0361846050670426
0.0360094313512235
0.0370628155414412
0.0341424746973465
0.0339996112027116
0.0339873131767795
0.0312906004223711
0.0319432562497136
0.0357652144294231
0.0340437189935397
0.032935610581576
0.0331536770770766
0.0372133637113878
0.0313100414806008
0.0342741189781212
0.031330115490356
0.0319051671056369
0.031470539626746
0.0331194507328025
0.03334147115825
0.0339978368260464
0.0297314652397683
0.0328091240862758
0.0293669617647396
0.0338938187908047
0.0325577103092292
0.031750789362472
0.0304123388803241
0.0336536576191512
0.0311082310988521
0.0320486486483241
0.0320339037910914
0.0319341856685895
0.029936440762563
0.0315482409529825
0.0280656005665747
0.0304277393286759
0.0303187689928566
0.0332290127162907
0.0306353983190918
0.0319470997693037
0.0288442216154298
0.0306485022637644
0.0310155981381783
0.0304305128490563
0.0306456649203131
0.0315328653049877
0.0277977218958238
0.0293104686680817
0.0278638059445599
0.0296658922641277
0.0262806796791267
0.0313826224455413
0.0285100305345032
0.0295459540418309
0.0262466725187524
0.0299917289426505
0.0260473034758724
0.0251425096202809
0.0240444669474981
0.0286107201301306
0.0269748941170126
0.0272390537615046
0.0259672751469346
0.027135100448316
0.0246153087520632
0.0277402283940549
0.0256869259571394
0.025924825610202
0.0257306561028869
0.0275103534133416
0.0265711756937524
0.0264380386180398
0.0251980925222544
0.025996465853742
0.023613495801961
0.0270102371777813
0.02596161858423
0.0271230973770942
0.0225906239422338
0.0253588811066062
0.0243701404789835
0.028681988061801
0.0258594778581436
0.0271236188170964
0.0238105592765714
0.0241780757972895
0.0240874964549518
0.0251634511382974
0.0238701380632731
0.0247900170952133
0.0223834090011761
0.0251260631119766
0.0236775279758283
0.0238912447269227
0.0242237969697367
0.0256987495173767
0.0228513377511823
0.0223059509747584
0.0215882645645076
0.021673179539985
0.0215665940614892
0.02558953815617
0.0206587657117414
0.0188574768987139
0.0140418086855082
0.0143026394139708
0.0125063013347502
0.0214037275857731
0.0275342382338855
0.0244124677402354
0.0159219170894775
0.014562490162588
0.0154387375060589
0.0244270601562302
0.0115047460109943
0.0154377224218215
0.0229684772766784
0.0150476034060217
0.0164918319292163
0.0209416686215124
0.0187358386109985
0.0205085356053833
0.0162709520586232
0.0194990098446938
0.0165949797735791
0.0232531047716905
0.0243185166285707
0.0249773775628411
0.0232536056482499
0.020469355331081
0.0190232695784953
0.016960887595354
0.0205520336314051
0.0174213145937926
0.0214149791981201
0.018300409854631
0.0210696744108345
0.0187792478665994
0.0189378556542449
0.0147920878534918
0.0224900554528744
0.0134288091962675
0.0164711604111543
0.0117146982639336
0.019805888625828
0.0158245472396021
0.0305634671406977
0.0163601370354253
0.0224688067153803
0.00618582121228304
0.0216402334860268
0.016140119419889
0.0365986345864812
0.0103428761261046
0.0199755152099628
0.0127756419755627
0.0380045679367263
0.0151617679909865
0.0206302910231269
0.015169959056801
0.0327587035649594
0.0210978886171355
0.0141601952490656
0.0245499171580304
0.0215038042590704
0.02484592331157
0.0162083225720313
0.0312221459308359
0.0140141054926699
0.0298192706833886
0.0179285945216492
0.0247888276675326
0.0206014513620868
0.0239035082036438
0.0202503393815203
0.0203023047477392
0.020671685132635
0.0204134582858746
0.0211231450688819
0.0225357794840274
0.0189190293828713
0.0217649764137977
0.0178122570382383
0.0231232021552569
0.018573423891927
0.0205414426375755
0.0191010919111482
0.0219477845322331
0.0197420323493738
0.022017510533637
0.0179894426724757
0.0209927271013601
0.0178353422920139
0.0204352158286487
0.0176925513665836
0.0216186029961686
0.0171751966572843
0.0216809649502653
0.0208541369475629
0.0203675395135991
0.0168016149559395
0.021027124436363
0.0198622530346342
0.0224065215088908
0.0210335218913607
0.022293805815847
0.018339075730892
0.0196281233921881
0.0177462692228007
0.0210864776535442
0.0192707347901905
0.020967978448291
0.0212820056239749
0.0214039993936379
0.0191328359004025
0.02040639106788
0.0188012072253058
0.0209312125765179
0.0188609875148672
0.0210966064669408
0.02018675601073
0.0222449410390186
0.0211081176138106
0.0215014410558948
0.018104518522862
0.020150371537501
0.019547958349434
0.0230707982796337
0.0198363999416232
0.0235714794383604
0.021961127816099
0.0238372429563808
0.0194543872765577
0.0225505407271942
0.0193776372205022
0.0194507867271594
0.019403068660863
0.0223118830959775
0.0191025195613541
0.0228243438090679
0.01964792583101
0.0199799009275189
0.01760110305604
0.0190368660936996
0.0184457018765173
0.0212926085926549
0.0207240611869597
0.0232637815826791
0.0168509408636775
0.0216559693363563
0.0203283787133029
0.0237469310847917
0.0202000472855606
0.0190923128847587
0.0190321548142291
0.0222075994502765
0.0187418051335816
0.0224852194291415
0.0191924809893242
0.0189409864549795
0.0200515322058689
0.0220250979739851
0.0178222222198578
0.0209625913230214
0.0199407696591339
0.0231217706664665
0.0193530050719525
0.0217267239009547
0.0190969921745441
0.0208909014002141
0.0180228338821702
0.0240318502792304
0.0197082937594104
0.0209593948360567
0.0210602531331174
0.0224114429789634
0.0204996706257591
0.0229665432397161
0.0216466131349386
0.0226390939705095
0.0204723282920919
0.0219726278419924
0.0210884408800736
0.0249074921721578
0.0221232327304264
0.0234234126305229
0.020020739356343
0.0227326955129934
0.0211086908432983
0.0229458313742642
0.0203237498692503
0.0232742113473911
0.020300460883566
0.0222381492450434
0.0197382446347888
0.0231910837675402
0.019005979917179
0.0233769011348206
0.0222589246707419
0.0242360173324832
0.0218660184053343
0.0232783354260345
0.021065338638764
0.0222274203759128
0.0204925198900113
0.0227093121460556
0.0212125722816356
0.0222442362888549
0.0196773309781236
0.0234409371239466
0.022909405116456
0.0223324855403307
0.0207462662389588
0.0253339356584322
0.0226989667505636
0.023039003562979
0.0215637589609862
0.0229044131786543
0.0222738928713515
0.0240433449792158
0.0209090184394727
0.0207489432152885
0.0210904196026642
0.0242605465013902
0.0219857371295994
0.0228914874347745
0.0219913680618638
0.0246796025685718
0.0221847710340279
0.0231392363891543
0.0238176749236869
0.0233138520561058
0.0213659869381881
0.0237846782482585
0.0247549475448764
0.0234284539811085
0.0218420267139402
0.0242319473095871
0.0219955537156009
0.0258288904920417
0.0226647190486223
0.0237001407588789
0.021288248141587
0.0255209218113816
0.0253273538850358
0.0247816190505216
0.0210059660296327
0.0238211434696487
0.0235502731391931
0.0238894545793606
0.0228451142415029
0.0248288265646088
0.0222251854145321
0.0226949278123885
0.0230172181177927
0.0251474623843541
0.0216954129940402
0.0239451170379804
0.0239788614665764
0.0229888248023365
0.0214279892198347
0.0245033101818409
0.0227746031209779
0.0218420929212554
0.0224955101201087
0.0230518141466009
0.0209220904732756
0.023271297668988
0.020469624199318
0.023714561986884
0.0214332862377991
0.0246653349205516
0.0214159972269326
0.0225837864615317
0.0215084543272007
0.0223985240928767
0.0217168765710028
0.0225495465681378
0.0222366978019027
0.0214463488223128
0.020009332681941
0.0241762476325679
0.0224363290760794
0.0222651864129806
0.0194927353059917
0.0238560440234668
0.0205883008310336
0.022239191167942
0.0218666143051012
0.0215568295934753
0.020266006064178
0.0257676735120231
0.0220926031900444
0.0205743014604112
0.0202010862633514
0.0220377948451304
0.0201061558277467
0.0216671159589454
0.0210918516593834
0.0216104967515235
0.0221257309200703
0.0209401096399095
0.0217601362048037
0.0247576319932096
0.0227471040747823
0.0206116336601391
0.0234039741992245
0.023425719706722
0.0214135267213076
0.0226852793921723
0.0212390324194473
0.0210641007494912
0.0195349639354557
0.0216194558293424
0.0215395974574166
0.0200538831501728
0.020256296113498
0.0219207031167034
0.0205307102572181
0.0227735879984719
0.0205214475420554
0.0220587228354524
0.0211838712637388
0.0183876919293162
0.020186419563255
0.02316644644589
0.0188747033000517
0.0214344243629939
0.0211054056671502
0.0204612097437349
0.0164240871894871
0.022895277150614
0.0209910950917808
0.0213694755505575
0.0204691566666848
0.0235760412099556
0.0212980283858338
0.0225792930940516
0.0211544569106685
0.0193983145195972
0.0180936470284836
0.0225378586916866
0.020831642458272
0.0216246631513988
0.021429444712221
0.022176862199792
0.0204984955053664
0.0220184669610284
0.0185664399929381
0.0210332259069102
0.0190896702518394
0.01964039781886
0.0196108970770059
0.0208362431565116
0.0199578911411067
0.0213970550681901
0.0220258852304881
0.0204980019251823
0.0194901388944253
0.0210687089458184
0.0184820132135547
0.0214696939462851
0.0188425281701126
0.0201093986130241
0.0204312396936239
0.0217417461095014
0.0197035001807305
0.0198187751113496
0.0185518798742057
0.0205128671225563
0.0200143604124324
0.0196291853433196
0.0180144725226204
0.0211578899493017
0.0192481504331119
0.0217415709299763
0.0181778197459893
0.0191744985208527
0.016091723265891
0.0194680749489849
0.0199450807016639
0.0193970662514116
0.0191334251043566
0.0205991413992563
0.0171920558756661
0.0216711581544563
0.0177504449944687
0.018855586692407
0.0178331559907201
0.0198470157888296
0.0194751480059835
0.0186670364948858
0.0158267493274231
0.0184046903722836
0.0156846694456673
0.0191087388790648
0.0155076443181736
0.0191205789206516
0.0151229926732213
0.0171050971829643
0.0152412629366953
0.0170897799757105
0.0146476962899336
0.0164777448183742
0.0157584176561854
0.0187382462187057
0.0153066246356549
0.0190792541451581
0.0156544457882821
0.0191784465737604
0.0124474546511381
0.021410439553345
0.0219450079870461
0.0172718946015924
0.0168149674242728
0.0205519881633344
0.0175875736362144
0.0174233697510501
0.0178090520992836
0.0169342611548022
0.0146453832768435
0.0173006604525926
0.0180897053663012
0.015683227916504
0.0142036746333333
0.0187712970120179
0.0171771170840548
0.0166072084279123
0.0172121497847699
0.0178066573961516
0.0152875361113903
0.0170561447563651
0.0166188153472392
0.0162754654977792
0.0161976801690385
0.0165009978899112
0.0156341962565877
0.01449152936007
0.0182930304834882
0.020080980290063
0.0185768748920885
0.0151063396678168
0.0151655854846057
0.0172705666924695
0.0176961800533408
0.017208592705523
0.0142541807069527
0.0154253682454956
0.0173555775778252
0.0166942824466559
0.0152110059003194
0.0153383425503685
0.0162524739671418
0.0183435421442274
0.0152452147324488
0.0156824550067418
0.0162340466234387
0.0133757129999988
0.0142433280430182
0.0150011770421407
0.015585435355295
0.0155663061095509
0.0175878094348682
0.0123356104960531
0.0150927101302872
0.0229943263228136
0.0186006248494718
0.0172836898349992
0.014324854355474
0.0166097817803458
0.0153694947358448
0.016737441596593
0.0140701151576206
0.0171072439111169
0.0140332410454891
0.0150391067782088
0.0139075859682917
0.0172075641204197
0.0148496094463772
0.0154971868381262
0.0160059229484628
0.0149701519242044
0.0130378546266417
0.0179753845180132
0.0134853758854939
0.0158996398266053
0.0219336365228951
0.0189589091694935
0.0194385096706565
0.0154158661513699
0.00742468811582578
0.0329711324411412
0.0166765462586163
0.0202597145759987
0.0134543501539658
0.0187934728791194
0.011989731380642
0.0190744681646808
0.0110462917137719
0.0157486558020783
0.0149521118255869
0.0180334006354512
0.0173053042774012
0.0161515463595529
0.0151798973634472
0.0170114534441688
0.0140741947945621
0.013418732648376
0.0154325101896308
0.016951641044843
0.013894055803619
0.0166843204412692
0.0118657763098286
0.0183671696916732
0.0120723338654373
0.0194464483364707
0.0157616885235359
0.0195334090017649
0.0133452284782278
0.0188760888861196
0.0110285099183255
0.018027771949732
0.0213450641053079
0.0173983961795144
0.0151221563603463
0.0163178508497686
0.0159857697629762
0.0151776461717715
0.0157758509870164
0.0150479305411078
0.0153728645161049
0.0152333148205803
0.0179538938136251
0.0156237254105544
0.0134378221348922
0.0152252960382802
0.0153946403501237
0.0133410129918624
0.0133980954925938
0.0160730087966968
0.0125857935975383
0.0163491785802936
0.0104821179083788
0.0270955109280302
0.0177641616732627
0.0242162669339119
0.0173533768262947
0.0202676934021914
0.01372462536733
0.0166728032235231
0.0161482531428108
0.0149381031722359
0.0148669081262069
0.018512972867621
0.0140671539775717
0.01859625373151
0.0151159560155513
0.0150124088884066
0.0152083730414233
0.0153434075126075
0.0153349695424031
0.0157982886220879
0.0142199708674656
0.0149793677792881
0.0162689275442165
0.0124023243073014
0.0186605460447937
0.0179753728489338
0.0197963242188796
-0.00187887795825509
0.0344166932557934
0.0235440933092001
0.0222368000510771
0.0171771738111919
0.0161308081962919
0.0153838969445356
0.012463275386365
0.0147828675539138
0.0185999012502398
0.0149617591002456
0.015580916378477
0.0154902581030759
0.0150345108985258
0.0172629857095733
0.0107202735402417
0.0224021977837839
0.0358469434755073
0.0227898673957725
0.0220115730799889
0.0071819683536355
0.0203789903843775
0.0348451286531533
0.0163943790559161
0.018991104366591
0.0164787871959331
0.0179248215686542
0.0129869767845962
0.0163411695097051
0.0134121772181571
0.023376065784228
0.0143690142231459
0.0175637469089624
0.0163409431119561
0.0154962978344122
0.0164794014584283
0.0155514034920027
0.0188790554567396
0.0231248892464272
0.0152883279261172
0.0212013094195907
0.0181380221688672
0.0183138907801122
0.0153564864330476
0.021966772243579
0.0120670483001765
0.0207006153984284
0.0200861500392294
0.0172702938686288
0.0212375573742299
0.0255177692543861
0.0145015619887091
0.0194697528336117
0.0146386830655025
0.0324542967131866
0.00288279909567245
0.0269732590704827
0.0240490556550882
0.0331518532708141
0.0292140860114091
0.0199577024012658
0.0194614296808339
0.0180488537799062
0.0169298353508225
0.00851774223925402
0.0324137632066327
0.0138690341226686
0.0265009685894484
0.00731094671572891
0.0253592915849849
0.0197520369635182
0.0241774635159662
0.0152553135388751
0.0221043518615573
0.0111764437241137
0.0349113990413981
0.0188859100282515
0.0133451382001745
0.0280064082949463
0.0238377246878918
0.0460802514047212
0.0205278866726041
0.0174298046090456
0.0298232899668229
0.022314016892348
0.0261621725044506
0.0162713555242289
0.02513972326675
0.0102952326624793
0.0234938653896958
0.0419894995841225
0.0209014379703183
0.0246589609675251
0.0205720126868587
0.0194056955647308
0.038041767718742
0.0259142520930045
0.0247281777244785
0.0204994321133077
0.0259274562915938
0.00326666469195012
0.0585119944154303
0.0187950216888723
0.036864482387397
0.0272363870624888
0.0381661895143396
0.0296433187624331
0.0312818329497151
0.017953388210687
0.0305622046542799
0.0307517432676889
0.0312157404876988
0.0104881316892869
0.0376964652823076
0.0345856319450836
0.0284501311867104
0.0319726915383565
0.0221085914077028
0.0138966950917904
0.0331278320579795
0.056630122942536
0.0526703302056901
0.0345164226034732
0.031256575691037
0.0429547913934571
0.0322711349492764
0.0339451162165227
0.0309094733310286
0.0330348003977343
0.0298238165390029
0.0274391087420702
0.0395318077528866
0.0311477024802433
0.0416361086004038
0.0285945689564195
0.0336401645868577
0.0314669063828526
0.0680660944578603
0.0585466984131388
0.0354427815465863
0.0480208019074999
0.0393698934532893
0.0530246813760708
0.0378483236929956
0.0402547143779528
0.0384643388977434
0.0462601810993809
0.0422684065684475
0.0333584722024422
0.0569143158289042
0.0369830102694668
0.0634193245157956
0.0529638335348627
0.0521800346423103
0.0348595834224089
0.0216472493723398
0.154313558556439
0.0583961330183924
0.0776412868769207
0.0292381103170816
0.0678468598045427
0.07464003099717
0.0755063440958858
0.0520954755770652
0.0614350351346848
0.0491989117141745
0.0595328042144065
0.0541170522705014
0.0659947566294302
0.0664813756400144
0.0669958057288398
0.0431950853306703
0.0705654041679067
0.0797366917022633
0.119958799901088
0.0815333505149823
0.0806723141733541
0.0797046886969611
0.0906357503562048
0.072777161384907
0.0917481771677959
0.0592349170271577
0.0936300104166502
0.099670333256356
0.104254515637871
0.0810025206550506
0.090192195058621
0.101181397711503
0.0796020672319191
0.130592984356922
0.107822834038049
0.11772843203837
0.0967095308594452
0.112593005845813
0.0989668389749528
0.100355174396524
0.11947769553268
0.116290021053273
0.120944370874558
0.111489186117346
0.120457000813909
0.111475843368187
0.123456336044387
0.114914802257508
0.112726906249562
0.108771234665569
0.101147344057619
0.256883537561193
0.140004174409748
0.144295617236633
0.118241869753699
0.124806949574389
0.132871864850612
0.114808891795727
0.1686306610424
0.140245133825449
0.133220304977349
0.124941861549386
0.129897895100589
0.125725615858251
0.128680163676404
0.126454787179399
0.115977828188319
0.146042472089025
0.100563955956981
0.163426227240295
0.156231907499346
0.146597632146706
0.121520679256739
0.130282050845741
0.114431616452861
0.136195614926103
0.115294721807551
0.127698158533314
0.128617168324566
0.12433600160654
0.121828021053803
0.107447045873263
0.133027277425408
0.12249650130904
0.125222300232213
0.118776472193052
0.114960682633542
0.127355438152724
0.09212442130193
0.115751077847642
0.141510714403029
0.123629639876686
0.115138978357289
0.108358581850818
0.11218058326319
0.110755691156199
0.10656285505211
0.112072823435112
0.106279097681427
0.107342097383298
0.111678799207626
0.108480029588769
0.110432445879578
0.103960548654709
0.109961017477896
0.0995587088246826
0.109966877794736
0.10398876257228
0.109013306785113
0.100036837367433
0.104845724610557
0.101115942143538
0.10202759609752
0.106058013942707
0.108625515698121
0.0984498021532466
0.102428584830924
0.0985275292413762
0.104703636126022
0.0986266509827117
0.102729418643552
0.0972258199097319
0.099842030456864
0.0953158014446139
0.10002892703637
0.0936136627999278
0.0988803236485338
0.0916358605524899
0.099137689819109
0.0909820715587874
0.0972848745727863
0.0899553981041378
0.067938917656702
0.128789191560589
0.102367691469803
0.105370795266956
0.0832090139425415
0.0951165572588154
0.0828611536542174
0.0746820720799442
0.102962548598947
0.097250183199823
0.0922797597096618
0.0838206909606208
0.0760434977318997
0.0888300258677156
0.0821587827565178
0.0802456208286477
0.084133869382906
0.0545225934404692
0.112317290839015
0.0521632749954284
0.14324737274167
0.105504895943157
0.109199092912349
0.0590607430154944
0.0955739057373887
0.0874472527487692
0.0813931710278322
0.0718892145859237
0.0601435588540563
0.0855916981111085
0.0717082751241983
0.0731918668084164
0.0678703777174293
0.0554173195685017
0.0738757523186725
0.0869363792664753
0.0655101170704717
0.0829416110539644
0.0737935155041332
0.0634683126283601
0.076171655399077
0.11158716981274
0.0887542262201094
0.0664085420682688
0.0739725909846678
0.0532165609088009
0.0679561480044644
0.0783175735232013
0.0707008124433397
0.0771468242739891
0.0572726338533954
0.0666160581604874
0.0558494899979778
0.0803099992864147
0.0498594105904686
0.0697074146606694
0.0777511868359396
0.0594823613943263
0.0690362620182728
0.0492915454307963
0.094286557196233
0.080768049170833
0.082824927027196
0.0452503333452908
0.0843249006841933
0.0722621123322231
0.0745857234404646
0.0736078025456433
0.058293350422046
0.0629480975074838
0.0739275659422166
0.0586064650268006
0.0756377597136302
0.0589852276042928
0.0810166858208
0.0739686191378527
0.101818552214322
0.0981001424766204
0.0765295563749732
0.0657030350387344
0.0668579806402899
0.0667831527849534
0.073398089560204
0.0475112604056638
0.0995421080971099
0.0617331008622218
0.0789021451749938
0.0797009569754448
0.0839944997322769
0.0744861329131099
0.0762986336273653
0.0686961107763935
0.0778131682619299
0.0851613515472052
0.113461229863154
0.0751517348997034
0.0964691285193627
0.0851444978668727
0.101558100752504
0.085721765828592
0.0989452361605453
0.0896953864881312
0.098359234524138
0.102877344131047
0.10797917528175
0.100339535958143
0.114457296046454
0.0917769877313981
0.138515552496787
0.122924505142728
0.121937147208193
0.131350080314772
0.128696271405957
0.161202473780067
0.140322550867662
0.144053249046597
0.136725023542107
0.144047408248882
0.152523532455422
0.134187659577701
0.156865202337357
0.164643268704772
0.168493611332326
0.159655517319691
0.161123085632998
0.165357761969543
0.154343447646824
0.183059206194814
0.154782216819669
0.223138051800454
0.184712388933547
0.203328028792844
0.176937596051895
0.181438590318885
0.180673073566802
0.181774776170135
0.188965277463582
0.173748397562133
0.187609625960862
0.199189499648375
0.183855981001522
0.190944200427292
0.182084427684985
0.187497746170665
0.186808030764184
0.185689861409164
0.191709299496693
0.187329971856943
0.201813278239231
0.182021379307995
0.19038415103488
0.242221247774553
0.210226845954612
0.209272663846693
0.200282390651561
0.218659245631315
0.201672249734825
0.202477192923203
0.220657795284176
0.219367147536072
0.215458752485596
0.213762446299689
0.220084562159712
0.211478880338978
0.223536140483834
0.234131235456016
0.220803789551104
0.235142045491592
0.193876960135338
0.259515550122479
0.22436086346499
0.252182231634121
0.232098912935919
0.233994862838219
0.221216852976369
0.231310512381919
0.225871926197874
0.228697059930401
0.2288248375941
0.228780292300458
0.226904476636527
0.221147014563727
0.228701929859788
0.218434183259772
0.221230743416281
0.230892253152236
0.220407247073418
0.221178740171601
0.217990430327881
0.224981808777389
0.208066029528064
0.227465941971561
0.218522906682974
0.228533172241459
0.207626727827135
0.216115964252687
0.22758712770061
0.226282399747859
0.213395022931017
0.213373276775936
0.202820963536829
0.221266856341701
0.202702670757125
0.218729770508053
0.219120854252199
0.227923589646762
0.216601880461618
0.223257873855631
0.221240870845235
0.225033862249859
0.221128847904811
0.22764999774622
0.225071780819125
0.232612913249398
0.236213088927128
0.227291102172665
0.23280137416733
0.230736037949548
0.246198738439552
0.246048444384268
0.2347439411494
0.242100682771776
0.230294055094585
0.237493181270046
0.237064607279787
0.242747775187105
0.225169847638808
0.239462141963894
0.221012662911192
0.237209859500236
0.24278628383651
0.225467312533473
0.238029269270763
0.220074794208516
0.222705327384937
0.21790684942188
0.223581865371276
0.217041300740314
0.218717135691971
0.217327795739004
0.215577497844482
0.213237122282757
0.217174503198349
0.210511773237203
0.210175018319844
0.210771482742114
0.209003188377835
0.208691775583044
0.207302757097905
0.209072656797095
0.204726599087975
0.206363931476774
0.208395884174479
0.201824676648953
0.212433441077852
0.207705799614536
0.213075801448361
0.203536093211188
0.217032198842781
0.204324035431725
0.208635210025912
0.205295368180327
0.20664984416634
0.198990949607253
0.204684961840876
0.2005742386181
0.204277718544217
0.200014501429402
0.201310435871679
0.200112805639843
0.197880441225555
0.195043608521939
0.195192007730404
0.195528735338261
0.194335294724944
0.195620958870603
0.190286615976962
0.196988384273971
0.192507647115979
0.195866940388323
0.189339934458311
0.191825789757032
0.190891897556859
0.190890324706659
0.194468506226742
0.189749427904987
0.187141196631612
0.18638461577217
0.186484144761973
0.18526907642978
0.186118790545272
0.186599846196045
0.186102600150463
0.183300729473868
0.183132224143837
0.179482070678021
0.181070096197578
0.180780802629468
0.176506614586645
0.175897468526814
0.173858063705604
0.173608425829648
0.1710782309248
0.166508360628484
0.169847188621996
0.166602692183567
0.162489152848784
0.159298520391125
0.161426467026055
0.159926983684322
0.159081751592392
0.159445514385891
0.156746996192095
0.159020189674015
0.157629717533774
0.156236606376563
0.153840095826345
0.153564355688892
0.15388921553536
0.155315433124773
0.155024658640436
0.156829822383496
0.156291046346002
0.15589949437151
0.155799837872106
0.157395702683711
0.155988356101521
0.158658566897417
0.161369923381947
0.162900251101791
0.161093044346168
0.163059547123576
0.165706620186153
0.162469693164075
0.165996941021913
0.164893509771793
0.16808512682364
0.165665374990677
0.166355516443458
0.167825499395332
0.170904767082098
0.170173565970553
0.168658012373427
0.165801320105393
0.166893347826234
0.168531563920663
0.169082236090295
0.167493281520899
0.166598400019933
0.16854952734124
0.170651959141746
0.169257608286342
0.166409667224614
0.167753442243262
0.167721964401167
0.168357477347095
0.16515518713569
0.163410478770502
0.166688818156273
0.165960843709756
0.164145625355676
0.163514130020114
0.16262443698567
0.162381959801131
0.16382124045907
0.162730268847431
0.162293583917841
0.161724978904245
0.1624005665327
0.159608121850833
0.158992633185397
0.156443284222231
0.155789365172162
0.156281872534346
0.156073111841003
0.155116848683789
0.153495651760654
0.152282291656792
0.153486325446444
0.150224054865273
0.148501594925456
0.149171463807079
0.14778699515444
0.146907995818596
0.147522169574137
0.147117572482821
0.14718598052229
0.145317694230823
0.143143135534437
0.142588939236265
0.141749320527976
0.142605901554649
0.142316270585599
0.141838042710505
0.140554128997896
0.141807510389696
0.141356381038557
0.141183490504123
0.140486300754211
0.139820776680373
0.141756419734579
0.14110245295101
0.142032005363974
0.141683440126871
0.141681683945898
0.14000198242353
0.143091207416297
0.140519907616384
0.138896879636329
0.138493189163105
0.136629448553176
0.134215269677896
0.130770321577938
0.131036792221168
0.129189988625437
0.125818285558593
0.125455057363727
0.12377352585402
0.122620332282491
0.124336066867785
0.122240224594944
0.121622553253753
0.123722745422789
0.124813608735519
0.125852454732247
0.131518638956129
0.13648983738946
0.137955535132581
0.143409238858513
0.148928177671738
0.155810788808874
0.161880953844194
0.169391159760479
0.177767495166325
0.186441114716992
0.19344367136606
0.201834975200425
0.213135813295432
0.22192417841355
0.230631696313891
0.243717775417239
0.254399884402978
0.265707841240687
0.278299234055955
0.292044552389037
0.304527183844184
0.314562527157153
0.329460083139209
0.342511219276219
0.354851741696152
0.365310306655468
0.372859631532255
0.383188418085162
0.394409823662055
0.405187565340469
0.406408606464433
0.411823791367196
0.414094147937201
0.418937533459034
0.415762870157509
0.417975532492888
0.419361491990097
0.415044557036648
0.416203550438788
0.412483935691706
0.407675571162117
0.403695517566822
0.402559765310516
0.39654452572767
0.393752137635265
0.388377624652718
0.389406571699453
0.385112071161668
0.381463009839555
0.382560087900695
0.382639939282135
0.382769453805026
0.382091950420066
0.384798225168528
0.386029643732787
0.387803777784511
0.394293728411628
0.398840823915453
0.401970331332975
0.410847661951212
0.414919210594392
0.419977815647283
0.427295288057177
0.433320773936989
0.435876530941821
0.439484749506515
0.445826757698098
0.448201846934719
0.453027414794659
0.454402980398626
0.458878017919044
0.459873049815904
0.465144248620512
0.466893060597829
0.466320233537825
0.468513495766052
0.471244953617352
0.471460026609922
0.47413546179793
0.472028509249727
0.474814497289546
0.475964258361476
0.480180758036622
0.486108927461332
0.488773464081095
0.493880649722951
0.496676056232289
0.502715571107358
0.507694284845371
0.512397906272899
0.514395338561817
0.522454472059302
0.529572640430675
0.536831422734667
0.54025661147301
0.545453903148202
0.554354387874995
0.563314289962448
0.57860029622217
0.584562206033137
0.599246455686999
0.619023043872113
0.634068785172458
0.646276055077733
0.664874389719452
0.684667843071926
0.702580254067942
0.712312606664831
0.734745478759189
0.739113044762339
0.758046224656371
0.776023228985217
0.783242108541992
0.778919722585087
0.783783058085438
0.779261571384395
0.782562023317432
0.769295144826683
0.772426765294273
0.767088013997182
0.771059705903896
0.746867906703446
0.752485852711635
0.747833083302452
0.746899463499625
0.739147100644384
0.738756961413576
0.732124688789899
0.740954788821409
0.735519937563251
0.75076555084419
0.739422356257065
0.76000233936679
0.753461935112074
0.769197186224632
0.785207405127244
0.801717246126566
0.809672138764748
0.811254433900224
0.831646022936318
0.839415350705088
0.843662573288216
0.870604328790459
0.851412419802429
0.871868302997115
0.866828668746487
0.905406436051791
0.90850090088392
0.907277797878972
0.931251570385489
0.931673621360721
0.944863681265706
0.956444100733388
0.96408507825041
0.983345165279414
0.990462250006772
0.9977765029806
0.995462377844609
1.0283595819311
0.988701686267967
1.02596793649433
1.0197553351746
0.995452233575899
1.03946432308256
1.06780953082085
1.05005964698953
1.05312527702275
1.06506017149504
1.04126401322537
1.06268848382888
1.04712766893083
1.04472571994526
1.02744807726149
1.01088688351882
1.00128996004784
0.991316489567075
0.960996477781349
0.949612279759746
0.939762674545422
0.894908846812019
0.886299410738332
0.845669914944007
0.821307658384193
0.798698413811238
0.766531927794585
0.730545571129569
0.708105229263308
0.676508848324111
0.657562225628011
0.637449213531612
0.626961031711284
0.596244691099006
0.598172530635293
0.585927319195774
0.574242068552311
0.559911778702408
0.553722658059559
0.532737635711492
0.521761838345599
0.51371951290117
0.490943651262162
0.482134100111343
0.467528910070544
0.44213013614615
0.433648014111811
0.418601797086556
0.392021930884816
0.380404122669356
0.359761835136631
0.343109500061311
0.322513715934335
0.302453136525584
0.280458412215379
0.259280561115346
0.246450637077949
0.226591270645516
0.208791039295656
0.194298461413942
0.178086886996482
0.164053518667574
0.1561564469388
0.144544258408611
0.135409339454141
0.131675555312173
0.120383746837675
0.112466674811419
0.107392524807467
0.103792526269167
0.101769161736997
0.0926262424980218
0.0916227919565659
0.0899190518421782
0.0883804088935851
0.0844524047328882
0.083912407377036
0.0804718893692175
0.0786119425466292
0.0790873429233781
0.0790448326140532
0.0757138180842358
0.0798615394334835
0.0738934046992402
0.0751888814926887
0.079168385368388
0.0783757077683159
0.0785636881969292
0.0799654227265171
0.0785741731759235
0.0868044601497561
0.0844377886474613
0.0881255330006352
0.0913740537635035
0.0948996204890822
0.0962094477950179
0.0979066412778557
0.0981611268022648
0.103294842035802
0.102239647018616
0.106337416500335
0.106212887097564
0.105901729057671
0.109616597793455
0.108075084330261
0.109339320346708
0.107010557239486
0.109000459403998
0.112044680964651
0.106886562307014
0.113672821630994
0.112686471997288
0.113940864800688
0.111967701662327
0.112284655517785
0.113748776220093
0.11187637383964
0.109551989046679
0.12042983087168
0.113331323915206
0.114781546470045
0.115332286166367
0.115452002295648
0.116480649782904
0.114002375048952
0.110267842788065
0.112660712607351
0.113186585301805
0.116075410891435
0.106419636280461
0.109865478396707
0.105588568152309
0.110814385021042
0.109956369639295
0.106809303888629
0.111284551746005
0.114108910513817
0.109942652931563
0.111937006057518
0.116722457348449
0.115717568159616
0.115280341276624
0.123044344489939
0.121052054142214
0.123740572089245
0.125339797994293
0.130317079319259
0.134128458610625
0.134773733575329
0.131540003893894
0.135403932819297
0.138704649140047
0.134249804784475
0.137682913134551
0.129528733272601
0.128377077610571
0.128914524276307
0.121235465298641
0.11573515012206
0.109282448474208
0.115705215811189
0.108477249146568
0.109101343727657
0.108016317400117
0.108134277332329
0.107540618846202
0.110243149654145
0.109114911836559
0.111365865304558
0.114415374617225
0.11017584382243
0.11288850628452
0.114705301229675
0.107074124791432
0.112749046300878
0.11834228781454
0.111455212602849
0.117454438373313
0.113165314567653
0.111692032854161
0.112035539217396
0.109860146544139
0.113765301634018
0.116588480302389
0.116252729725749
0.114345734645556
0.114007195057506
0.107567828991689
0.114491733449568
0.106778519292995
0.116136023744839
0.106821359944135
0.104797664638872
0.106651239505957
0.108698665244082
0.111025494976658
0.10821338905239
0.110581225870175
0.108935051589637
0.101326315243734
0.11277792625611
0.112101856605672
0.100756259059468
0.10234072100515
0.107253531374725
0.100420643747975
0.105389266276965
0.0985484230119264
0.103382688868581
0.101914948360979
0.0960448727560381
0.0979350715724678
0.0936103615045772
0.089603365942841
0.0928508965364712
0.0892045489797711
0.0862077715841234
0.0840503802739001
0.0903578603437191
0.086172299830071
0.0806716767710381
0.0982682872555999
0.0919802269707697
0.0763630431986833
0.0837879762244474
0.0900524635477542
0.0853547707170766
0.0847698419719034
0.0932423815500892
0.0919710327518909
0.0856622261192612
0.0848384605330322
0.09168138272837
0.0882201677703755
0.0927830679549901
0.102346318430512
0.0970135066043159
0.0965079952367848
0.0987496333809629
0.0989819395475149
0.0996528821632742
0.100933121473302
0.107437465744508
0.102005438072245
0.107350282227088
0.107781972516336
0.110053023252814
0.112607813418235
0.112140741004584
0.11600699540152
0.118936366922264
0.119434253047043
0.117811476396844
0.12928057394822
0.134105877977387
0.144970395256597
0.149235334529345
0.144041049138999
0.146321182496137
0.151184377671689
0.160469893269612
0.157696973322944
0.166464256354879
0.169938038042167
0.194957768158228
0.168532926737321
0.187647424385738
0.188270266363569
0.188927142532636
0.184870073039787
0.198029396936568
0.193762842275392
0.184171386656084
0.174855795875019
0.176916292441938
0.155886886254321
0.1934325937076
0.17422705841284
0.16648766932293
0.176595868638547
0.183154003420882
0.177714260134958
0.177425666781589
0.179716816565868
0.180116182631262
0.155122562333663
0.181572887257863
0.183140150398448
0.186361056229682
0.181978754509814
0.192995794419778
0.20202085294564
0.176976350391713
0.181363511561593
0.182759560412514
0.1696091640285
0.177052778865799
0.171224710184076
0.174346738249524
0.15502928980336
0.160307310373558
0.140623344184136
0.162566255528126
0.165847426234731
0.161698490746862
0.145177417263566
0.154127241178785
0.161510136758394
0.164571758383097
0.149649576186391
0.147514979372707
0.152573343774212
0.162564098846108
0.145852915088383
0.148737828556692
0.165263016038275
0.178670906920488
0.161052035127178
0.167616029340283
0.158510262302638
0.16604261460766
0.16778789676625
0.160692859589137
0.160560338207492
0.150878605845747
0.1692213942511
0.160997802087195
0.161603371778828
0.172769532947679
0.167217354803397
0.189973964043647
0.166433503315155
0.176556188414101
0.16201867977502
0.197724434107815
0.188312664095472
0.232139436751487
0.163251594109038
0.19619649887508
0.201505443243581
0.166339500622773
0.190172061693569
0.232204740958188
0.205224311688489
0.268724383810213
0.188388243328996
0.212735643638264
0.213986254232707
0.231772286583445
0.224576703456963
0.243723358779425
0.229667173063018
0.212392847757656
0.261636892143124
0.21556592996733
0.231170750237585
0.213647521704816
0.266276411211513
0.244721074357853
0.23423219205713
0.183320683272939
0.177885809744776
0.195404850653316
0.22085240756163
0.232563992940678
0.209292683420755
0.213797028587321
0.177420258322708
0.217958835655918
0.166365022704944
0.2397636426462
0.189541875041874
0.184043065916118
0.123361666286245
0.237214623837125
0.200854167461325
0.281768581389865
0.180029191745203
0.27614538798704
0.201216607824395
0.242444133281647
0.208859346034718
0.211966702160112
0.21827784145708
0.258261054440872
0.233964428110189
0.245149241784241
0.139285826733455
0.302236324186695
0.142381994025952
0.265015634386998
0.0782181965592653
0.201876166611642
-0.0792483101285976
0.0562703601839027
0.186781863191367
0.20960890185282
0.221464844120643
0.219993161800713
0.300640881572756
0.124191334086024
0.279545783385405
0.349158245325732
0.362912701781431
0.113338255987856
0.314403806039047
0.0603483390966261
0.0566820338376922
0.0943692828653276
0.352405085418686
0.277843748327293
0.176489944399412
0.397282262576747
