3596
4000.36533379555
650.420452594757
1
2
2
0.0489769511041633
0.0455962401465104
0.0426587519331792
0.0387914551321627
0.0523252029840471
0.0486570504595382
0.0479955851691774
0.0465120061550536
0.0403182043968967
0.047181360833055
0.0454887710432253
0.045414725921918
0.0454879685089514
0.0416279205219157
0.0499716315141335
0.0441774950416649
0.0439020622284141
0.044678717491728
0.0433790021690269
0.0414133871429249
0.0426113147271147
0.0433084553032191
0.047381438962749
0.0494493755357073
0.0407627461945219
0.0453460874386207
0.0449862172530328
0.0412289556348026
0.0449165105075718
0.0447620480209288
0.0413619995969767
0.0409783662809867
0.0486219450472178
0.0410475323910965
0.04284382050861
0.0379800871824242
0.0440269336665924
0.0390857524441659
0.0432531778940935
0.0486617667327196
0.0436320866320889
0.0380824645019127
0.0529981926691679
0.0427702519768368
0.0442139406161686
0.0429382852898668
0.0479002149744278
0.0429272000698391
0.0392573377536274
0.0439590394616208
0.0452958287453121
0.0430542500686813
0.04035675275827
0.0508608811477247
0.0452847374242983
0.0525658561045173
0.0527106896917454
0.0386038489356291
0.0452138916384219
0.0409566469543079
0.0483991937158628
0.0555028814008885
0.0469681976392375
0.0399054463363785
0.0408179974506014
0.0486669899122672
0.0467336770240097
0.0403538914437614
0.0452464668141912
0.0396116151994935
0.0457788227340531
0.0345273520367722
0.051886233301978
0.0392594029077566
0.0527192050878767
0.0420782913859812
0.0444446909010321
0.0384671681545161
0.0344257422812609
0.0356596229359416
0.0527456648432949
0.037724938908653
0.0460825512097081
0.0350724571672413
0.0432894720093365
0.03978321813589
0.0417252510702845
0.0287559601579113
0.0606209677519401
0.0475797396640705
0.0454692369665592
0.0365161660277109
0.0462257824294928
0.0268967237897549
0.0422991042211184
0.0339831856214767
0.0390482126497023
0.0310090931892912
0.0400288320740211
0.0290514467229122
0.0541432444578077
0.0260950805929781
0.0714225090519729
0.0326077103090699
0.0519321505379853
0.0608885159694956
0.0201944282614842
0.0702930222548632
0.0594766765176898
0.0451312584156206
0.0463966314035204
0.0387387971894781
0.0409199345784548
0.0380309690094002
0.03853077762689
0.034694716455187
0.0699478558314648
0.0390584252497062
0.04451816762778
0.0321361360637992
0.0323998505816454
0.0185503406529009
0.0836527593752911
0.031305488459698
0.058736859604147
0.0372980805043275
0.0260269452674852
0.0327662171330119
0.0736533239281372
0.0351447300465506
0.036641172917995
0.0231253858711994
0.0404265798916591
0.0209344968380062
0.0611432370830903
0.0459270869247408
0.0417600096045318
0.0207016795960479
0.0227324493373481
0.0838567072493823
0.0571283676683589
0.0360707047924544
0.0288769565713907
0.0251076359353206
0.0797145346858101
0.0406833286118373
0.027360848569903
0.03091586957274
0.0595824331472282
0.0345666046676296
0.0381455328019806
0.0209475574246981
0.0487448097213609
0.0341877753826663
0.00953505871772166
-0.00701785652758162
0.116106005484202
0.0268991903519246
0.0989065414668215
0.0484410967042034
0.0389305718243384
0.0411137555000094
0.0349473364646083
0.0343086163738983
0.0372061587641515
0.0313709404006293
0.0342531734119341
0.0639395226033002
0.0357673765128475
0.0248979250691239
0.0520173854705983
0.0366582997548553
0.0190231066602639
0.0722693612337256
0.0685234583072894
0.00744660089160862
0.0680471325709384
0.0465500012312938
0.0344983939198012
0.0265384615366237
0.0683282470755047
0.0391849474754365
0.0386496725752343
0.0248555491541443
0.0420534441113013
0.051989393555435
0.052521385071163
0.0277426988299575
0.0408581259842466
0.0133218477698946
0.0284082671756036
0.0544754935007355
0.0731758136886005
0.0358153654519335
0.0440228898541046
0.00758001379082042
0.0396231418139136
0.0739731916923576
0.0384286495180377
0.0357147226889124
0.0343189969701466
0.0321624649438171
0.0428370939361694
0.0296661286636316
0.0285364194830541
0.00973873958774727
0.0610488116737839
0.0530189887232141
0.0339432989292474
0.0262514771708459
0.0242323525468397
0.0186129399203795
0.0512384021340196
0.0732426310146076
0.0354434367492339
0.043773850821101
0.0276906209404057
0.0407667120641412
0.0581430195156009
0.0376474395979501
0.0351702084046638
0.0338398002186295
0.0314379524298673
0.0353671006563049
0.03578941838925
0.0382291835615147
0.0416499523593376
0.0377597284915834
0.0343480980162308
0.0295092676093799
0.0421837540949287
0.0425555808651222
0.0366438167133002
0.0311935389607515
0.0329361463347493
0.0254142274432544
0.0590250111750114
0.0329223647983414
0.0411853369111183
0.0356065884115359
0.033535528415217
0.030322475307545
0.038338471154521
0.0356418991824027
0.0342045778670011
0.0145614946208812
0.0592257625340533
0.0511687303746065
0.032269685527992
0.0343347555626176
0.0376448572092777
0.0581591659433949
0.0276890147728275
0.0426409852020461
0.0291739268381257
0.0307752440610464
0.0194093074475256
0.0618325911038205
0.0386690619788378
0.0320639405492367
0.0426473281140056
0.0544575524385986
0.0316157544404211
0.0304827612287179
0.00569944790902842
0.0737729155293964
0.0557001373748602
0.00487181708128188
0.0933920477890919
0.069822797512387
0.0407395453095619
0.041898318329456
-0.0282641491172173
0.0912413066266489
0.105378318521101
0.0433115996713699
0.0435010682103574
0.0521857696908528
0.0441745656869119
0.0370686293374697
0.0466865940938032
0.0179695384935252
0.0658627222353356
0.0504877465307513
0.0852041512649889
0.0299518236904915
0.03097273539191
0.0771837882335193
0.0414923416187889
0.0442056178749861
0.0346191786599047
0.0380220025681166
0.0418165946120351
0.0634430002653186
0.0497912035726934
0.0534689004479311
0.0348490190527103
0.0569656277713872
0.0483525046303667
0.0444383618862414
0.0443984337318442
0.0541877222089042
0.0388827654198026
0.0391275314409915
0.0390207197472055
0.043492676473024
0.0400894920866711
0.0183025809267839
0.0764260113028152
0.0614213419299429
0.0294861933571563
0.0679103025821069
0.0487887295174091
0.0434305577477038
0.0451319401843222
0.0442130611684315
0.0428726003890538
0.0442225062635313
0.0310366890376459
0.057976354202654
0.0628491874052253
0.0364623994017761
0.0475611064628449
0.0341999857207545
0.0465463804619803
0.0410100464929269
0.0463728438708509
0.0442091423309613
0.0470343588704636
0.0326165014662994
0.0486840662144651
0.0703955762374032
0.0305794124319054
0.0466857632175405
0.0997560456537518
0.0503510685735163
0.060760601869717
0.0427594427394967
0.0615003224464411
0.0519166184823112
0.053533805308146
0.0494462647983028
0.0505517841072227
0.0577929589991074
0.0696565935007031
0.0431110010023674
0.0494601330311685
0.0944582890248094
0.11619057701547
0.0709663211573354
0.0606076367801197
0.0415555474164646
0.0557699410345969
0.104065279160386
0.0602971067640545
0.0979633789421748
0.0654165388710014
0.0726388755995522
0.0675753777056357
0.0686666741470342
0.0711589382517862
0.0697167249384022
0.0749736430388181
0.0631407516572203
0.0813102955252944
0.0774905555706635
0.0812388925052726
0.0675479364560144
0.108773405560959
0.0965716639245535
0.0803681102982602
0.0792565278838039
0.0799929493077437
0.0750463201387687
0.113452965418068
0.0987778827997714
0.130676000873779
0.0749648293972801
0.137587363238339
0.100733646348038
0.104819350483949
0.0877930220974166
0.101915078461063
0.101015424294846
0.103286957573067
0.101968968286748
0.111185796765352
0.104118502557489
0.118864742491535
0.10283296940388
0.112292699934112
0.102661228111934
0.125175757604332
0.124470327864913
0.118138139019104
0.117046002428758
0.105262112957272
0.142481046311414
0.158597539424951
0.148693771028314
0.122174969332862
0.137576037785442
0.122644107224766
0.136026873828928
0.133594520766878
0.144973660388041
0.134453887274532
0.1473737363989
0.169654203553853
0.149380175911385
0.161739226906655
0.125105131818527
0.162977590919257
0.166837815137916
0.148868277220697
0.175891336915564
0.172653842332446
0.149810072162576
0.167517960848522
0.205228217333589
0.168040128422202
0.19180643900285
0.177787540217078
0.172253619711773
0.180131567197619
0.174877940009843
0.179606148863586
0.18402333100911
0.189314427253832
0.188138507558771
0.20296063362948
0.190533642004991
0.196317494265518
0.206676357023437
0.208921853170921
0.197620635367445
0.2267616857006
0.207333268349018
0.214764150123401
0.207286608506574
0.209111553623407
0.248121010993482
0.221603409258641
0.244907743624819
0.221774281329298
0.224777747975516
0.228485035970041
0.233384852449826
0.22889529290192
0.23665004926536
0.23787577084257
0.238171146149259
0.248434053109003
0.257531165741752
0.2628006432734
0.242349764645731
0.256920286332254
0.265815087869387
0.265231553287193
0.265186869311521
0.273539862070582
0.268153843532438
0.283265364133809
0.308695743636386
0.283745742685716
0.313793458053465
0.300904582083123
0.298071424197262
0.286649415833167
0.301664160358502
0.315410556817017
0.311047119619824
0.310289687096112
0.321015672742514
0.318103163534057
0.311399355728139
0.327751026384077
0.32099954112538
0.325057263837676
0.349340246233773
0.348224150341654
0.326574533613835
0.348625861104679
0.333738603160688
0.333709510891013
0.362952487657915
0.368306592723263
0.383458491058504
0.376153172013638
0.357362781562819
0.372308227949564
0.382668712211855
0.376281146622223
0.368306253284135
0.377167595987024
0.378099485489385
0.393295961520615
0.405534615118567
0.408468245319
0.407955650018355
0.414859877497025
0.396162908419551
0.415157245533658
0.423505754901948
0.419663081475812
0.422624830947804
0.429260866232358
0.436480380646519
0.458195463472952
0.431032804279911
0.445517967369221
0.46310271498694
0.467016535825642
0.456336937427168
0.453628014809377
0.467451438122283
0.463496054482942
0.469528364409878
0.476356112952333
0.462094613771819
0.468014717423272
0.490527921275467
0.497583892471771
0.474359470399127
0.493479306014805
0.500570825417164
0.505250843272786
0.507182107644484
0.521601568054149
0.501523144918896
0.497700478389443
0.514313228038359
0.544354815638619
0.522269787781937
0.548372896550223
0.538939408038043
0.529535416820384
0.529285475675018
0.542272337073732
0.560811236999057
0.542332426338739
0.565637405294353
0.573754150910293
0.580571043251098
0.581382318455707
0.565035628164978
0.568819785880191
0.556535866371305
0.583278223528466
0.583946007444124
0.580233327956038
0.597698363415027
0.611571013817264
0.618692019452094
0.602091369776746
0.587779325133445
0.594747163880052
0.626834646249869
0.603274842312114
0.633106717110501
0.653205306459791
0.638031625393938
0.627009803489916
0.636710816987611
0.629103136693993
0.63758592653919
0.638359263389298
0.658233867790727
0.625125078321662
0.649974523407196
0.67121716455487
0.660275314871761
0.679962103397128
0.674642812989941
0.668428180142601
0.66800070484284
0.709451799019822
0.706660319025714
0.719046391680678
0.704297114680913
0.681271483611006
0.685754280794917
0.69919834056258
0.72870051188262
0.737508665229345
0.712873078884421
0.702068746665391
0.735537421610098
0.726377582465311
0.711959342304091
0.752803433740279
0.745242828535023
0.731764236235778
0.781005087003054
0.776395388051973
0.767747793923819
0.750104850617697
0.745562913868922
0.76979073327348
0.757660809482192
0.755972528617632
0.771899748368708
0.75617595567352
0.758542971810195
0.750926035269435
0.748690438636382
0.782434180592884
0.787090429777166
0.820674359050283
0.850459597365859
0.794393829630934
0.794204106378673
0.817112978301229
0.840300262626435
0.819862047547379
0.810782811082542
0.838001334190512
0.838048123218568
0.823451365786213
0.843277527276003
0.83628522136203
0.837308828624539
0.852995687627617
0.873593168975431
0.854557331533311
0.869404136717214
0.853335167889889
0.835482888590557
0.825269159344579
0.8582829973019
0.851822349668153
0.817438823789736
0.857826770981746
0.914936444228702
0.909527437541112
0.88113329168768
0.883385702035784
0.878305960644237
0.863332056857371
0.873441979392874
0.820075200447061
0.831054798715754
0.879337792256626
0.919827702258823
0.950286605303221
0.952895957364618
0.944616290961033
0.905734034114154
0.928483200353845
0.980902069936832
0.893613325882877
0.901105450375054
0.946037448951302
0.93142748113341
0.933939083287514
0.929464733361225
0.928750803302492
0.940286489539815
0.937787207579926
0.958321630580045
0.963397547599559
0.958780456231574
0.956115929844988
0.922247653997599
0.95308077932894
0.980938614187529
0.978278343836903
0.959136404666042
0.95808045875892
0.951871002065302
0.95368785491907
0.988083328728797
1.01073218568443
1.01391223106718
0.960347158081991
0.960076712871404
0.967664529698156
0.970272816046617
0.979108986719342
1.04063034949104
0.963079061174916
0.955617825932627
1.023217599115
1.00045416275675
0.965748213440923
0.983700554533251
0.978547393338933
1.02282506363824
1.01455389567742
0.993605018339365
0.990495466626368
0.972682949477514
1.00218889942332
0.982645670063822
1.00402978306872
1.0190858905834
1.02922797800486
1.02506644200113
1.00823913221136
1.0432309572011
1.04029865958056
1.05562352104577
1.00055300417326
0.987400127340489
1.01899656560808
1.04546092536353
1.06364401550554
0.978915426597795
1.01641147093002
1.04294524717474
1.01357176785559
1.04320468661414
1.05349917260643
1.02412630778314
1.04975512385826
1.01415626777327
0.992907246273275
1.01004338501955
1.02238510213493
1.0585099027236
1.00421932520115
1.01536869129041
1.023712844604
1.02875112608038
1.02143123223408
1.09991608057471
1.06512239865651
0.999522740806389
1.04968986985574
1.09447386504366
1.0187307096326
1.01298960385151
1.06529106921162
1.04740639637792
1.02132721368029
1.02434504368584
1.0185019192788
1.00479939912071
1.0379795895724
1.04308602057215
1.01418888061516
1.03677570860705
1.03197808127673
1.03308137046623
1.02929959117849
1.03118040057844
1.06608877170514
1.07344765618966
1.08821092912592
1.08015701556042
1.0694170109722
1.03616638099167
0.978661574037164
1.02173695965864
1.06795098396912
1.04423425813183
1.01499807446961
0.992948509726282
0.998111817897403
1.03497444519056
1.0360104583334
1.02614711056668
1.00695382649386
1.03894130393922
1.0545502854165
1.03792289542161
1.02313738893797
1.02867271908549
1.08261574669532
1.04000058072464
1.01946105942002
1.02366789740306
1.01536117523743
1.03655612508812
1.03136786628449
0.975077922842458
1.008740685352
1.00985957173649
0.989457771657022
1.03824423041507
1.02717699707235
1.00396175749502
1.01514262711464
1.02679085541645
1.01160415372928
1.00603210748912
1.02058945763513
1.03126816893538
0.993075379083102
1.01639314218147
1.00805072947305
0.995946439276634
1.00207428200536
0.987254218063817
0.973481251152092
0.975527539533457
0.998152532917634
0.974256491144229
1.01168973978511
1.01720896335238
0.994851781776413
1.00896893273734
0.998351075628408
1.01506916937012
1.0159123436424
0.985602888605482
0.985094710626807
0.988414041200892
0.999490452177319
0.983440830607301
0.959997474378938
0.991885706493882
0.978720364057181
0.938276384910227
0.957976612699481
1.00272574365442
0.979856355772327
0.97976626533999
0.985121569181602
0.925280612170784
0.949060612891361
0.94269975004362
0.957321860255107
0.964557302311527
0.938229408996895
0.969944354250993
0.960089669393339
0.958614009851856
0.935387000446773
0.917167292633532
0.921634024512901
0.911330351375442
0.940505662667767
0.934396975840992
0.949011582042997
0.964678944995273
0.94160575036769
0.91712585192407
0.933734719847442
0.907348316301354
0.88468503800761
0.921048758959946
0.93636978825767
0.900232093550356
0.892878269114943
0.920288687805564
0.914961618083197
0.893161981727657
0.903248502104493
0.883376418331104
0.880528507271981
0.86970956417159
0.873518316571348
0.893431565878127
0.879859599338096
0.860334302765268
0.882561274480352
0.866509304944049
0.857473677594414
0.86864382228962
0.862336982635438
0.848132123386296
0.849567986016771
0.855613717261599
0.860807322671845
0.841280548838853
0.849144009245627
0.853300664051611
0.847316440600459
0.820297420194413
0.825128731797018
0.839342426481548
0.843984180236398
0.815656710399267
0.802493933860044
0.80093073824721
0.794921768420799
0.814218018832435
0.817037807932006
0.796614572233786
0.788142409556443
0.78286751915306
0.794357723767982
0.77270421250025
0.78997754423698
0.793609113293226
0.789110396459737
0.783942796255937
0.770620744323774
0.757102399455768
0.754005916909089
0.743942055835523
0.740072939292424
0.753177198312628
0.760724351488116
0.739867036194482
0.740221809436307
0.729015228745359
0.711504775398394
0.730882890136539
0.73505255958752
0.71867730378606
0.727964437363468
0.699449345391623
0.719052604311207
0.69857436816426
0.678534006595755
0.684195598140503
0.681938057078985
0.694417013035508
0.702043409326144
0.680660987552273
0.673894186286122
0.682561064366376
0.674017948949518
0.67904184766623
0.659717693987995
0.661681108704785
0.670432681298394
0.652632789182617
0.656924011758262
0.659629756194519
0.663738043164465
0.64869875700655
0.658215738854399
0.645921345766205
0.638000355125646
0.626405376019471
0.625758575131817
0.62883517239761
0.631952513386944
0.603998256993596
0.610220335965344
0.604618030055335
0.60103211556824
0.59406878766828
0.607231927377687
0.598106326868143
0.597470043857038
0.591371625244441
0.592064138810419
0.589652036814665
0.571204786364044
0.577395385674038
0.577858592957436
0.556028496900244
0.560883561285164
0.559077229599524
0.566090858821672
0.565565985616834
0.561249358830032
0.552801449974795
0.554289268841794
0.543878056358231
0.547139594254161
0.530325952977755
0.540470324176514
0.535708262761818
0.536862715400253
0.529103120427669
0.537254458229672
0.531288198583325
0.511099557921538
0.508037249692494
0.511713125685214
0.506827948935734
0.506238929694901
0.497364432949543
0.504140498917195
0.49113281954659
0.492564447701372
0.485193622961818
0.49561109528807
0.491954092969281
0.476571535421076
0.479165315198865
0.492982849919801
0.47884873148875
0.477766743273566
0.465430618014671
0.462430639763695
0.465511679018184
0.461050915649166
0.459808049152581
0.46599660671063
0.456965876243966
0.449939590031552
0.45113885095469
0.455627393527115
0.445469683910662
0.445628410844462
0.438709995289103
0.442192164674003
0.440234334736015
0.43896225533768
0.423365089059999
0.430513091194013
0.430143310162187
0.42048036243297
0.418459777236983
0.415292700756662
0.409502197685724
0.415950191009429
0.413344139485318
0.412339251496522
0.40737501850794
0.410397146721478
0.401861739021535
0.402183033893049
0.39644309014293
0.404235053426347
0.396296835769609
0.401206933093669
0.39576286846385
0.388490602810271
0.387223208790403
0.37882670124696
0.380076551205509
0.384874734469308
0.377526834049462
0.37710896063323
0.37423315668787
0.367422345002355
0.368413608806921
0.370601052607763
0.366351945209353
0.374797877419694
0.361194079986236
0.368639607544524
0.362033950535507
0.358596159803106
0.356434310959554
0.365261421401859
0.350768168616751
0.349415531526226
0.350788337943006
0.349942065214321
0.339105413397667
0.347442637907846
0.343631600000898
0.339142282241859
0.331307025603904
0.338123858929106
0.340828414156542
0.334878597514174
0.329813579793254
0.332857913908333
0.326526478843109
0.328547750140888
0.318825561748746
0.320846033244746
0.327214565398142
0.326656785528225
0.325898134070476
0.324138417473044
0.316152165551754
0.319722785877989
0.312256597453223
0.319841277245799
0.319343252852787
0.314844108776672
0.312506746980235
0.315863800354526
0.308602505768629
0.304765964013248
0.308794862256547
0.31586452514905
0.31075798394277
0.304910175610526
0.302221935284672
0.30947189657487
0.301248140807067
0.307304969201727
0.299800003602324
0.300546738030514
0.299701449732837
0.297671139208348
0.299890073136998
0.307969876804847
0.298831768968048
0.303064855493375
0.302462908793935
0.308566661816176
0.308265181106261
0.306674624721235
0.30011525442546
0.304686741702705
0.301928090401975
0.30056722374048
0.302353482527471
0.311435065453434
0.308516360734014
0.31227567422721
0.310665160218908
0.315780241367326
0.314820254349269
0.311353759487435
0.310976073809982
0.315613044617017
0.311153159918048
0.318737937799886
0.312654707686225
0.317679455277572
0.31161177599736
0.318260233968086
0.319911287126186
0.316926645889677
0.318153343985855
0.324811692114102
0.316082662565616
0.329474155529506
0.331838990432066
0.330626772038716
0.332280684393086
0.341978114778452
0.331894001493547
0.33950223285105
0.339979881009183
0.344513951720535
0.344414229781108
0.350603487782905
0.34714938284771
0.356682746107343
0.350686215173038
0.358565733767252
0.364401018751273
0.370153926481721
0.364225708645468
0.370905259235832
0.370551003526977
0.376917571650543
0.382934097088064
0.388781158889026
0.381190198390085
0.397386494242287
0.398396030192471
0.399105639785064
0.400131079112147
0.405955145169284
0.409008692697049
0.41092072269001
0.409921088584809
0.418771595909361
0.413006538626351
0.408670347533258
0.413888617249923
0.421812742390011
0.421776363979944
0.422356801071417
0.423659331678694
0.430857036236341
0.425118939106016
0.427016066884811
0.416037462100002
0.424565855468074
0.414279167067969
0.418690767027282
0.419118936213009
0.417776970870148
0.418252598049789
0.413505752299425
0.409294577502188
0.426189487280783
0.411719818117225
0.412458817895269
0.417708933115994
0.415594502062771
0.415456926346481
0.413259128098244
0.406426600843116
0.415325935169258
0.405985630408631
0.407459174972515
0.404108544156147
0.40400285664612
0.402336501509832
0.412057559981666
0.401559400891828
0.408781106611879
0.39856724299477
0.401427486229202
0.406612106666897
0.406209782045686
0.398225995366405
0.400337873032359
0.407085193170824
0.40392383705181
0.402443902996484
0.405520605132178
0.397108889717585
0.403250657641165
0.400589314964623
0.40473733919206
0.403245302774214
0.396389882836669
0.389176332950069
0.404565157534539
0.397584623010186
0.397293236232129
0.386259690440638
0.387157058836103
0.387264046443019
0.392407623304082
0.390262392795468
0.388914450695788
0.38575614860395
0.383630152940159
0.375815810385086
0.377577161153323
0.365876432266806
0.368060162621598
0.365260631717419
0.367302457321052
0.359481988562459
0.362215829750185
0.351294531895336
0.352809574940538
0.352313195924818
0.348330373672638
0.349552366459427
0.355313106440516
0.344443095647379
0.347790957202505
0.338080160489071
0.333467414849198
0.334052331986503
0.33899571139086
0.329541001829135
0.326626918090956
0.320796143667265
0.32614289735656
0.322142026752062
0.321649322349294
0.318317559134421
0.314473098377723
0.312394467317
0.315674262638081
0.311304385254705
0.306304645415872
0.300942751202478
0.302574628811374
0.307756665919869
0.303008949936219
0.295164389914695
0.298022958313399
0.294589708364097
0.294520282517836
0.29106638003221
0.291865513360778
0.289646275898207
0.284770721905022
0.285252588209011
0.289666232631127
0.283112817938885
0.290079167421127
0.282765078412081
0.284918978573083
0.282245080164002
0.278326103922226
0.280997394599538
0.278670591133442
0.273384118372219
0.27046768402037
0.270356187812561
0.271518757492553
0.267978348598644
0.269887666725167
0.265306329048279
0.264841520317637
0.264662105974121
0.26062679557564
0.259992343522685
0.266770673027662
0.261279751978445
0.266992934893921
0.262075700694036
0.257003401606972
0.257317344920095
0.256964378920778
0.256070641391816
0.256630603739419
0.246439782666979
0.254769909836543
0.25342612470916
0.250169313733033
0.246718057480419
0.248182192103891
0.245620212962705
0.247616063736947
0.241397329326497
0.245337688604918
0.240390785015548
0.246654350929514
0.24404796728484
0.242159621750605
0.239223339265202
0.244464916485069
0.241023331691762
0.237767543706227
0.236024266346044
0.24002405938279
0.241369567856302
0.237602997837679
0.235084413912904
0.234860837815773
0.234130856606285
0.234987789614433
0.232260283725976
0.228827982792225
0.231555188724209
0.238432110540744
0.233532553994467
0.231255160206988
0.226900421297288
0.231022361785031
0.227797490815607
0.230034641813841
0.223556712506238
0.22511407877068
0.228620935069964
0.228838814774555
0.225330734609933
0.224020702322581
0.226732252268109
0.229260989560269
0.220685902492758
0.222193069224658
0.225099297958987
0.227572353286324
0.221376486424354
0.2252589814778
0.219819628341361
0.22184861119288
0.216924462459331
0.225958050161672
0.218149671779109
0.215716385532393
0.215079516636661
0.221635933652032
0.215859166925406
0.222282090190477
0.215533275162405
0.214538624327862
0.214075418909702
0.21671281400215
0.212331957298839
0.214994191901708
0.208459152590462
0.215543896356816
0.20838248280049
0.214407067296299
0.211873415541084
0.21061760376878
0.208168013354926
0.20931400373498
0.208335188062879
0.213891497190524
0.207021342655053
0.208994618194216
0.208752296516482
0.210542653355587
0.211412651823464
0.210477512018585
0.204957397190836
0.208262905015273
0.207729758661179
0.210132453549627
0.202255499868942
0.210132834288119
0.209400788014805
0.206887409714488
0.203005212654764
0.20673320463859
0.206638159477252
0.204022776538243
0.205567513212622
0.21241087973434
0.204467772654174
0.204976499705668
0.201906301443555
0.203503526052709
0.202737415758353
0.206002111196128
0.199693429669995
0.202943173279987
0.202498407100861
0.199861778775578
0.197064727116627
0.201334697418375
0.1991983033482
0.197799431646279
0.192885463207661
0.200562309811383
0.193691613496895
0.197066644520553
0.198276257887694
0.197638029732648
0.194688357017348
0.199062563157271
0.191897963259436
0.190525657539502
0.187312802807841
0.192418010995663
0.189080909916838
0.191682504410823
0.18444976437787
0.190024387990541
0.192388241260494
0.189392391177065
0.183802110342808
0.190296718291254
0.190405929520277
0.190125638828762
0.184170147967781
0.187589392667148
0.18474904466673
0.182598454914881
0.180269160925291
0.184795494587129
0.184228438424511
0.186812921658125
0.179323131950703
0.184800748118091
0.182909347772369
0.18007838759767
0.181291752397262
0.181570758269738
0.175387798033366
0.182685104428032
0.18070380500381
0.179387424392334
0.178854496104803
0.177829976149944
0.170339948903369
0.17944639201546
0.177180230901622
0.17567817753503
0.17346736005522
0.177793095373749
0.174863664737167
0.175563417773529
0.1708332044463
0.174680089599994
0.173414679350046
0.172844218134547
0.171242584722599
0.173764783860735
0.166271066878456
0.16796776014628
0.167407350219896
0.169573086070315
0.167954554708328
0.165710044429793
0.160942442360537
0.165696480609603
0.16106368324849
0.162403984749122
0.161203860453964
0.164324265506335
0.159244625536798
0.160644125880071
0.159451377136198
0.159023098686071
0.154561228254624
0.156072882782169
0.154666394187181
0.158070172363438
0.155228883624964
0.153770715941717
0.152113081490207
0.153033829307945
0.149945963333475
0.149689444167034
0.150848505802459
0.151515493018025
0.148335968509561
0.151247839561066
0.148217277875439
0.149714980851779
0.144114026508594
0.148717089679497
0.147704099480599
0.14753865427043
0.145031388406536
0.148132534180884
0.144747953939252
0.141477083422532
0.142703232207356
0.144173947138716
0.140978897571668
0.148508710473491
0.146198218789819
0.145074371161071
0.140250189912174
0.142522546950952
0.141428562610298
0.140989809224041
0.138181478798849
0.141907124843625
0.136916557611667
0.137589046289066
0.136628111592196
0.139336688859606
0.133809353462209
0.13628987349184
0.138904845265745
0.136142420988065
0.134799490463601
0.136996156500032
0.1316297180305
0.134593636855202
0.135492394592376
0.137738839706465
0.134646680900228
0.135471187085499
0.133836855164051
0.132884510593044
0.129000167697673
0.131239078495935
0.13107050496959
0.131050660126723
0.127428253112943
0.128636815291104
0.127184273536296
0.129659132052289
0.129179835200808
0.129237738806155
0.12639535983359
0.127158283726273
0.12443253495553
0.127327720131537
0.123477992592515
0.12931532278815
0.126323592165294
0.128850574924336
0.127764439925597
0.126420585988165
0.122060521470237
0.12598153107927
0.12386479232382
0.124979620716177
0.122976686034032
0.124017320551666
0.12396925090808
0.125139986311194
0.122566834773442
0.122907652321802
0.122058825650972
0.125034535481758
0.124533576223552
0.128060340180047
0.123573637449661
0.120598906095519
0.121477692085057
0.123660286459433
0.119403425653966
0.12331058283294
0.118429423860199
0.119878257201534
0.120584465318467
0.124301850774253
0.118913903064896
0.120192664149878
0.118757322441854
0.121420415219141
0.118527045438421
0.119160590290897
0.118651415531888
0.11843515309422
0.117426356649964
0.121385342020774
0.115958207703844
0.118100853096035
0.116022361479587
0.117082697835327
0.114237256774326
0.116501855207998
0.114088958416185
0.115581890097287
0.114379446969276
0.116905425394739
0.114327137977907
0.116619690335212
0.110177362608393
0.114007850662443
0.113569139225628
0.114785238094041
0.112354149124676
0.112878360070102
0.10990067822895
0.112325738559064
0.111533567124611
0.112869027697537
0.110757977151532
0.112277985687051
0.111320141281195
0.111227513656994
0.106864015785595
0.113395767748893
0.108672007527424
0.108989112556529
0.110313346733952
0.110251782337129
0.110009845452368
0.111571269581392
0.111055598235003
0.109729314138713
0.107938512665135
0.1109223723535
0.108579833828541
0.110148962469196
0.107311874533601
0.108917926442519
0.104775001107742
0.107405483154014
0.107447354208525
0.109624656398058
0.105837485245401
0.105634168503125
0.105482584059684
0.108272976345169
0.105747194328154
0.107098401117886
0.108277201895497
0.106562825540413
0.104930267321578
0.104977611971169
0.104361149869548
0.10451849072918
0.100961160117028
0.103244302979488
0.104647200855816
0.104985625827293
0.101530644686709
0.10329889204243
0.101617076461511
0.102741486965175
0.101870085950896
0.102651802059931
0.100391488598348
0.1011356361524
0.0983348583741516
0.0991119731006795
0.0996419057633294
0.100232838870959
0.0967306170800901
0.0973634075350722
0.0959654414781803
0.0945756071653363
0.0944875820217176
0.0983973610470012
0.0958425518385647
0.0937378821812596
0.0960922783670013
0.0974128191519506
0.0924917886224474
0.0958101170324797
0.0928038975447817
0.0929836751771749
0.0934199546179554
0.093263413381961
0.0937754676472609
0.0937981245598203
0.0903804576014914
0.0916445933546849
0.0882235537495005
0.0927427811631349
0.0914647006165889
0.0918976632281327
0.0890145812794165
0.0916555485235865
0.0890134103555927
0.0890051520191244
0.0903976990150463
0.0894971165223385
0.0909793970690535
0.0895844352803204
0.0837493389472195
0.0878293560196094
0.088745649364066
0.0873199007211747
0.086861420171052
0.0892848350909469
0.085990641853874
0.0856637281162845
0.0828517525848872
0.0833634702720648
0.0858049930075513
0.0865829300608808
0.0811483439115004
0.0844046379126104
0.0852480403346497
0.0840155397464139
0.0818306404569595
0.0816993917174844
0.0801284334971355
0.0840847035259295
0.0794895179057112
0.0820534669073035
0.079504049103153
0.0794305400553364
0.0779759340857126
0.0789437661564578
0.0767635119067712
0.0792913773550588
0.0776229522763194
0.0807859173258857
0.0775628282237829
0.0793145588804585
0.0757640688673646
0.0748935782167691
0.0768260746456172
0.0773344903291411
0.0750438545645667
0.0755100857509191
0.0773928491485978
0.076340184159636
0.074798302598884
0.0756302499529821
0.0724646738803039
0.0754949449717682
0.0735285139300996
0.0740960017528829
0.0743483024035095
0.0762181475616452
0.0730598406270474
0.0737478560046422
0.0715871806488893
0.072690737322442
0.0736803834641179
0.0733642660303576
0.0731824920680178
0.073558466261187
0.0705338942670855
0.0733956510508604
0.0720281073070282
0.0744135208280424
0.0743937514664123
0.0739514780441978
0.0708260628961484
0.0689270071053085
0.0692771250030005
0.0675705143633833
0.0699241537896059
0.0711687401110618
0.0637869359348589
0.066901775627062
0.0609130157235085
0.0605359067962347
0.0599604161711183
0.0673439943757022
0.0706533373968765
0.0710720550084586
0.0639588876330695
0.0586236623301041
0.0630739654023503
0.0702480646270236
0.0582240746932412
0.0612271838366645
0.068463068130466
0.0599704191182746
0.0612164909563422
0.0647429433558677
0.0608915390432113
0.0649322156494497
0.0629826460300775
0.0648406051782275
0.0600807939733407
0.0683194201847084
0.0702219642200836
0.0698378629829425
0.069457063007787
0.0627380263136912
0.0618571090836858
0.0589579645003863
0.0678094724810287
0.0635359083836776
0.0652089556726141
0.0633605168008438
0.0624939164482409
0.0615132549007505
0.0624934401677565
0.059452858626955
0.062215461882468
0.0581812238328334
0.0586931714780098
0.0540524968515868
0.0625649384529951
0.0628753037730344
0.0679765357684331
0.0645584989025228
0.0625556450275396
0.0513932409183495
0.056068973119687
0.0627515604764396
0.0723593811389262
0.0576144007216606
0.0580494696677641
0.0607481845421538
0.0700285527712897
0.0646065568045418
0.0577983862755549
0.0630606357441053
0.0670510815033664
0.070581909495184
0.0527734999806915
0.071823176434451
0.0629260598841511
0.0683739139539752
0.0567401183769527
0.0723308693967862
0.0576157062588668
0.0657151674974802
0.0613183083875562
0.06365839682135
0.0641199527503255
0.062903209701726
0.0618773430549025
0.0616920111728987
0.0629420462419238
0.0631822584279879
0.0622965835000155
0.0636732649043569
0.0589571774981101
0.0628600576189266
0.0619384587651248
0.0623783697247652
0.0604189052638388
0.0621061299975544
0.0596446954187808
0.0608995673638369
0.0610515880540023
0.063237819459436
0.059320784025958
0.0646384071385094
0.0626789489537537
0.062391042886915
0.0599923837268652
0.063032905630976
0.0597833980656342
0.0617946635555903
0.0602355140929546
0.0605953837256267
0.0588677014744388
0.0618943054235703
0.0609072046907073
0.0637787553726575
0.0622894569638924
0.0634956764032384
0.0596761070859455
0.0602882067884195
0.0601036138593519
0.0607621575205006
0.0608745053682427
0.0609722680603554
0.0619334593453992
0.0653417230554122
0.0610160202048416
0.0622093143212503
0.0605630369019665
0.0636840134278226
0.0617234889746904
0.0637743978263579
0.0622733265933942
0.0636165408928631
0.0636376063499574
0.0646696652054373
0.0598315021505254
0.0600796475725902
0.0609120845141905
0.064331850432034
0.0607927946430192
0.0633567011461824
0.0642369982477681
0.0634021323699467
0.0591658547439292
0.0633197476195886
0.0622294951174467
0.0608968415884896
0.0617400857583323
0.064598209704035
0.0605527260515833
0.0635973901836271
0.062652973635081
0.0624278753992747
0.0604962645922772
0.0629994097887801
0.0621018592850432
0.0624489831976998
0.061681869766486
0.0634582212059865
0.0591453144950236
0.0615984615701543
0.0616053727031498
0.0646787417515778
0.0626561681305306
0.0620591305567793
0.0624027808719666
0.064450234644917
0.0601671169847652
0.0639591359648852
0.0616210188652519
0.0615374520742565
0.062575065843265
0.0630332049163532
0.0599991562780585
0.0613497295444665
0.0629509242136625
0.0663663456061103
0.0627613390852076
0.0643482961011908
0.063493055649427
0.0643954571549051
0.0635882649770628
0.067420074872152
0.0627714298442277
0.0620922028868434
0.0644136722386269
0.0665361317449223
0.0617568283262296
0.0645079579505419
0.0660473720166275
0.0674778014540832
0.0643018680025105
0.0649783781427067
0.0641734195914161
0.0684030034204633
0.0667465662107651
0.0678851643963866
0.06505321584782
0.0660035449109927
0.0661300194622567
0.0667500886176891
0.0646710721436189
0.0680897873646854
0.0656377824633904
0.0656957864896383
0.0658520394215623
0.067874022499858
0.065642529767229
0.068745063773298
0.0666741233963938
0.0703559505183968
0.0682220600207961
0.0673890450086173
0.0667911314629828
0.0690312176365367
0.0648970272847348
0.0688014820126736
0.0661181642947801
0.0684870494508099
0.065984470523413
0.0671393019942227
0.0701728739176304
0.0686457880955527
0.0664712494310347
0.0701764918478139
0.06826188691314
0.0691677142414029
0.0683700991793124
0.0688211484949259
0.0678416547501633
0.0676048475136351
0.0635392394718919
0.0679375511395903
0.0679207715676619
0.0716076132435661
0.0670164894485238
0.0707412803876006
0.0686011249383044
0.0725320668662873
0.0709725943496692
0.0711010015024622
0.0720414145119421
0.0722323362813902
0.0696569115755608
0.0692116581149986
0.0716461539371271
0.0721998188152121
0.0682688186251006
0.0740318818407926
0.0694569088400309
0.0703515264459865
0.0695919170587313
0.0721666394976532
0.0707083340410872
0.0703679114248084
0.0699663001076584
0.0718703397825147
0.0686589960020547
0.0710728992967905
0.0700037243298753
0.0709095511085921
0.0703361828241777
0.071827292472392
0.0687520564952485
0.0691826031379223
0.0695021353861809
0.071455240450078
0.0677706370563952
0.0706812612251728
0.0707511332358695
0.0696046629890981
0.0700438123007577
0.0690841889958831
0.0671371749836265
0.067808169477479
0.0675576859507143
0.0703880190025436
0.0664736873485326
0.0679264645051571
0.0668159097694791
0.0696740388097073
0.0673405334655593
0.0684786393438467
0.0665534858653572
0.0682023212938277
0.065846448831611
0.0680309486382267
0.0676797743912588
0.0682246160801658
0.0672564088931678
0.0658869934005891
0.0626826039356824
0.0698338679054758
0.0677434539792525
0.0664087555065803
0.0652992166939557
0.0675064941883551
0.0671076178750765
0.066163332392399
0.0688829024448514
0.0648798101368631
0.0644904853268152
0.0702905599448525
0.0680510199425749
0.0667981250110886
0.0651674607474367
0.0659287529413004
0.0641347222747473
0.0666037095558739
0.0650043540915236
0.065961415391674
0.0643481568811717
0.0657694330416425
0.064166411367466
0.0655511332143056
0.0659229087223707
0.066014958402296
0.0641235708462242
0.0657266218917009
0.0643176555325788
0.0652284047265513
0.0650206765218446
0.0647288789236758
0.0642016489607898
0.0666245311657703
0.0649109703135266
0.0642232217431285
0.0638447341204007
0.0644036771300233
0.0625393811352097
0.0649840976091115
0.062532283186818
0.0634705452659749
0.0634075933624107
0.0600878224214782
0.0620793240596679
0.063882852734563
0.0615618955629366
0.06351049742049
0.0627459809641685
0.0640765607462532
0.0604907091293517
0.0632664358687307
0.0637051492102024
0.0625959557541844
0.0615188037516834
0.0630963735199436
0.0625409976005667
0.064934731077908
0.0626006577490576
0.0621851498598291
0.0594200878497881
0.0612550831510867
0.062584138002836
0.0639057712608912
0.0616120406240781
0.0610226843741294
0.0602591693448626
0.0632207538013467
0.0608858652119829
0.062069285311973
0.0575119847961462
0.0603785409695514
0.0595052448381835
0.0601910482625043
0.0597342970407214
0.0611721112022107
0.0615809556806817
0.0608711028487475
0.0576630234295172
0.0610945428801027
0.0582021310102432
0.0589437511331323
0.0580393992425808
0.0595564199804644
0.057991592533814
0.0599786228840542
0.0590548391054379
0.0572423868359095
0.0568668140958625
0.0588482590889752
0.0586478611620271
0.0580763025301502
0.0555551043619654
0.0582321552659593
0.0576096719567829
0.0570838240138232
0.0532827982593002
0.0562603155580492
0.0549497423291244
0.0543574471262396
0.0548928094714704
0.0550697843379483
0.0532092936021831
0.0559993269123638
0.0534553291391395
0.055516737829355
0.0532049080971804
0.0542487174827481
0.0508437819188612
0.0520615012007198
0.0527077214158828
0.0527853947101771
0.0491312508636427
0.0508152375654992
0.0488459634827328
0.0521127861387267
0.0505465825916569
0.0529832910937081
0.0466735266051014
0.0490071729987355
0.0475796518830474
0.0488300081644003
0.0484798451699788
0.0487910254136085
0.0478956522719392
0.049997214304529
0.0468200748298609
0.0507284344346967
0.0491051967151172
0.0512979727285756
0.0430424253443844
0.0520123523375753
0.0568618655745344
0.049224014296436
0.048786352295718
0.0492148020481134
0.0473590351319784
0.0492673214218089
0.0493159809688462
0.0482902109260267
0.0466426220789436
0.0489995841194536
0.0478415463347917
0.0473027008482601
0.0443205355325816
0.0467100039926129
0.0475710630919037
0.0475813455919461
0.0459613877566527
0.048654829148169
0.0460869806901009
0.0459051934345526
0.0475576806564136
0.0481154271712996
0.0460196459403235
0.0473838245760493
0.0472429517122565
0.046639898507213
0.0503543355449996
0.0517959567205408
0.0475116805256701
0.0454175732492914
0.0457005982210114
0.0463082820835569
0.0461193143502318
0.0458592691716986
0.0445061315475676
0.0479545341522045
0.0464088156547081
0.0459361755526802
0.044514871834831
0.0458021979058986
0.0451291643798537
0.0460849218475367
0.0418090260719139
0.0447198905180376
0.0461779301863681
0.0438362084399788
0.0438636909171042
0.0439395623518582
0.0451862167962733
0.0431072223669103
0.0470727639803783
0.044451037303329
0.0466530426869898
0.0518386067133849
0.0474859735695937
0.045664900684952
0.0437758772163342
0.0439078096663273
0.0444220730702517
0.047550300074237
0.0453368444262034
0.0451963810427551
0.0431861262300663
0.0439250014027124
0.0407833647917768
0.0440996342380912
0.0436120128827287
0.0446088597690481
0.0420767278299467
0.0433320750312871
0.0421611555614161
0.0453426436662553
0.0416957615137597
0.0437357156183722
0.0489509984271611
0.0448100117710672
0.0472619366326172
0.045256695144395
0.0378125042450722
0.0587778414970798
0.045876878559607
0.0459029022188853
0.0425754683705072
0.0448680131423392
0.0394591883293108
0.0470893728398437
0.0391948090169851
0.042776078286517
0.044608265501171
0.0469632144317629
0.0449395611408153
0.043042043473645
0.0416001698951017
0.0442048618759208
0.0419063474102425
0.0425908210895226
0.0425254345011202
0.0418266008709772
0.039713824411523
0.0425210229886522
0.040219108298951
0.0438180088021025
0.0381307635155778
0.0456006123052454
0.0424452421996431
0.0443381722573095
0.0397372101779718
0.0452583714361012
0.0386095709972671
0.0463331979592736
0.0488621660608677
0.0449923065833905
0.0416103102345987
0.0449523712079435
0.0412320981411929
0.0403405423165032
0.0426729356835069
0.0423858495709862
0.0419055144757954
0.0416165212816822
0.0438340516819722
0.0428593885046399
0.0392530432713399
0.0392226114213259
0.0415709097036966
0.040133726504316
0.0402644277046701
0.043474619839328
0.0417270306967856
0.0403883054470531
0.0369548689733223
0.0554838401418127
0.0471791941497591
0.0526088369855434
0.0454887016132057
0.0454184986329142
0.0411317857915705
0.0446058018954612
0.0398183240813988
0.0421162088928538
0.0414095849263115
0.0431959606990728
0.0403098113929695
0.0455446834702101
0.0401315888381236
0.042196974246298
0.0414645979937624
0.0430779585471829
0.0407610290722838
0.0435300964026298
0.0404817319969658
0.0417915487455764
0.0414130480551339
0.0392200462453136
0.0440228925932053
0.0462279105383388
0.0448427845565732
0.028254272235462
0.0605383160290357
0.0537771041050099
0.05011678813721
0.0420357773831851
0.0424835795085684
0.0408917824208663
0.0409644003626776
0.0424100713787853
0.044403803423894
0.0415147713926616
0.0432154520318104
0.0404226738337821
0.0428111894064164
0.0430456851928835
0.0364420556587437
0.0496132330373179
0.0610800322920016
0.0482285105970203
0.0493161699196838
0.0337554999411659
0.0485443984861759
0.0623248909920595
0.0441622987754123
0.043456320410236
0.0413598491500148
0.0442455461355363
0.0411557274779323
0.0441322331125326
0.0412597383598872
0.0498183611673861
0.04160816880473
0.0450763143359909
0.0446223579138651
0.0436426129287388
0.0419272518011745
0.0422077945368667
0.0452217609593984
0.0504564955436945
0.0438270933353106
0.0476259093000448
0.0442379908302444
0.0452166047489941
0.0418066835717184
0.0473901551000003
0.0408597731626371
0.0489761099623795
0.049467959069664
0.0466104540709611
0.0523684288989298
0.0554579869450081
0.0453584442836334
0.0469403505922938
0.0451599088333215
0.0562190451341973
0.0325587837287742
0.0555860442449904
0.0542856791664965
0.0646418666622665
0.0547478886263437
0.0506702520236245
0.0459205221936788
0.0483207688199819
0.0446616844286679
0.0406747557816916
0.0608728145465547
0.0476404474061104
0.0526299269388108
0.0397932565589874
0.0514989669437689
0.0490958865503556
0.0538354770766779
0.0462406674293961
0.0518458317325868
0.042222765586784
0.0643606973155324
0.0488900241526034
0.0433424991558243
0.06172706904338
0.0582837628557835
0.0750077800389364
0.0505897394007711
0.0482366982728781
0.0616593021877156
0.0563567194028302
0.0570947332156454
0.0466497898933641
0.0543002485277778
0.0415997806301751
0.0533105476884823
0.0767414701320234
0.0535241771022261
0.0554047505984833
0.0532335105678891
0.0527365616527799
0.0719754013200088
0.0643283914083471
0.0573420669304066
0.0550542666977057
0.0580297545599545
0.0396590947295997
0.0895731774494957
0.0585456451327723
0.0703210691383121
0.0622730922977917
0.075869533840531
0.0655651646944498
0.0680607840371755
0.0555479203665864
0.0709895989274597
0.0723088423077944
0.0686093701113944
0.0502744625510974
0.0781407930173303
0.0730067976044759
0.0677964346522843
0.0705416190456623
0.0635842595440191
0.0523879175121915
0.0764050556414985
0.105446311350751
0.0967648029800479
0.0740460753413062
0.0747743440025758
0.0878571734581669
0.0775195358557167
0.0789692201578795
0.0770527342078298
0.0787613090866279
0.0771951862530202
0.0771884500811288
0.0875177024866221
0.0794944247618659
0.0907836950495156
0.0787601600507363
0.0844191626372257
0.0852905130747341
0.121981992124364
0.107255621254575
0.0917417360974596
0.0967727663553017
0.0978983903590962
0.10349912861819
0.0925863937990981
0.0961792801220887
0.0951494817509955
0.102613443554774
0.0968989216216168
0.0910449697513806
0.113236952083878
0.0939473930346992
0.12604965770194
0.113389151571892
0.112109055036936
0.0934964352699301
0.0943134481691737
0.202769274690853
0.124549586646064
0.133397247361954
0.09293994293028
0.1376424923225
0.144304985690963
0.137231347577812
0.116592679337937
0.123643445287404
0.118912236183367
0.129856200468176
0.126844303548607
0.136894749621329
0.135036758618433
0.137411777018615
0.116664521205194
0.143416903458535
0.16710422129202
0.200793428745437
0.156830100632144
0.157598187200965
0.156340288527891
0.171829044629789
0.152083191877937
0.172645527723643
0.140536908742036
0.179490914223998
0.186137726056033
0.190903238648621
0.167373704246542
0.177021331402914
0.183452959100826
0.170238542326302
0.217777931622778
0.201640300832496
0.207046781048374
0.188432946160081
0.206826112696305
0.192854640895097
0.193828315763003
0.212366474843689
0.216454890927324
0.216780264132034
0.206718712131187
0.218139604043329
0.212270392015976
0.223117857627714
0.217797225209167
0.216549282195063
0.216900216455396
0.225182438252167
0.363714275709407
0.2483894359455
0.251065693857857
0.224456292264871
0.235554296912927
0.246792854692256
0.228880334972437
0.278053786624789
0.251185765009654
0.247687206031592
0.230860412428027
0.24282911680515
0.238826117467531
0.235969571442281
0.238341507746941
0.227893044962873
0.247844476519956
0.218926304289553
0.277253143260372
0.267167371229434
0.262807097043715
0.232180792558686
0.238087676920768
0.222503275508643
0.23512713436066
0.216499584086161
0.234913522141514
0.232639350952332
0.229568206430802
0.22461930347994
0.210050017268983
0.234574567472323
0.225943879961206
0.225649012814736
0.212740364293095
0.211991367595295
0.218853685233723
0.187316156171475
0.214884969945199
0.237719444177447
0.211369608517829
0.199388597869341
0.1966400253802
0.195565223014406
0.197806992443942
0.187404660022694
0.193881137035162
0.187612613394732
0.188168120082677
0.18947107068979
0.184411708338551
0.184850071442465
0.177048359739532
0.186001678426776
0.174220617829247
0.18395214058372
0.17939031640121
0.176025745857895
0.16940127775275
0.17337601504049
0.169316320402238
0.170523029549175
0.170522397423195
0.17118127669968
0.161853144590174
0.17172025088722
0.161974428741814
0.163976322705602
0.160815915833125
0.165597209647707
0.159042649384227
0.158385643591008
0.154977273835901
0.160413994046397
0.148786745927093
0.155628527958935
0.149051925201734
0.155149974155675
0.147294901380103
0.154523569198927
0.145634733756374
0.136226435268534
0.18807684378643
0.15892960408316
0.158459829579212
0.136160515507423
0.150567175514368
0.136428844352045
0.133421847162867
0.161632153896421
0.151521314895998
0.144665890869039
0.139487031429758
0.130621945381649
0.145116077583194
0.135066197814723
0.138525531137752
0.134566730579594
0.111734394617969
0.162621387083141
0.119480699472757
0.214376025242839
0.156977271204975
0.162097422178154
0.113325839394824
0.153511393422777
0.140313206390062
0.135462128862596
0.121079256229584
0.114687725452883
0.134347122572576
0.123594191386281
0.128737462357126
0.116537687206532
0.108935552159109
0.130542351683331
0.140509561491013
0.119571474238029
0.134209406378226
0.124031685721609
0.117602937562802
0.128746452680881
0.176626598795195
0.142942896718215
0.122391062215775
0.123377597833299
0.106603731827854
0.122118809239858
0.135749662270448
0.12679771904182
0.126507510999111
0.111754775382026
0.119877743943979
0.109999422154864
0.136642176686374
0.104204692650888
0.129218059489268
0.130499669031948
0.118410342538726
0.121835025284646
0.112545855235601
0.154523973316879
0.140718936869922
0.135135315113659
0.102442211627607
0.145035564835855
0.13148998670808
0.133614841613318
0.129398115828588
0.1142063665656
0.124335828004596
0.136329147823586
0.119678303170907
0.133801821807737
0.123850367055899
0.142086532388028
0.135432481259661
0.170268941401009
0.16280625448479
0.135590311534774
0.129843562755217
0.129468496185673
0.132997371552381
0.134516759368789
0.114181711568665
0.158241820055485
0.127258794566179
0.152002559346077
0.148641522478981
0.154033511542573
0.144034516671666
0.145893267095314
0.139393127591558
0.152315736672574
0.164933006643819
0.188946227618312
0.150257813429487
0.169362403066939
0.162347740563798
0.175742345699706
0.162584343190274
0.176432012465522
0.168667746042974
0.178566069835852
0.178601282833958
0.192113103422158
0.182975086768435
0.200806684503174
0.17952317296208
0.230477010278575
0.210710075609751
0.215281487298828
0.220004653506408
0.227549753567696
0.255735682255668
0.240098276829652
0.241994434432036
0.241266108800841
0.247158898306942
0.254495908712096
0.24257148990452
0.268071914003039
0.27262498982312
0.27584106907641
0.26835612918887
0.275138459064056
0.275873075364047
0.27777520817776
0.297120737866385
0.280248412457203
0.343667357851365
0.306855333577812
0.320875538774866
0.293819835155291
0.298601621500698
0.307131649068426
0.302615478448762
0.306251976507156
0.293038819406008
0.310755512169834
0.328112184675629
0.309514798292348
0.307937884438576
0.303630393732298
0.30848995374564
0.312993539616936
0.313036376871733
0.314040544003725
0.307360765460005
0.327489781666207
0.3024106677842
0.319141613716698
0.371386877688082
0.339013726681154
0.331173165133362
0.324211692509167
0.345421453970897
0.330680465527854
0.331867806703371
0.349866020298779
0.353232411835142
0.346909926732854
0.344310895408091
0.349967441761249
0.341416921072198
0.358590855883052
0.3640950981779
0.355304273676876
0.36204900102426
0.331408548190051
0.392466457439983
0.36133713680013
0.377806015550185
0.361279662071304
0.374652348659192
0.360263198684973
0.367011163964978
0.355043738440315
0.362321824437994
0.355920396788497
0.361643444232461
0.359227915074584
0.35737058943326
0.363221664794895
0.349897997882954
0.356936180717227
0.362363042975438
0.355036797997236
0.349795196033339
0.347578929925029
0.345994493314269
0.337675274029841
0.362403366642437
0.347503729926006
0.352033179630511
0.333251776643389
0.339774724449744
0.355332238150105
0.345183833200873
0.336234928483152
0.33969752521491
0.330671720426331
0.343899415871259
0.329873891257745
0.349086881793015
0.351079304969022
0.361826544688088
0.350918499367426
0.3576747022901
0.350174366773565
0.358587410536443
0.359594310710086
0.363735067150056
0.363624318726342
0.375787013282716
0.376133656102486
0.373246559913456
0.380032342595401
0.387006152230112
0.392953796802819
0.396740294707476
0.38097756130851
0.387444435374191
0.383718662755498
0.395350118156072
0.390044913710498
0.397977413998405
0.380546213890358
0.39651424080668
0.380649286497363
0.393932055462005
0.402808124393979
0.394700111449516
0.39779162236419
0.385904146696316
0.390041563642282
0.38304608812394
0.389499877534255
0.378672487214698
0.381965031371373
0.376619565595137
0.376700912631239
0.374833696009198
0.372473736308088
0.372922336412874
0.371243302859868
0.374635538354347
0.372518727949035
0.366776664917581
0.365115142656248
0.368545338297263
0.365319728247993
0.361458867636958
0.363198682855205
0.359420058996032
0.371394165858021
0.370357389616758
0.377768779690471
0.363912299375962
0.374809711338142
0.361521116900323
0.370480133099732
0.359107920985223
0.366439406893772
0.361975439068388
0.365605734270988
0.357264196806447
0.358113086545886
0.357356461415591
0.356952139232569
0.357556884625493
0.348850686656108
0.347728495605034
0.347140787052425
0.344584252631238
0.343288897300812
0.344411547417802
0.342325624300365
0.344440488569417
0.339316148317183
0.341286444300364
0.332824385834608
0.337986477699214
0.333662048201902
0.336225191337442
0.338794613032101
0.330979751805389
0.329683543507948
0.328861061025022
0.329978566559393
0.33006718731245
0.328825464936359
0.326057846917429
0.328375535997128
0.323214672037464
0.324391169848042
0.322007150980114
0.321134264438185
0.322040134165478
0.316210458346261
0.313866946882119
0.313260497855263
0.310967876798989
0.302920814449527
0.302835630954329
0.301417671981751
0.299762094590782
0.29490264577168
0.295084551664322
0.293250668406041
0.290787647713488
0.289343158171902
0.288737679590976
0.285131743567748
0.287543582387759
0.28174844640321
0.281382998642898
0.281043678795489
0.283172648573801
0.282830847850339
0.283060902156533
0.279328325326045
0.281911429589268
0.280930699120594
0.285627671935628
0.284270291477421
0.284104952149972
0.282675268828209
0.284512189424328
0.287091045465119
0.288989890422739
0.286683133512061
0.289308165156878
0.28982619703099
0.287188309964655
0.293432723875508
0.293849103346241
0.295383644541661
0.29418015612428
0.293898009877413
0.295300019291014
0.300022496509861
0.298414468765504
0.298275722753692
0.296855312612638
0.297462050802148
0.297819083338728
0.296868778522135
0.295696781523842
0.296821373170505
0.296413332310648
0.297589927022793
0.297689059442316
0.294171679521004
0.295551841070729
0.29575899159768
0.293549703133615
0.291543141297023
0.293539821886498
0.293533010072387
0.293504792437371
0.293212943184102
0.293692349532497
0.290554535289727
0.288774371155109
0.291455879940669
0.287171301828949
0.28857530637202
0.287737188491606
0.287555020402124
0.286085348668197
0.284488520677551
0.283222827309841
0.280622133395291
0.280566814589863
0.277914910863177
0.275810222948193
0.276196521098784
0.273820605780433
0.27204668196735
0.268575455950461
0.267003659820943
0.264634611027965
0.263097311951815
0.259705422499484
0.259882765895903
0.259161244094108
0.254739541452375
0.255257715961813
0.252583961660695
0.251956740549655
0.250250406823461
0.251333010527298
0.250901973935534
0.250757873959503
0.248691638499408
0.251532826181515
0.25049020860227
0.249715849625395
0.251065322305479
0.24994547699313
0.251557163038279
0.250286013101113
0.250334233577667
0.250021480164138
0.250014517712441
0.248037649958098
0.246308118477435
0.243632276040556
0.241128328853132
0.239818761939137
0.236852035026913
0.232331905270065
0.228968375920161
0.226516204070483
0.221639648580594
0.219932863877123
0.215362259277792
0.212276866035255
0.209362212104853
0.206583625188716
0.205931333216388
0.203883479239565
0.205119325841703
0.207641027553767
0.20483370508168
0.21303361500141
0.215733491849278
0.216055216259327
0.218423073682151
0.226442721682001
0.234216107206511
0.241396504388111
0.248195895027622
0.262118269443672
0.269133984555793
0.278438771816911
0.289516916246122
0.301539973201356
0.31381202947392
0.32868070230017
0.344579683533905
0.35948331919667
0.378663075437411
0.396410340342329
0.41494438830972
0.432029490379231
0.452117339902034
0.470070789749171
0.491291421904486
0.508478698552324
0.529697229184659
0.548670607929298
0.562611872731372
0.580318175748684
0.591215185842919
0.601380771514138
0.610683121512761
0.624694150462641
0.631163895291422
0.630259524786036
0.634641220835879
0.637793649659301
0.632598087427699
0.634493107601907
0.628103112222036
0.619996017119758
0.612154633509701
0.60636845264711
0.600521312951974
0.593512583067789
0.58595691128939
0.58279907281156
0.578536637752952
0.565710769570843
0.564879251035773
0.560726043940984
0.558671845579792
0.565638978324862
0.559953895183173
0.562940482459106
0.562277990184064
0.565076208318311
0.572469105997887
0.573340887422725
0.582785766790998
0.585487962557074
0.590861379392287
0.598095307658091
0.605133080452401
0.613605648073469
0.618734905462487
0.622175976582887
0.625066602574233
0.630775038717136
0.630188925804226
0.643563873356219
0.644315691857006
0.648355141566675
0.650147743971366
0.657287530623688
0.658403231268393
0.662653811903016
0.66430224974835
0.663136297740731
0.667135166328016
0.678827420634683
0.682919323894939
0.682603930998997
0.68823921066352
0.689004244640318
0.692276559020622
0.695413905283018
0.70733838906981
0.705018103608825
0.698440588964263
0.704350996524471
0.702967251457084
0.708612037375281
0.705972438024914
0.719494051028016
0.721917294924686
0.73271018914635
0.732487370887511
0.7517234657682
0.758301895768032
0.780046881866052
0.801429587716042
0.817658977738043
0.839216521042878
0.86371200361054
0.905394180432789
0.919808955881383
0.928359458314013
0.962038108277932
0.983573555509574
1.00530397118423
1.03012063823337
1.04312183579349
1.03038171831851
1.04116015048838
1.04971887605574
1.04232757255152
1.05261243882951
1.02460337500494
1.02268123013909
1.00967618131437
1.00685380791828
0.982677091308777
0.991804716271224
0.969181703277096
0.958783150215965
0.972034351134015
0.96432730730262
0.971883111844117
0.967638894894346
0.988185273044744
1.00390595803681
1.01950163592666
1.01968843393259
1.01964282444191
1.05113868044219
1.06166182484663
1.07297481235334
1.08501270645208
1.09439618514481
1.08988900208387
1.13666988787623
1.13391824885075
1.16714090622186
1.19319963148676
1.20189649251416
1.23154441121303
1.20843064963345
1.26091313461605
1.24166344400132
1.30993324109532
1.30133639883878
1.33727279706136
1.31869218059716
1.3318773403459
1.40738391375897
1.38088477456928
1.39398053596809
1.42314508921359
1.42562082122831
1.43909842748213
1.48523639274673
1.50424989804808
1.45870927372757
1.4708039027119
1.49325788177746
1.55533120605681
1.53848516330498
1.64894919851515
1.5918685967098
1.74432578086155
1.57412549311003
1.75097473548393
1.6836949904776
1.58524361216729
1.61498220565299
1.73014544425581
1.62112835915589
1.77093498659934
1.6282455637232
1.60766124304059
1.5683106055947
1.58937960362813
1.52000452788622
1.54299050903294
1.57138918050336
1.45573050930021
1.47636290752163
1.50240938081397
1.45457468042762
1.49545059325542
1.36102144639956
1.40197872171594
1.43449371626468
1.40288315360157
1.37538802088668
1.39822529980651
1.39512536022119
1.31524958529935
1.32282988126424
1.30426379377884
1.29480137040418
1.30063992911617
1.27867221022644
1.26773662596156
1.21770639957141
1.2624225476334
1.22813999764676
1.23818223349184
1.1876262202438
1.131823402753
1.14312145614513
1.12477036694126
1.08868498826881
1.06312442099834
1.03906999496252
1.00503956409741
0.956479344821929
0.91776470064955
0.842580787330823
0.811999418321593
0.767378294080657
0.715283346558199
0.665004212952576
0.634456153617027
0.605975411553948
0.581104458495399
0.555190100437989
0.530348960024208
0.502060343895601
0.4801801628713
0.464897448646508
0.443026932998899
0.426704236841654
0.423201710552678
0.404703525065508
0.399250106658238
0.386616545538062
0.383686078965398
0.369383459639828
0.368910801380381
0.36300426940437
0.354311338106229
0.353023083535254
0.350947835452771
0.348729206295859
0.351736079977879
0.346218033549452
0.353095187425924
0.352966050474775
0.356754565829462
0.357514602022052
0.366601084492924
0.368758293454797
0.374823186500695
0.38043037012519
0.386671246323034
0.388261110181322
0.395240022043217
0.396749773029771
0.402044135519108
0.400784416580915
0.413181831035844
0.413163100268085
0.407687779354606
0.404894273367569
0.41437441793732
0.416728650906836
0.413185128454355
0.413275911722719
0.42284530214267
0.416065750728911
0.419503922503319
0.414931122580437
0.4200754939786
0.416992833584024
0.414315063268114
0.409687476523748
0.414894803753015
0.4126625327647
0.407087289823412
0.404741179640429
0.406647015502201
0.402042727248044
0.399451291770341
0.389031977714814
0.390660023629416
0.378727798896234
0.380231123915497
0.380173489248385
0.376070352808516
0.36920143517984
0.372647019904239
0.371115954887319
0.368520438836206
0.375647102680359
0.373207367616336
0.370357393768383
0.372880359987451
0.37394752421178
0.374918984992802
0.378067279684245
0.376424674535322
0.381807816737484
0.386159762361229
0.396656577946141
0.400680384534735
0.387503341611525
0.395337217140087
0.391828019566925
0.392803614827701
0.392199449115954
0.382618192526398
0.379190319642751
0.375916501184379
0.3657136105698
0.36476015512848
0.359402450115266
0.351316705470291
0.33581117530252
0.346652499372356
0.335349225555866
0.340804548840929
0.334781901856872
0.343418008039162
0.339592515384638
0.346087158109056
0.349902392199911
0.344412742302859
0.355026777468948
0.346477881906889
0.342893397164889
0.343146694517585
0.350422373614766
0.36122570142766
0.360453008377633
0.349932189166131
0.362274406369848
0.362567286145992
0.371371126781082
0.368292729223637
0.370377840533058
0.370226224564893
0.358041885908633
0.36632723858003
0.375725549977135
0.375322204125719
0.370525949047992
0.375748198407333
0.372850739443827
0.368432606011791
0.367238843300125
0.375056351225349
0.378005879871368
0.370400764036524
0.365153792624675
0.359567474247228
0.361062393331873
0.371908716291264
0.371925138792267
0.362670154042381
0.360676415681087
0.37750228146093
0.356485348361458
0.357008646443064
0.357984407032844
0.360644112500715
0.353814708531851
0.351988134814504
0.342658899367508
0.350905356217634
0.3366172454593
0.348101797553816
0.338700952982509
0.33674137834898
0.318909150743581
0.323771459932363
0.322561476567354
0.320006369361511
0.331920696590992
0.333644682923706
0.309087229549643
0.32136186503963
0.314837980803598
0.326400718542839
0.317712796584116
0.330612410388646
0.32666157903182
0.318128436400513
0.324333481202897
0.327291319116076
0.322882954415809
0.326373796234853
0.323934054207808
0.340771466751582
0.331588974899401
0.326412895110457
0.333753658514838
0.334889213951464
0.34610258706547
0.342392646538724
0.356214603296378
0.349915002034235
0.348111074001595
0.34914746072476
0.346470527026157
0.367700458849926
0.362229989050068
0.375245933432674
0.373728147616492
0.388386545971261
0.382344214261701
0.39341105355678
0.394965626143762
0.395776509380285
0.407666128438295
0.412142796354277
0.419330433694617
0.439660523526234
0.43926081615646
0.458384519182884
0.433546494071181
0.45816626234505
0.444815594330447
0.472857001425565
0.442747788769767
0.459669436461362
0.471645590816644
0.492412118354624
0.465534112958223
0.473370852866161
0.462164765863924
0.488469211450713
0.482268574673723
0.485523332364219
0.464161396142784
0.485439817872655
0.484578418667076
0.530066116699979
0.488883733896255
0.503743497859267
0.499184393128377
0.517370232204753
0.504033364980797
0.515187919892794
0.517930551174185
0.535735540638602
0.506561582743376
0.543536883082033
0.51246033831581
0.548572680573553
0.490287636064224
0.588372230940923
0.52234882821579
0.504185136014134
0.52522074921272
0.52463215467586
0.495262079566135
0.506228329078828
0.506405485598343
0.507523429894469
0.469638012749087
0.5270735868827
0.502184892540439
0.511391931344563
0.443771799189683
0.504284521427888
0.467451287355087
0.492498615603408
0.470617087095363
0.496120312270187
0.480894235967039
0.490815334259182
0.482626701984917
0.520579450149079
0.451795586510473
0.479082792595751
0.455741805768523
0.508113464636631
0.522410517826102
0.53160080292576
0.481259922963762
0.518448900097879
0.475068603117651
0.512688868896706
0.481929980312948
0.523104445766136
0.506971676199372
0.561645351013936
0.467231413837614
0.50787030873657
0.503656754655234
0.545031744578951
0.538391420714218
0.559712764774753
0.503907354666921
0.570043833515646
0.609623873330127
0.589654832334847
0.477211388447947
0.602014232558945
0.526115934343651
0.582840812114358
0.590683014568225
0.625774379129011
0.55408651973006
0.701470386672462
0.520810876440796
0.685058117114326
0.560804154789248
0.601740725815674
0.619806654454574
0.641612893062466
0.509997910099482
0.636504508417341
0.584522350916027
0.677964952215601
0.507237838571137
0.67043981827257
0.693475940512168
0.524138820021205
0.585803536012477
0.666469223308657
0.618463640690395
0.785134923506995
0.575859036673104
0.762384302872371
0.53376383071323
0.685349127563222
0.488690384970573
0.568866664982722
0.652339911581103
0.731762191472687
0.624944479895622
0.742309128095135
0.576931266668237
0.739614267729486
0.505576101671635
0.653228763052685
0.612374596983882
0.710307308406483
0.698875692256682
0.618474663400028
0.673285811465585
0.922630980287761
0.443068154292395
0.974235074152776
0.337365933614736
0.920389987725626
0.385850723943953
0.717707197545833
0.0268620386570454
0.649094261267718
0.477750449426382
0.660238963798624
0.475510134667944
1.18577888072839
0.549689035747247
0.941609325712619
0.65697007399484
0.405740577833108
0.760350236291222
0.919545691612318
0.24479314826479
0.681910975821728
0.386722782883764
0.737538501509693
0.675006143243771
5
0.0849783690952665
1.70486882565358
