3596
4000.36533379555
650.420452594757
1
2
2
0.0299136001862617
0.0357345514722935
0.0309176472374764
0.0259280675421783
0.0353659020597111
0.0311714450126459
0.0321147927157193
0.0288939925641479
0.0298053436804834
0.0323892567701031
0.0294648922619538
0.03143954974628
0.0337884101276441
0.0315467891040364
0.0326464426030039
0.0291721818119738
0.0336580625673419
0.0351023234027079
0.0291578025432372
0.0308130275697702
0.0326255610691841
0.0367013690502612
0.0339037442522368
0.0375079858383572
0.0316218205908057
0.0377999718344996
0.038458064697051
0.0295867184176239
0.0319943074391701
0.0369158050258772
0.0283476316820244
0.0305101052555123
0.0324963608109988
0.0256077093316914
0.0297641066886122
0.0285782367876704
0.0370336193341736
0.0284568722173662
0.0263644659133586
0.0333983470305173
0.0206492313924334
0.0231334902309439
0.0411450011406685
0.0283918730928358
0.031659304241359
0.0326213635272066
0.0366167274601207
0.0339713312277666
0.0210974240892614
0.027643675311075
0.0240682190498458
0.0349418747689757
0.0272708237407869
0.0296193751922188
0.0332057656962165
0.035725002258413
0.0387635239667327
0.0285213253597027
0.0289543491348498
0.0315925304519882
0.033685269305521
0.0340586798440131
0.0310147687176143
0.0261835476255919
0.0354702526838732
0.0303369258836382
0.0320902299435989
0.0308408411341783
0.0365550023148251
0.0309447201234167
0.0361740947248676
0.0215045823788594
0.0296357004410174
0.0273904311510735
0.0333498586356841
0.0352524154114428
0.0291682715792386
0.0356028416932588
0.0324403355432876
0.0241593426787166
0.0398175116148506
0.0254745640843567
0.0274831227712817
0.0254037344571033
0.0386989642348691
0.0246497419150306
0.0338886775814245
0.0234342339758487
0.0382538853970703
0.0291783877606973
0.0345057189695609
0.0281671290876696
0.0343954123887775
0.0215122031350325
0.0346197336577261
0.0237619043651734
0.0312729092126991
0.0211735128096751
0.0247658062998995
0.0265160319872899
0.0285877859824836
0.0428854142410799
0.0240169246713572
0.0344939048183644
0.0307550749020049
0.0320549973893851
0.0361394161421752
0.030918955858436
0.0378342706362126
0.0233234198962527
0.0346469844098243
0.0244845554261281
0.0321831090208631
0.0286591321327696
0.0349169405946864
0.0265385166389776
0.031843493967358
0.0281652226077488
0.0349428875531934
0.0223647341759293
0.0340886459115162
0.0277684629304886
0.0400432424668304
0.0308987270930645
0.0379342488292331
0.0299733586860917
0.0271869620004129
0.0203116875519995
0.0353644665468757
0.0308542764449755
0.0264334192098023
0.0264509503701399
0.0319745569058192
0.0305420599522753
0.0337444568413629
0.0381166026619041
0.029878146138255
0.0250435958391437
0.0235853389706936
0.0366684852019516
0.0315778500504968
0.0258934688680758
0.0277248452700362
0.031357262245734
0.0372861635548582
0.0282679714445342
0.0286197168142003
0.0203496285537085
0.0396817008224008
0.0306624043396281
0.0253395241412513
0.0265010752815888
0.0300678914001054
0.0203781618509229
0.0252008783016149
0.00950295822188613
0.0354006840321764
0.0458379481714464
0.0197424575121082
0.0418762622913006
0.0212607792329219
0.0371329134944224
0.0242174966369446
0.0300862068295194
0.0271267693810928
0.031045572746841
0.0309408645657762
0.0261490479702079
0.0265718984446455
0.0286631737764589
0.0294055368655253
0.0197530338888922
0.0366381772548445
0.0237644481337352
0.0391426824126563
0.0276359118548413
0.0267825380771366
0.0376556002659134
0.0322761486523003
0.035790715812195
0.0242556844491704
0.0365344628722594
0.0280096157401837
0.0305852762575138
0.032803792508218
0.0313734872935552
0.0356263963937147
0.0316168514594419
0.0253455883216125
0.0274103899878585
0.0260649023391237
0.028502217086712
0.0327444420841757
0.0320625270725565
0.0235378717220732
0.0325832702824328
0.0198724754787957
0.0366853660041752
0.0298308966057348
0.0258518208323831
0.0295938214659995
0.0264173633206273
0.0274613891481857
0.0345440450842251
0.0250991250068792
0.0369599030409248
0.0306506720310183
0.0394574031588192
0.0229764541918807
0.0262005562887049
0.0220577772019235
0.0325508330902961
0.0261367471016942
0.04350324706202
0.0349089002380087
0.0345724260536627
0.0310462275828703
0.035714527653256
0.0346031304360672
0.0286342909626217
0.0261320954117182
0.0271130450639811
0.025940629493778
0.0273060179341677
0.0279081212713654
0.0280273252810847
0.0340560479312954
0.0277210811852005
0.028611822381282
0.0280635180093075
0.0268173852330535
0.0296120132035746
0.0335284547987244
0.0271752316411596
0.0338256815849864
0.0301482447942314
0.0303756754783509
0.0298948251892318
0.0294544465141584
0.0306336250731461
0.0247218566586931
0.0286808994636538
0.0279740603690318
0.036622161400602
0.0239267469648101
0.0329313485844617
0.0228402206716269
0.0456134512532893
0.0284024949283887
0.0371312671636194
0.0310153694726653
0.0421138017867212
0.0265558717845277
0.0353097049368451
0.0292161873980237
0.0300743620639145
0.0323696699201158
0.0314021323639069
0.0289788981047726
0.0334618017729117
0.0221743349645333
0.0328973673865702
0.0297477683985621
0.0249894172491133
0.0367874111644233
0.0277937888167562
0.0327073651037443
0.0343873815141065
0.0264858403759496
0.042787627549762
0.0344504128963392
0.0330313726712623
0.013534327762947
0.0219181628708306
0.0522092877003298
0.0341088798189197
0.0357894102991323
0.0254834425976986
0.0362946593769356
0.0311827159455963
0.0376561189935492
0.0245659320860738
0.0428859797322175
0.0489846774863609
0.0249320597378887
0.0438698757775434
0.0245123581495701
0.0388668399766971
0.0338788886480037
0.0365709278403427
0.0326884095376543
0.0346122415157101
0.0351297302104824
0.0436586060746839
0.0390413788178742
0.0386354515665924
0.0436817908353364
0.033314370786955
0.0389765959707594
0.0401433503411143
0.034699652862313
0.0372249769241065
0.0435336626874193
0.0380721519793828
0.0412770482447432
0.038387512096593
0.0418489527883981
0.0397885959875066
0.0474703798871647
0.04479683779025
0.0447403914214566
0.0415060198303733
0.043952165067406
0.0433603635658808
0.0462636889236496
0.0419903383479146
0.0452749528717321
0.0460126028974372
0.0433168526211489
0.0466044889234537
0.0544437793413282
0.0411118605997647
0.0512203744049169
0.0451244094093408
0.050981791005632
0.0450741710195222
0.0539467704898295
0.0549131083699945
0.047183849158201
0.0520617178175526
0.0580973643622879
0.0489865590138771
0.05508525168707
0.0468992905053637
0.0621732802685621
0.0512777352615674
0.0589962849738166
0.0532559174303375
0.063004920224256
0.0698641635165792
0.0569586019405813
0.0631687137076896
0.0637820711182659
0.0604468857972511
0.0678591369590548
0.0595312065417993
0.0675276294579555
0.0877476047060798
0.0740253709457987
0.074062722620831
0.0621399137370339
0.0758446382502211
0.0598819989553096
0.0856749055275378
0.078191634556447
0.0793012571273899
0.0768091872522239
0.0735037808092963
0.0921731498222594
0.0792608497079676
0.0859150462649575
0.0836056279180544
0.0946347898816444
0.0802885443570025
0.0930834703363737
0.0922343744362527
0.0960149255574641
0.0945674154271468
0.10316901302427
0.107454175739234
0.104648872780098
0.100247570219461
0.120158801039965
0.098024126020181
0.128415448363061
0.116710559608759
0.128422735191943
0.113748214645446
0.122830897843026
0.128045394521025
0.127796317562969
0.124942261888715
0.132207554458443
0.13256615361885
0.133636795602028
0.135151612642836
0.143850198763949
0.149637512329041
0.148974780121799
0.148492895034173
0.151190410036765
0.157997223269352
0.152859144496511
0.172834185770468
0.162439038538285
0.170036011834302
0.16336253430812
0.181792015049123
0.170485147364333
0.178184230124721
0.170883201882395
0.182738234885329
0.181689300907823
0.18661428764561
0.194138421855065
0.192279204478633
0.20370802699852
0.195864764740454
0.20713111415571
0.205148247903583
0.203239918631216
0.199095908800467
0.205527578140602
0.216555312079953
0.224470104811963
0.222074920410305
0.221009476289134
0.225954336198386
0.219381099418102
0.243746013042404
0.235842299451195
0.241829992401109
0.245128244684241
0.234986915043305
0.24870408236663
0.251788872100161
0.259967213391921
0.252560497942058
0.26702173024169
0.263106553664388
0.274614545109127
0.280516879685404
0.275108428916505
0.287953921907791
0.281600409218932
0.285768950271456
0.288044024943795
0.300256935620974
0.297648072155571
0.309281528303827
0.302532641224503
0.315983908393872
0.315075042215063
0.31368755044348
0.314974900590775
0.330011189236295
0.325678099561299
0.329837581508594
0.327225602309528
0.337942796756318
0.339530357884789
0.343962583929571
0.348949901421939
0.345896854420263
0.357389143566247
0.364202729076125
0.371393453041445
0.366153890425528
0.369718575753883
0.373059237188908
0.379263198514945
0.384289218190013
0.396455733127749
0.407710945941452
0.374684460961895
0.39570808842777
0.386925533757208
0.39565288742199
0.41233572702456
0.399923281877744
0.427105907280032
0.43942829833905
0.421089277497971
0.417236090274604
0.421760168765672
0.431370383004896
0.431121353212806
0.429239206805324
0.447270754519373
0.462976857197611
0.458359624622342
0.464601381104345
0.448840578620328
0.448099909182672
0.446416363439571
0.485026793570197
0.491069595040146
0.495357993865392
0.478149082216413
0.506917598041867
0.495092004476686
0.48873709340118
0.490419502614661
0.491830196655029
0.497924821650877
0.518587025145112
0.510685022057158
0.540480084883642
0.514124328208343
0.521537982883119
0.523542889523764
0.526747113867094
0.543079546052466
0.554104966181538
0.544413798529471
0.578743340306618
0.574911562929613
0.560218832558925
0.551694881677521
0.586027808067791
0.583961446432395
0.618367855715405
0.566505311927667
0.592092933112829
0.604169530199293
0.61413862274537
0.569834872047256
0.617108627874841
0.614440590147961
0.611490133458048
0.599200957950486
0.622755008134627
0.612884609341652
0.599431443984974
0.620120891565556
0.68579587261831
0.646252009325402
0.673307237905853
0.626642822664182
0.626759309205838
0.651292290732758
0.647200995489776
0.645730260222113
0.651462059580274
0.645821747351185
0.696569947910188
0.625354377646658
0.68862214500065
0.689059070669988
0.702562710859087
0.684380972781446
0.69253747747181
0.666069690297033
0.712678852696488
0.695881794304401
0.728521488145714
0.715320639074329
0.730907939325298
0.708607105897161
0.717149944334815
0.739297768824871
0.755998770010185
0.71346252149276
0.744751626680226
0.73403072710392
0.753665798949084
0.71306765553719
0.746138511817037
0.749653951482616
0.791628785579779
0.763507428771502
0.79435569037271
0.780769856459059
0.819089255972032
0.785228060904107
0.773757661045636
0.755352973701577
0.766304516526531
0.7470124876633
0.756923835653322
0.789488507888124
0.859476072375972
0.842109894156746
0.83035322191584
0.815494615798948
0.852048310793082
0.816463468747383
0.85372866686344
0.816646142525051
0.908551028614854
0.85244680037612
0.841198541607203
0.863228619675538
0.910276695337892
0.829239594798797
0.880737835584337
0.862649957584753
0.888582313317427
0.886913870409497
0.897946199681963
0.869855574460335
0.944237358299433
0.886211639430598
0.952548961385433
0.898060023303654
0.912428153769264
0.874838183676738
0.946117759121326
0.899932709742651
0.91609955198555
0.930229686706069
0.911705779354044
0.889656136466985
0.900192143165698
0.89160199918669
0.956419713712185
0.935379542269219
1.00914692605637
0.889777646631724
0.967022773866268
0.94562206261762
0.997262215416134
1.00400647544107
1.0239831655067
1.02186049524699
0.986597703118466
0.968269745780842
1.00594907289908
0.965478890743944
1.03617334562163
0.950982948114719
0.979644050664158
0.999918180652851
1.03155025003055
0.992166568453531
1.03044449476915
0.97786318815041
1.01106948748676
0.973479419386258
1.02846051273919
1.04699253262951
1.09499812675338
0.97526344672298
1.09817588100301
1.02628436872836
1.13410412188328
1.05990479946448
1.02698378946884
0.956018395543564
1.0816095516617
1.01812574199663
1.01499256254615
0.987490531186548
1.07987612683635
1.07309431557822
1.10376553223928
1.0444775148966
1.06890885499274
1.09526168465071
1.20480490225608
1.07169295219378
1.12176609523073
1.07900341748423
1.12073766949773
1.08324165594138
1.14113188598331
1.12485770345442
1.2414791823697
1.06433748011126
1.17882562497694
1.12794791962753
1.13652665442782
1.05497663614625
1.19696578959229
1.15857065855223
1.19248989561852
1.20421201955845
1.18269729214528
1.11615615748727
1.1722764111181
1.08176481892414
1.18457459747032
1.12479724251881
1.16964377893824
1.1352938127211
1.22086042476326
1.17656979774002
1.18374290591725
1.11035837617855
1.21280024285839
1.20918519135743
1.15085032299008
1.18398893086813
1.16156402008848
1.09241829286738
1.17809422797453
1.17125830016584
1.22519952953145
1.11938339600264
1.19858553239858
1.16004071488214
1.20912335105839
1.13341854992105
1.18632493053978
1.14643461201138
1.19879230759853
1.17837421128349
1.20450361805559
1.1237512042821
1.24408729387632
1.152819563751
1.20503317216293
1.21360521184154
1.22350816828086
1.10276363058414
1.18250966820071
1.21787782957876
1.22862662636949
1.17223189968025
1.21704468105005
1.20321266181347
1.25085151589763
1.24316220085401
1.27108673234487
1.15494172893557
1.24468960571355
1.2118250078714
1.1611760060035
1.15849702492906
1.20155774702242
1.14515315646656
1.17968767151503
1.21554341687573
1.21520457579201
1.22465655351758
1.20300702767364
1.26033302329215
1.2010686906522
1.19521266337402
1.30110471212789
1.17476885317962
1.2133440595094
1.12964096989457
1.26666642347486
1.26092034771494
1.22494522820165
1.15209667461382
1.25363770717195
1.17110167179488
1.25066178540657
1.11200562104008
1.15774646383109
1.20320818448758
1.20421555393738
1.16606386398334
1.23625127146722
1.18944867987908
1.22154892897328
1.13776752159914
1.20442032719435
1.18128612473389
1.15432247592074
1.15104657572602
1.25966584306257
1.18537846715469
1.20451975062331
1.16783929190142
1.13137618176246
1.17889531762672
1.30317887607879
1.19478031884709
1.24329794179837
1.16885312560715
1.22103603069024
1.17629880723166
1.26779033000705
1.21230124598267
1.19699461351767
1.20651363428931
1.21444691744929
1.11684209689651
1.2106563388556
1.19781251754801
1.25516403718138
1.18883526012402
1.26142869706331
1.16789225104737
1.19717498672806
1.20993385973613
1.20262241960264
1.16030280455702
1.24942749831828
1.17519855313576
1.20081827340619
1.17292727656337
1.19971588432347
1.18588298691642
1.24252636106413
1.16404080851207
1.16374547932814
1.16928988668464
1.18443106116404
1.19607335622646
1.2256224090658
1.18861262869659
1.23292990613323
1.17082717625985
1.27076011511299
1.24195458975924
1.18516249154535
1.18593646343066
1.18292347383522
1.16401305254359
1.19413241934642
1.14444248641923
1.22763657170669
1.15899221385066
1.14503628154825
1.21075575954549
1.24844041849714
1.15051936069533
1.21639753108606
1.17862919272276
1.13610003104584
1.1444848002369
1.1640315300556
1.16775431518176
1.16863608327847
1.14419179060561
1.15790965508473
1.14024138168568
1.16175679987838
1.13197961777934
1.1752443531256
1.17544996522743
1.16665846853401
1.10483813318313
1.15161587066973
1.19826123101897
1.18588716032361
1.21083009294185
1.16533239418148
1.09841238764992
1.12144464964924
1.10732752717924
1.17867913104444
1.07358303872274
1.09848701650377
1.13307071465294
1.18083621524422
1.08532824593085
1.08855789410142
1.11176476919388
1.12631626689134
1.07683799135427
1.13148689388346
1.09588038505498
1.1095742399782
1.10749878884628
1.10075166076362
1.08185278197301
1.09948461232536
1.06000862118436
1.05299316992745
1.08232833559445
1.13826017547551
1.06459311221244
1.06342993907217
1.04704824505795
1.13693098561555
1.02839591447888
1.03839289256998
1.01833612130909
1.05591890701243
1.0463177743322
1.08702081236983
1.05834788922219
1.03610432557525
1.05574731011943
1.03223970300687
1.02049438936741
1.04511299803601
0.989827350727913
1.03475839931463
0.994729184814361
1.02621574486294
0.970625572799806
0.9971789027962
0.985846828012366
0.980081058114658
0.942278409625413
0.996340122630997
0.960369426569544
0.971183067647265
0.957442836191179
0.949492604850463
0.924833521107528
0.953685175234702
0.947379831354168
0.965881689613885
0.946860461278933
0.944419624576332
0.945108806100297
0.923038048809737
0.901050216963285
0.91330273088933
0.922117936614451
0.915161734759798
0.907182310759317
0.904675380228338
0.902896848347291
0.893224582311169
0.884701993228823
0.861075168422645
0.872703170954534
0.88450086163916
0.880638236471277
0.872434031453104
0.858863760284618
0.868828348144844
0.852077074094134
0.86838165013177
0.856687142811749
0.856673326594848
0.837176100748487
0.862900049179928
0.83942139612155
0.832607734720574
0.837056482299912
0.823950751175287
0.808104104526503
0.812855393536922
0.786078079531841
0.784197441106188
0.797303148046255
0.804687128300533
0.779961998827116
0.80080480104901
0.805079434892243
0.788816721386356
0.76807990494126
0.77373111597213
0.761401366869843
0.767117183860936
0.759705142176382
0.762329544547857
0.750132525735042
0.751194501928884
0.750645231329423
0.743597791093147
0.723921131035703
0.728999149439337
0.732246638320917
0.722723297205685
0.712760760107228
0.713424038010597
0.691049898444043
0.715729252318477
0.71079365537482
0.710214618992747
0.697311239260261
0.697111810193759
0.693508147810486
0.676959233188963
0.681792455283916
0.682418328126379
0.659490176063541
0.675841124626514
0.681464120321821
0.67051182481688
0.67994498394206
0.683516532364244
0.647862276164592
0.65195442345152
0.654303531185379
0.654458670446964
0.652488897977779
0.645965803017808
0.64302873852608
0.645243325811103
0.62731845804516
0.619865511160803
0.614094859596479
0.621710242745367
0.612123048386023
0.605586275748264
0.61325943540133
0.597685503100164
0.598457160838098
0.596620858731931
0.596021621218889
0.593788170332438
0.582828218809255
0.601383835122877
0.591802104319394
0.583478026199572
0.576742033602637
0.582316744958086
0.578384546290914
0.565454489379061
0.56781178859299
0.566279769634382
0.558228591714531
0.556479639350787
0.553309618281079
0.547719059445943
0.548483731052231
0.5509120701506
0.536885697159718
0.536833995519642
0.537041231532086
0.528439902985197
0.521684679928049
0.524443853917877
0.531694858523363
0.526220981705001
0.511865844998407
0.507173979322373
0.509100187258462
0.501964018796573
0.50613979557019
0.500560598686142
0.498641861029763
0.504957537280653
0.497933533139657
0.501717171768022
0.490340097309442
0.485526811120669
0.477994110968798
0.477404134937441
0.47767456538387
0.47860484870654
0.470268617696127
0.466638644393257
0.466883697849692
0.45872668033928
0.460599014990275
0.462757153523472
0.456259720089765
0.457006140524126
0.451540004350343
0.448478146343551
0.447545903212695
0.438724597960593
0.434335366835137
0.435306030168316
0.436474181908201
0.438165855360784
0.429676168286349
0.433816210338693
0.425876485966969
0.419004138059411
0.421803844664718
0.411527329840722
0.415585426914003
0.417519532118104
0.41164835803401
0.410656842893445
0.408614269102043
0.403694983579902
0.403967083346209
0.403522109019938
0.403758321745242
0.398792462992377
0.395098482005444
0.390912036602882
0.385532117645796
0.387756668447171
0.382688556762881
0.379385897455842
0.380911972567485
0.38845037532625
0.387601649204671
0.377359329277735
0.370719684195944
0.370065337067012
0.371968100376854
0.372186449567282
0.3666517924676
0.362259021366185
0.371264984462616
0.36991583084388
0.358028543238763
0.360397408328108
0.353625537230541
0.352028335434999
0.357919120622618
0.363390897600754
0.354391145360896
0.349244293688123
0.35858571650994
0.35485115923701
0.348683907806098
0.353147834574844
0.354493539644176
0.348719391370025
0.345194488456055
0.34758516950277
0.349736423382132
0.345023625787642
0.353826245458893
0.352879722568998
0.345339063494217
0.353098191483827
0.358010525609791
0.354253385275913
0.351317068979207
0.346215883737341
0.348757831267388
0.349126494484209
0.355017591063849
0.35659589453073
0.359666667177761
0.357892970726815
0.355634083909414
0.352299312663855
0.34837781360944
0.353048015403879
0.347630681214214
0.349727975735029
0.359784283221629
0.351617027969789
0.363949641489141
0.355668589767846
0.351289474597406
0.358270811760908
0.36320391516062
0.360631927281876
0.363727442755804
0.362234534121842
0.358974068486629
0.362873775722965
0.363335034304212
0.362035195296436
0.364744712233657
0.372116817363909
0.379540948936576
0.366432043100621
0.369248539029623
0.372094322612995
0.379385039982826
0.3857495874893
0.38680405663754
0.381015648712242
0.380522188513608
0.387881897868635
0.3833303266935
0.392311524376118
0.396446527002421
0.398854345781769
0.390671211114052
0.394536187975159
0.405184752005227
0.401559049555635
0.40588495527014
0.405191430254445
0.399463680194344
0.405205749225575
0.396372451346573
0.407969926422747
0.410394842719716
0.39747147753737
0.39888280997871
0.394134026676553
0.395179733720539
0.395824630220453
0.392044530977785
0.393142933769543
0.392959210196585
0.392650731703091
0.397778959130266
0.395203184443232
0.395818155891328
0.395351847300305
0.388920421513201
0.390876799389854
0.390866892524151
0.384888599493432
0.390102797278876
0.393443735667905
0.394118420765464
0.389967936285766
0.387356548019629
0.381628963994945
0.387045087729387
0.386847473828679
0.385678375769032
0.386943712590995
0.389870475549058
0.386320256169672
0.39090067105212
0.386567221326175
0.387213483141851
0.383142222539
0.381902433331243
0.391768355186962
0.393836785409224
0.389864776472484
0.381721446435263
0.383560548385364
0.384514238794198
0.377258778877197
0.387734429808095
0.383791966143746
0.376931268890367
0.385283755465763
0.384561359958306
0.379118819805766
0.380567882030914
0.384716088153422
0.383681138896489
0.377449467392095
0.374185254823455
0.376070165962684
0.375057835197098
0.376563784312026
0.375154307527147
0.368907075680637
0.370812652462089
0.366249844385631
0.366840571535049
0.367962646315071
0.363049703491092
0.362984882140037
0.363416226190849
0.35814521610642
0.346400232297114
0.350014261544128
0.356822240072948
0.348193663317425
0.348504616130989
0.347231267809663
0.339366323517337
0.340510221508821
0.33743249656101
0.33113494118659
0.335061148146913
0.330810818265045
0.32636374404254
0.326214259962474
0.324068924900407
0.326128449648861
0.319378697149305
0.313634242164425
0.309830853769134
0.308051131490422
0.307747922448426
0.30513172100525
0.304682963247609
0.301913317447066
0.292861986543073
0.301791524375552
0.298711192899297
0.291460740914922
0.29237238492193
0.291378908220206
0.288859055869245
0.281389581280663
0.28251262690521
0.285909973094161
0.282542741914984
0.277487641548503
0.276614911180864
0.27571142132614
0.274116812790411
0.276722000339042
0.275391912279734
0.266833529110598
0.26391611751511
0.268354952738009
0.269819274983673
0.267610598796469
0.261643402537039
0.26175348719134
0.259537448579282
0.2581972419522
0.25692442194436
0.253092083168212
0.254614087972946
0.248106027142881
0.243033457297249
0.25114126567902
0.253014232527201
0.251062931118912
0.252297367223904
0.248538881376121
0.248231632487505
0.24469782904475
0.242067101449907
0.24631066357986
0.240070996951968
0.24069929336103
0.244996407409736
0.237924028135045
0.237862320267275
0.234151126280795
0.232327154927795
0.233750034486656
0.232592263424847
0.227408605321749
0.230289466360013
0.230079780558856
0.233005123079031
0.228618468139513
0.227925284126683
0.227967654947501
0.229247228331428
0.228406018460956
0.224133318927933
0.22364520893621
0.225208677711693
0.220731642782514
0.221294100621707
0.219992592381797
0.213303794497625
0.214937461955981
0.215952195283215
0.220321927946702
0.216431001176582
0.214595127346521
0.217211754732341
0.216276405314486
0.217075116894184
0.212312439367407
0.211123120520018
0.206715775549912
0.209695164377054
0.209613866641201
0.206421281440457
0.20945739451622
0.206894266970902
0.206405281323015
0.207525760252457
0.204888963916028
0.20433570829708
0.201721062599295
0.199417461225486
0.201754254493355
0.204648595790839
0.203442330962109
0.20404262727235
0.199687640925723
0.202260461734145
0.193759142962915
0.201761797205404
0.196617140814379
0.195900929412321
0.193948147860094
0.19517190873055
0.196661826734702
0.19651484782124
0.19330391006618
0.196454075045356
0.195391943076687
0.198426395050034
0.192770153624143
0.194406667372867
0.189498378249685
0.193756329631162
0.191115480473608
0.192576892434073
0.189046491039735
0.19000774656446
0.188596023233997
0.185397801241359
0.186781153267625
0.189099980674142
0.184842544164852
0.1874247092418
0.187302152547962
0.188617287874264
0.183757514119971
0.183715732165325
0.185332068477817
0.184536249358112
0.18379701569115
0.183877662810607
0.184437572545253
0.187892954736782
0.181311288374401
0.178168177077972
0.178445167527749
0.182050453280249
0.182979273203223
0.181788064099421
0.183204142454094
0.183087179276546
0.177650076221033
0.178830058579066
0.17418032954061
0.177033476409416
0.177222813221036
0.176734713379331
0.176749923080325
0.176356108561268
0.17433587814399
0.174862715020069
0.174452944415752
0.172033995779195
0.172682605328709
0.173056879862241
0.168331953232974
0.17374853211367
0.169482249897934
0.169614109391839
0.168814380585977
0.17120911950308
0.166743266611061
0.167801056777858
0.165557272898967
0.165314942547032
0.162194179729987
0.169591004306982
0.168362177443869
0.165520092250483
0.163245653195575
0.165115281239218
0.164756653212294
0.163988891760036
0.158382182786978
0.159914456371494
0.161376607086367
0.15742957162081
0.154835349182235
0.159219657494988
0.156540941103222
0.157479497741347
0.155771931551053
0.157981123645749
0.154963284538384
0.15629599384505
0.153783521198033
0.152700397409711
0.149505027946456
0.150065903335003
0.147656805223615
0.144957359481617
0.148043032760445
0.148937488504727
0.146924517158426
0.149553593689183
0.146607631405672
0.147793698825871
0.144903596997996
0.146568335522644
0.145323760063038
0.144645188091023
0.143267688309552
0.145513467850053
0.145541421518626
0.144738771587653
0.139480940370474
0.141731471022303
0.139998623111006
0.140219555167999
0.141600181583062
0.141124131149707
0.136238872596402
0.136227982305735
0.134618192755573
0.134512786184567
0.134072431437359
0.132984571206508
0.131109168577422
0.131933441177097
0.13030378830209
0.131794332113546
0.12937549490326
0.130606831918574
0.129657450585575
0.130314663371973
0.129081731251645
0.132209827859634
0.12792299426294
0.123171643534484
0.12439635602542
0.124144360426666
0.120450462910095
0.125578258384047
0.124398303402557
0.120388761523715
0.121003874985576
0.120314951442575
0.119172186078686
0.122280013536742
0.115686129648773
0.118633982090019
0.120909068384247
0.117458722367565
0.117234799502244
0.117246845093197
0.116775515326741
0.118164388680483
0.11340643598882
0.114030674462725
0.116932961320889
0.112482975997213
0.11428931918719
0.115033404222618
0.108711120915697
0.111284681680427
0.11624297459854
0.11348289197077
0.108953149550149
0.112464951491704
0.110601981806395
0.11022636317575
0.111226592813783
0.111166218379778
0.108002803377373
0.109646207020022
0.107748146842396
0.105902907754619
0.107087399724914
0.107412508744234
0.108258590558557
0.106689115610833
0.102372966652329
0.103484701137677
0.104907388154844
0.10633800282305
0.107968227785201
0.106041959074034
0.106283700268042
0.107212658031427
0.10520502310968
0.104554641239204
0.10038243247456
0.102088401553134
0.105033412229635
0.102982263903422
0.101364813307165
0.102380758118414
0.0996953834871751
0.100531864500578
0.102422228281133
0.101009287764893
0.100101625569228
0.099592592637992
0.0980491497811807
0.100196947466876
0.097820709262416
0.101529823017763
0.0988749277939052
0.10236074887455
0.101658942471846
0.098458581816764
0.0982135381891892
0.0997926171507558
0.0985231106277498
0.0992124756379113
0.0990238861912376
0.098049722916889
0.0968757312925926
0.0979419675311762
0.0962482703250046
0.0953809524581436
0.0974663206483147
0.0951328803240401
0.0969928056797474
0.0991321186912231
0.0948604044989203
0.0966326142708482
0.096525494462641
0.0952158594010358
0.0927472712733607
0.0937869423965688
0.0931327509853872
0.0969072199389839
0.0945666101226279
0.0985942405561287
0.0969955093403706
0.0942685915929467
0.0907172341483443
0.0943772810634417
0.0948071770711828
0.0959560105790735
0.0939216082217667
0.0904786200969038
0.0920801235820761
0.0929321010420186
0.0908301346045517
0.0932777838988621
0.0929037643776906
0.0912855326619031
0.0921660299477296
0.0905239570175527
0.0889381898515601
0.0910847295656236
0.0897162309146898
0.0905115524944849
0.0907344119031675
0.0915295469392263
0.0870514831417457
0.0918305853890508
0.0916414257783602
0.089347791622733
0.0883265081637519
0.0886336096184794
0.0875594059135221
0.0872577206536063
0.0885075936099082
0.0857112366820955
0.0875826288558347
0.0880528468739733
0.0849346169931352
0.0899872835957916
0.0849592920513347
0.0869041188732858
0.0872668035312123
0.0847964037119661
0.0872726982638371
0.0868557549137305
0.0844395611153904
0.086564624359527
0.0856183907497542
0.0845554714175054
0.0851954620998752
0.0863363391889175
0.0845267600855365
0.0863477191513279
0.0837070819566713
0.0834197139820261
0.0840407833586924
0.0850678227064948
0.0872726105537779
0.0858054545225216
0.0826317528259845
0.0834494708632239
0.0845471490758345
0.0850499956806356
0.0820115947450835
0.0824580082722782
0.0851454075211874
0.0810398317179099
0.0823774033762971
0.0809312486118135
0.0806729621640481
0.0798797102473921
0.0792038659258528
0.08280998687557
0.0853063374234757
0.0848452702706368
0.0828305762525784
0.0809794801647258
0.0792868537346415
0.0808970022703383
0.079989362920203
0.0802738875890731
0.0794871187977622
0.0757549124217711
0.0744373886496471
0.0769184964019945
0.0795778876344931
0.0770723382051004
0.0754246801898792
0.0765151989043624
0.0754773486779799
0.073760269706122
0.0734880261903299
0.0758215518117037
0.0768768065220606
0.0744288467753006
0.0777642567203397
0.0781473369649843
0.0754296010210054
0.0756745042071127
0.0733815693211682
0.0729097912733787
0.0739358334410783
0.0761009179104078
0.074603818687114
0.0734184320214094
0.0739374166755415
0.0720263434198636
0.0711404646417004
0.0724221945120598
0.0721149708364399
0.0735602220471027
0.0716701103942181
0.0734954088062014
0.0735269342852913
0.0715706480663725
0.0728219829515292
0.0731507675662612
0.0721406366165469
0.070991484450528
0.0703278106809696
0.0701224688299567
0.0709330550752693
0.0724385689806175
0.072564857198023
0.0702989919632017
0.069732993407261
0.0689959298469372
0.0700605877165718
0.0702150132772975
0.0704238127754521
0.0697147954549159
0.0707261061820917
0.0698458503076083
0.069165915811814
0.0685992120491386
0.0669143139879834
0.0700595698048665
0.0697456692455161
0.0678079807878913
0.0683955598055389
0.0704753478988018
0.0683406376311134
0.0679842652080676
0.0660483147880501
0.0660066948617129
0.0661349704417096
0.0679431077786979
0.0692640915858385
0.067455188153328
0.0660956281338998
0.068051964767974
0.0659814320879337
0.0653379011658728
0.0664720769535196
0.0671554865505851
0.0669241324229031
0.0659589705906569
0.0695678332483842
0.0672822154428015
0.0647294335524493
0.0664401876454946
0.0668933434472898
0.0663896112106245
0.0662927163568587
0.0664477381478981
0.0658842094795261
0.0657313015299092
0.0676330109864164
0.0661693266485784
0.0661529132466055
0.063575986025442
0.0650980980199412
0.06514726513074
0.0666644909626891
0.0663024835284207
0.0654064575144302
0.0653764648324574
0.0660818789052543
0.0651390355273311
0.0666394248641087
0.0652278241393114
0.0671975275231644
0.0647672724897725
0.0664196416682135
0.0613770099690525
0.0646878313953051
0.0675242988235699
0.0635851571848848
0.0627385056987323
0.0626869027344248
0.0633116568922779
0.0645154340433051
0.0640960200311509
0.0650081495797396
0.0605294145294403
0.0644208946715148
0.0629886223870754
0.064240697767297
0.0654644617897533
0.0674514387340844
0.065663680546228
0.0653979654641557
0.0578524800660776
0.0609093280596713
0.0606433217240872
0.0640643555889533
0.0567252296050061
0.0635873506171752
0.0595150711406753
0.0651892108787669
0.0653520976714186
0.0680578239278833
0.0629439065166136
0.0692696296689671
0.0605388567814814
0.0668798942272375
0.0597021900618406
0.0668515186783774
0.0601673847460864
0.0666650164399748
0.0601300238574408
0.066048305275046
0.0635631860577802
0.0657475413923553
0.060454138399477
0.0688185018198079
0.0615896101362877
0.0693580250533694
0.0610960889988903
0.0671132513026298
0.0617043571989878
0.064675993965443
0.0622274946386174
0.0622248334388965
0.0644829440242126
0.0625972894276124
0.0643023995134775
0.0617032475688482
0.0673752024801806
0.0568430835072971
0.0731811493066697
0.0564362546688808
0.0709544459679139
0.0497007004052865
0.0784453045065273
0.0524314692569261
0.0821758442014919
0.0472628784735246
0.082991522471538
0.0514916924069044
0.0785919866177033
0.0550489988200659
0.07590799765379
0.0566012198196526
0.0726856755201024
0.0603724093674851
0.0650141747962919
0.066314960068518
0.0656792410341318
0.0652519515058063
0.0656615688088521
0.0637077023156473
0.0662030469602896
0.0658809287322429
0.0687402322451277
0.0620795105945105
0.0687423756400865
0.0640258062910632
0.0705113120832085
0.0664696530007651
0.0671739662524934
0.0646702821890338
0.0664971771668439
0.065020081374435
0.0689435716258126
0.0622788629527129
0.0684342689560644
0.0664881814782643
0.0678928204131441
0.0657721388214211
0.07045762988484
0.0658535277067732
0.0693297380937142
0.0678046041224731
0.0692808338537469
0.0664352498731699
0.0692861731005766
0.0666245222308502
0.0706195569669776
0.0695465236082285
0.0699329976778952
0.0660883485296586
0.0690823236500061
0.0655327014595351
0.0683613007401253
0.0674162150681935
0.0714629690758796
0.0701348692943442
0.072715384305616
0.0657052830389838
0.0702682241715654
0.0695462558475707
0.0693026095281212
0.0683902570578358
0.0710501252827955
0.0689561412468339
0.0691597671466978
0.0699646703124588
0.0724748205432647
0.0664007786444234
0.0684932463194736
0.0688506121231191
0.0736515484726098
0.0686504563409125
0.0729899553786088
0.0717448638146004
0.07061540334566
0.0682785808065852
0.0721691576243168
0.0701785872558676
0.07030105469595
0.0707559019476284
0.0743349508630748
0.0719172421283507
0.0758772867714713
0.0729166738319786
0.0728990070997464
0.0689188431826321
0.070794201553293
0.0727223104768754
0.0741824179305105
0.0732553548107958
0.0758795086742176
0.0713721036026193
0.0730411564664436
0.0744907102521215
0.0751264894133627
0.0720201655468829
0.0727729369717832
0.0738184146207816
0.0751628017474081
0.0724876922608187
0.0752336663761305
0.0719938875637229
0.0742183157484971
0.0732173200571997
0.0737070667728514
0.0720187714834791
0.0738729282361768
0.0747810999618506
0.0778174600877553
0.0738882426112915
0.0767392421333486
0.0757887298283888
0.0759678431294919
0.0736219473848668
0.0779012643330516
0.0754303762623972
0.0756817461434919
0.0771158870718927
0.078532303291247
0.0756415089464948
0.0779060702959584
0.078659490633206
0.0806561117373965
0.0750594480769305
0.077132014411444
0.078015881794734
0.0797752668290418
0.0792728523888132
0.0798717848093305
0.0761584868027419
0.0777872952864714
0.0788630938910955
0.0821397148535565
0.0776072225397151
0.0792787900705621
0.0794626282709045
0.0803661110991745
0.0804613026059189
0.0797410128876259
0.0775490647500845
0.0822848796385621
0.0801758859486509
0.079172340388328
0.0792725730393145
0.0829468474594303
0.0803883165227767
0.0788608880987416
0.0784788738487918
0.0808054329947437
0.0787239363103374
0.0814368175789926
0.0810468733465885
0.083249201788913
0.0835968253115208
0.0811162740806597
0.0801601782803887
0.0840321819625278
0.0810051203087321
0.0829883510651664
0.0827482474212179
0.0836040526199784
0.0839912628100078
0.0822057923184697
0.0809163284009435
0.0824933577024294
0.0810430494765403
0.0855451329131668
0.0833692901356725
0.0815720610859273
0.0807352681496107
0.0861707110759781
0.0841078763628984
0.0837797043214675
0.0836561346712384
0.0830055686130702
0.0829064678856185
0.08546799306043
0.0851845824596472
0.0840171687576864
0.0826566431407798
0.0851685256181712
0.0848685739655896
0.0845293331413179
0.0834381528750934
0.0860797646372232
0.085058058024202
0.0859596258077217
0.083731478167406
0.085377326974038
0.082669197282236
0.0853036000172947
0.0856533548289855
0.0864285188495261
0.0846407610225545
0.0842483210328543
0.0837170165155269
0.0851332669803204
0.0853916318133982
0.0852610089515206
0.0836959102838886
0.0845886941257402
0.0847968568144193
0.0839469612823387
0.0830998123397035
0.0856467322092792
0.0840919888436355
0.0812282988826874
0.0819178603802675
0.0850013695584022
0.0830658270033178
0.0835716799842826
0.081777657000433
0.0845214465667591
0.0834201444733659
0.0847708759910061
0.0822652077524978
0.0826544744047732
0.0810525121064999
0.0824382751819943
0.0821804353122612
0.0824255623756715
0.0849886121562569
0.0846172555406609
0.0807720498427939
0.0836113293172948
0.0837574330618786
0.0833834480394492
0.0812762276601582
0.0840922194125394
0.0812242767924406
0.0835705009331548
0.0849042352142078
0.0821795409010044
0.0819796062370558
0.0852111913693913
0.082580038498868
0.080899943513156
0.0818115843737469
0.0817238589730471
0.0816006762792127
0.0830937369997077
0.0813150966909758
0.0806011009547841
0.0789210557424294
0.0793987375970952
0.0801167099429472
0.0840419075565574
0.0804749959201654
0.0809222838236434
0.0810640967088044
0.0825857223486763
0.0798379184137752
0.0798431794556625
0.0795526242051514
0.0808129437734203
0.08003673739643
0.0807330376341345
0.079325623629685
0.0799193502745699
0.0789326434872612
0.0786798143185135
0.0760093265096352
0.0798132356996197
0.0782597700437869
0.0795408539688876
0.0794332095988273
0.0768389062933569
0.0792952047453393
0.0803011428241749
0.0769374394980353
0.0787855665177857
0.0760345288685077
0.0788254952361467
0.0779980101132886
0.0792347263801246
0.0774680143110537
0.076604052849873
0.0768561790040504
0.0775594414242121
0.0770395632144666
0.0789336497789721
0.0761107924478897
0.0748867265041952
0.0749454420178455
0.0766592644656524
0.076273909426102
0.0774435611123045
0.0773368010761247
0.0758856326223795
0.076584950606444
0.0782935054772911
0.0744437318882154
0.0759772392922567
0.0736906830284818
0.0750520808054984
0.0742719284973223
0.0728675548086017
0.0732684762034572
0.0746893762259049
0.0750499009922817
0.0738302660846294
0.0730062791233065
0.0749398494821694
0.0720645387915126
0.0727749033166561
0.0719392423368254
0.0718059622814257
0.0708388597817543
0.0742862064916082
0.0748020591638462
0.0727361426344958
0.0711033001173906
0.0723868989561423
0.0724438727324754
0.072001287844675
0.0709060382572601
0.0721444359375677
0.071430648232038
0.0700632213642999
0.0679766742551361
0.0709929690065151
0.0663899160707992
0.0683918588928148
0.0692883757205485
0.069421595890346
0.0674503480834819
0.0700003051108663
0.0656414105300812
0.0688140788830161
0.0695526513830511
0.0679896598671802
0.0657050637888025
0.0661055077383577
0.0688794227365535
0.0675511959390031
0.0655802855288281
0.0651421452113337
0.0624441780945618
0.0662075955470302
0.0660224692725935
0.0662307384404902
0.06471405825867
0.0663131010584838
0.0644880336930638
0.0636355986729421
0.0631818521010516
0.0629784705301771
0.0635493754435991
0.0632749032158414
0.0620541729837446
0.0640206956547028
0.0647428690474769
0.0635049999534564
0.061546989790052
0.0622604847111132
0.0624851613132792
0.0597514200115718
0.0646711913107718
0.0640321622934316
0.0621070950307257
0.0609584496563374
0.0623721532264398
0.0618630805534461
0.0595148141734377
0.0636523507622093
0.0639801074760559
0.0601656818380638
0.0588200831467214
0.0609768668422378
0.0607087994608502
0.0606718349163365
0.06153698872967
0.0610824413152645
0.0592460278450025
0.0600197185542682
0.0598559248474492
0.0600597828893102
0.0605529134077904
0.0596565040184405
0.0592099850157051
0.0567741116625037
0.059569617563022
0.0617152180331735
0.0577645512494259
0.0577995318883863
0.0582437773543829
0.0599211996131291
0.0592550974068485
0.0608826865478035
0.0573798168987502
0.0597366856822557
0.0582721652241783
0.057021103632844
0.0570751581935893
0.0565551589610823
0.0575494906880321
0.0600474941684018
0.0570878672291145
0.0577350026728148
0.0577040463151665
0.0560849064414127
0.0556638683511024
0.0575400004944317
0.0556007881926312
0.0553259380613788
0.0552393321508371
0.0591418872281481
0.053880994572772
0.0599750536702402
0.0560273256407145
0.0557854262070955
0.0546114972911896
0.0567104312902828
0.0545700240035745
0.056095102663929
0.0553828986988108
0.0554932174719592
0.0534044605474255
0.0556847183507645
0.052856286172965
0.0553118745003454
0.0552255347598681
0.0545236218687905
0.0542600300151633
0.0559418175645963
0.0530125435275063
0.0560103113801031
0.0546120139288525
0.0560324938987643
0.0557890406215972
0.0559460113563402
0.0552719714664969
0.0576348488319594
0.0517612536348565
0.0608666260127478
0.054977768853723
0.0544034841515209
0.0570448567821131
0.05305301498918
0.0541245137863685
0.0558279994844942
0.0557061004976591
0.052042227301467
0.0565450539119167
0.0545129490323207
0.0549092193048784
0.0530162549038373
0.0540251557806202
0.0553228352245393
0.0541979562264493
0.0528164849591618
0.0535783692446758
0.0555807445365695
0.0542146002673069
0.0535200766851236
0.0534594953240291
0.0537760226065652
0.0556528509422027
0.053797214991564
0.0536990817257744
0.0538738915349041
0.05395480031694
0.0547483397150327
0.05516024333719
0.0535095771293125
0.0609577442025313
0.0534574675336687
0.0556908883698696
0.0556163881355967
0.0540553776629252
0.0532797381531127
0.0560210928206732
0.0558089776855401
0.0548068682400004
0.0553326747759347
0.0554869321222138
0.054939963477811
0.0520174401548806
0.0523168502004181
0.0541444863748696
0.0516108769097898
0.049975379856823
0.0559806074998936
0.051981304952324
0.0543708495456883
0.0525976857689255
0.0550652249477626
0.0548385575792139
0.0539171082896012
0.0574086808240124
0.0533764979810622
0.0550542591080366
0.0546542187503758
0.0555819249354812
0.0536505660628904
0.0565724219413285
0.0538998435250931
0.056434493751656
0.054619597939014
0.0573651847280325
0.0538767699743604
0.0563658419685612
0.0551297720823652
0.0567544415578237
0.0530895135883764
0.0561458968716123
0.0552945150959378
0.0568492885029511
0.0500020542905575
0.0574086941042695
0.0539534959828635
0.0565031228501047
0.0505021128457024
0.0590544102384818
0.0640398824422879
0.0531118142993002
0.0604242725351559
0.0527628147017419
0.0573873316187023
0.0560758328693359
0.0579521457936878
0.057293966242914
0.0576427777099959
0.0568033958154278
0.0583931860356741
0.0538931343910978
0.056159394339943
0.0558216132539091
0.0562688303118547
0.0636791145436524
0.0576049409849526
0.0582407442912759
0.0576463562582816
0.0540172472621601
0.0663609320803385
0.056903253256861
0.0581202092565828
0.0593155615597118
0.0612084768452659
0.0575792108003465
0.0580554975827053
0.0586144520549536
0.0594123516195557
0.0604000643547035
0.0589281641618591
0.0623793310902601
0.0609579078509773
0.0618099786497214
0.060708325730988
0.063025305099766
0.0676419158599879
0.0607703875281093
0.0612856723812931
0.0621058113598958
0.0602997942435378
0.0620227297531571
0.064099979035583
0.0626248520943136
0.0599269882079226
0.0660331993552168
0.061571490901525
0.0624674246101774
0.0655501810860426
0.0616981571112575
0.0641922228741109
0.0629428455208936
0.0683297221158734
0.063458024879608
0.0604275353435957
0.0761700810274835
0.0618497749446007
0.0731431974449904
0.0629120410317322
0.0690001221769732
0.063867490622168
0.0701794008935155
0.0614528293818623
0.0725069715655681
0.0651977281934098
0.06874551469882
0.0654768300600536
0.0692321375817284
0.0727054441465407
0.068372293482152
0.069627400948149
0.0701796909228141
0.0715178456773172
0.0751225611983352
0.0761000070094066
0.0652781860278834
0.0767114268448944
0.071998252389352
0.0758691899111521
0.0747884450136847
0.0658366511801377
0.0831592313214228
0.0731523959910529
0.0748915723825998
0.0755474923679488
0.0716052981811517
0.0733886015660333
0.0728764084425418
0.0871067492663509
0.0780504725632138
0.0759894768714949
0.0811796417837809
0.0756472129605606
0.085417825608193
0.0813616044636153
0.0835015711390274
0.0814691474939247
0.0863486763779923
0.076095854079622
0.0893952989135956
0.0860849320179695
0.0825927591758662
0.0941441997028171
0.0833484252315636
0.0937117817411867
0.0867547071276844
0.0904108424782075
0.0884294943825954
0.0947590714509116
0.0908920653978044
0.0917512851281814
0.0915486266706527
0.102557001629093
0.0903351955920791
0.0997709018423385
0.0971475694262753
0.0957102965085254
0.0984603196712288
0.117165889803693
0.103963451923025
0.107637169968542
0.103417323375319
0.115335722898064
0.107205197761899
0.111089787965919
0.110295469591383
0.112780894453224
0.113548276464336
0.112674373392495
0.118125960168875
0.117204720232809
0.118999629249575
0.121970073058242
0.118124417957104
0.127384094900789
0.124064402720601
0.143272784877135
0.1220296159902
0.142021951294603
0.134556684674786
0.136827405827403
0.134077825891127
0.135869696152723
0.141338787315402
0.145074279215252
0.145260418573241
0.14792262567388
0.15535117432526
0.155131692949752
0.151363592097578
0.169093236591184
0.156009240905999
0.166818734585372
0.142931944305373
0.229915774906196
0.171840296564857
0.186914753312583
0.18292435881183
0.173623206033071
0.209245282973029
0.198859911315981
0.194025981730815
0.203256290617818
0.203905751186666
0.210861419661474
0.214638657458529
0.223157134020138
0.22700597345176
0.23628517690995
0.230670413829234
0.245184727070995
0.262347356562167
0.263717632711391
0.269345485307878
0.267421208841161
0.274059129385293
0.286666529819185
0.282024179577484
0.293651946676369
0.295306784507586
0.290780031185616
0.330760309693743
0.305627430626643
0.320628500677254
0.32073898211245
0.346975380798806
0.327003242075196
0.36260411222885
0.361004977919088
0.356746438920013
0.365395574923104
0.364586756392027
0.371729605193768
0.36981750251115
0.399961549834255
0.391338515092891
0.397316661556364
0.401606046893816
0.413805875556473
0.40650279151425
0.405957365455619
0.423824676886376
0.415913427970917
0.422309988019876
0.451089269345741
0.529172095186474
0.451523714592348
0.436879961234739
0.444495475172691
0.439014949353204
0.46206058595866
0.446923300700693
0.462294364186878
0.461592365237715
0.454691666317996
0.46307794980605
0.463641180618255
0.463116017312277
0.460913292167327
0.46587292334156
0.464900373642069
0.474662149774072
0.460914408594478
0.474227039466257
0.521532395444934
0.46285943973215
0.457914109001737
0.455129938046271
0.455775043042038
0.448431025201908
0.456341384468462
0.45230382289515
0.466076549730402
0.437747651848544
0.445272609579209
0.428513955669351
0.442760202723935
0.445187825874624
0.432949370110742
0.419112742173266
0.40985330538904
0.419318575792752
0.408054894499879
0.389370594770579
0.433098786231472
0.385935585005498
0.392251281672242
0.3858828486235
0.389042277015486
0.385601615254928
0.382117880695527
0.368974761948951
0.372149144445154
0.364787671698182
0.37183476966723
0.357674497597718
0.368230515051743
0.368497814605757
0.365476466738169
0.351997477195259
0.362935814624341
0.355016456211977
0.351940438434239
0.346505429143459
0.351897831442383
0.34560863279862
0.348680707117823
0.34478180639133
0.345565589108345
0.336535053559664
0.343873151411229
0.336798429979603
0.336629021173269
0.335208837478697
0.340141043289492
0.330856292891992
0.333611630724527
0.331823857645735
0.332209357836295
0.331574647779856
0.332271382106217
0.324999872870337
0.326513016227282
0.326493705618572
0.323714965908648
0.326271949570463
0.315222704868962
0.334087393547879
0.325660183468203
0.315397183641907
0.323158871484101
0.30939354553573
0.318460488500676
0.301293184790687
0.328704675551599
0.314709446158694
0.306292567104503
0.302849148158737
0.298697474857236
0.298511757843411
0.300582366136979
0.289273437443104
0.302204075499064
0.276183385938239
0.31556557407742
0.295405573032759
0.298798511715003
0.30189545921411
0.283706154814235
0.280220734489686
0.278949214042479
0.292564304605926
0.26614931355523
0.272722801160273
0.258401284089415
0.26832517201368
0.267847020152042
0.253885423350635
0.256868160761841
0.249718923982447
0.260286813152198
0.257706404236355
0.249391216024026
0.247618560147943
0.254628792124384
0.23675266928483
0.25398222972424
0.260241623356996
0.25008209509284
0.232114208264251
0.235853672266443
0.231638385804579
0.22381330795234
0.239509389694608
0.230125678095865
0.227327084320087
0.224366261375333
0.220847449448183
0.218842943068195
0.214741209012545
0.220161222274359
0.207359366845822
0.229390033825683
0.206788811889189
0.222157854054539
0.202704156383724
0.222084215836165
0.212489785626784
0.213839255141455
0.20123807212363
0.210440960851746
0.216432858153959
0.201457894089103
0.204594425575906
0.200239749155514
0.196800131946891
0.206181042642215
0.193557552655655
0.200871597710844
0.196092320868683
0.194081024660153
0.20896958108723
0.206345179129212
0.201402931580956
0.196931055236409
0.190471355323591
0.19434106257369
0.190587275409133
0.202451047034666
0.189087261747461
0.203248973040278
0.197191699817941
0.191371436431154
0.207994559726691
0.196959428412189
0.20115204410284
0.19833698017909
0.197748100663075
0.205161884004051
0.208348260927413
0.216310262624346
0.206707339588714
0.207335049024102
0.216286042832297
0.211086743643849
0.214750892291881
0.216119803458103
0.221402723803917
0.219653495157393
0.230871569506313
0.233321346916891
0.234419047832242
0.23538620087983
0.237189697486787
0.246041859257188
0.258388152919495
0.244683378883357
0.26952778303076
0.252615785156083
0.278566228055
0.270695201200723
0.272565161951815
0.278848863355378
0.280907892298735
0.290007351412025
0.283631549245574
0.287665817864936
0.311721151406171
0.295929980179234
0.302881223494156
0.30119640298894
0.311263531418152
0.302830595992383
0.321206413871528
0.309622870206568
0.324028813071028
0.326766138082989
0.317343482316213
0.320018418154165
0.314093278934737
0.326440427692188
0.323603228569512
0.326537279689253
0.323717260638861
0.324795247366078
0.335182195673299
0.329021310490438
0.330906979848812
0.329582944461566
0.331538194000493
0.339495904520928
0.334692750563284
0.341172079929973
0.33700612009965
0.346551519892991
0.34501876156515
0.341914148727485
0.375190700596476
0.349447755863748
0.354802114323818
0.361381087214678
0.3596546678445
0.361438104573089
0.360371952936608
0.373456973881304
0.370005801268648
0.370845546441047
0.375365142685265
0.373235568753191
0.372179264390132
0.378152646105787
0.39123052614979
0.37315206572918
0.386239906783557
0.373412640525269
0.395671575391094
0.399720872694918
0.387164637836788
0.396486170897136
0.388054405746403
0.392861981554003
0.390949573661883
0.398927870228705
0.393413798980822
0.39781907512981
0.38847987486443
0.396745791560118
0.394951561700633
0.397006270367214
0.393267410470302
0.388551408654069
0.404500640942109
0.391459759746535
0.390961892585852
0.395246119381389
0.390765893888226
0.384479463242513
0.39913523302788
0.393407682956504
0.387094059184119
0.38689744790641
0.387490386730422
0.391857621157274
0.390982873059143
0.390158974508742
0.392130108344454
0.386790148464124
0.3877155399492
0.390067975082363
0.39499877665095
0.40257505328117
0.39335760356205
0.401219926263864
0.400077494205627
0.408038830538962
0.399316627627415
0.40689150968135
0.404635710362907
0.413323831027022
0.413896549716836
0.415196306195902
0.409725686172124
0.420208974627505
0.413502415674353
0.421084176169677
0.422257188384422
0.411798959517119
0.413411877942509
0.410685548954114
0.408030138083373
0.411163513078697
0.402880794717349
0.397749819532367
0.400937557994529
0.397833768122039
0.39055566114176
0.399941329745989
0.386370955019981
0.391329079991677
0.385886940275155
0.382535090310345
0.378189571440049
0.380291798455997
0.378792040302788
0.372856491932399
0.368353267859043
0.374155063990113
0.364451361309077
0.363971908800267
0.363833522181489
0.361275085599944
0.362318582082004
0.365089472194919
0.36163885928241
0.363428277474778
0.362775034995644
0.363330115199781
0.359104950380196
0.363382907766057
0.358724916295173
0.36385596387464
0.357043092802514
0.358780451216239
0.358629481552957
0.362501809258377
0.360667859924172
0.357977438975525
0.360105222263186
0.357039648361401
0.357273565703759
0.35677494777045
0.357843413055961
0.35484792779423
0.354998461748227
0.35452763390525
0.356836416243715
0.352808898243344
0.354651810678602
0.354318508863286
0.355692105251312
0.346518585306303
0.352480071968373
0.356058614616277
0.353245509080328
0.349962211903799
0.351708264207068
0.354538091075961
0.350296810660545
0.350684536711649
0.349028877318575
0.353305089912146
0.351375603335567
0.348234856255404
0.352104593448966
0.347725933756526
0.346619602361059
0.350303320223172
0.348418782298267
0.347616743344635
0.342587250811897
0.341633000914349
0.339938792806915
0.340350505115789
0.338827493089636
0.332532594839005
0.329289767798639
0.327336583727204
0.324307918829764
0.321327428355076
0.322237734380458
0.32186518031988
0.314068228388988
0.316590421250149
0.31270881767551
0.311932373111986
0.311323443387412
0.311010927299925
0.309125537368404
0.310965456365806
0.308248183968909
0.305906463806043
0.308553056612633
0.304026728405108
0.306217489084986
0.307491779350631
0.305669949809535
0.308517757496574
0.309485117333053
0.307177526050158
0.308777033063329
0.310140685937321
0.312502348305335
0.313624661498738
0.313038560716562
0.314391000138462
0.315838666013559
0.315546952947665
0.317650555696107
0.32345608684413
0.318666176771774
0.321805359690337
0.323369764414667
0.325976804726078
0.324653922575628
0.323733524201891
0.323892692921793
0.326933576721526
0.325075944566527
0.32662386535082
0.320308517317429
0.321864059193326
0.322502260221245
0.324538088076096
0.320988867076947
0.322590654291816
0.32129531875469
0.319024572298841
0.316892182698691
0.317111277350728
0.316684585147509
0.315537149068047
0.311404925115925
0.312496596283107
0.310904712372028
0.310502867144829
0.309744715952767
0.309539190386199
0.30691795003368
0.306615224268502
0.305429688303975
0.302735064431355
0.302312865608771
0.299162402654301
0.300237975286066
0.301194975674638
0.296480557149482
0.293583530003881
0.295817906275153
0.294160343045498
0.294315887293043
0.296418149214955
0.293252870327732
0.292812940766337
0.291717130213408
0.292839796264411
0.290510540180081
0.290908351024823
0.288753700522309
0.289209149117816
0.287005820072204
0.285980065084347
0.28237831460106
0.284079336125026
0.282207703535966
0.278183623250107
0.276419670392638
0.273959811447947
0.2720225542895
0.273535393577513
0.267369222604153
0.26769757800562
0.262336778584095
0.262600822429003
0.262034902046413
0.26129652339191
0.260724856458815
0.26135643310366
0.260124647267164
0.26037173867969
0.260524279129396
0.259640251886642
0.258567655550538
0.260996004235956
0.254349316933305
0.25588688261977
0.250797769003991
0.247795799461813
0.245708849807041
0.244203672427166
0.241597309241331
0.238031162421019
0.236116581320195
0.235776945776725
0.234767267931479
0.230544044487928
0.22997108379964
0.230293845701182
0.229585088758054
0.234335220205975
0.236742298999081
0.239011422951542
0.242791683519845
0.249030944347032
0.257163981183612
0.260600562547152
0.269602954424533
0.279395789563729
0.286915288705699
0.298064183743167
0.309538151696384
0.321499569877086
0.332697929456115
0.343881226344626
0.354839013335956
0.366603415639429
0.376424632579138
0.390024454862613
0.398921447004312
0.411819625158936
0.424532251413808
0.433849837541529
0.44482804326934
0.455780338756036
0.464560853732441
0.473297900079389
0.479497767368338
0.489584506328203
0.493756033989136
0.496621866745248
0.503188439180143
0.507135224917085
0.511880116759995
0.512776513706549
0.513552008147754
0.514298692352977
0.508529858299034
0.513679982788404
0.513032167893559
0.513205649047653
0.510677914185055
0.510445586693705
0.51502186909227
0.509353042540743
0.509352738073393
0.510616740752862
0.511483734144344
0.516476933740652
0.513992868172863
0.522657893107638
0.524995314965565
0.524754316622145
0.530999592781005
0.534682751725229
0.540300558265401
0.541050038449159
0.547861430831401
0.554019591409996
0.563631980182313
0.57045858962001
0.577840024040814
0.590367038471147
0.602339847507327
0.605884958417349
0.61753114779318
0.628882637377554
0.639836364337033
0.646971058974044
0.64828085135803
0.65585675307928
0.658076203460655
0.659868534393312
0.666016049733074
0.658045518188598
0.656658951656936
0.65814067316005
0.650879842332573
0.650953595824278
0.639436166798288
0.641548270403476
0.632714352597865
0.63308944046004
0.634912262794131
0.639289451226725
0.640655149715459
0.649744004400184
0.65478627133186
0.667843731427572
0.673217944569722
0.684827202199774
0.694461298644584
0.702538862535963
0.714046447195175
0.725394939090631
0.733969108773229
0.746324047595953
0.754294726572803
0.764400725425023
0.780099346992722
0.786962280057058
0.799887075019651
0.813930967825385
0.828243528111688
0.837990414567252
0.862938705922785
0.853899799626173
0.873735258216616
0.899527477425538
0.927528936210012
0.939298334106662
0.949787934668755
0.949365339418438
0.986495013349888
1.00042396200459
1.01652362404898
1.0169570022551
1.02461456272302
1.05578524270569
1.06873427488575
1.05562781941395
1.07639780398448
1.07746820342044
1.0749733226901
1.08921946733759
1.08478808435087
1.07196238890462
1.05047669834945
1.04676328769039
1.0536030659999
1.04537975047106
1.03514483423187
1.03821835806988
1.0249142113725
1.00983157399062
1.0256171606351
1.03831783456028
1.02995258953808
1.02225716029015
1.04452634072914
1.03894077105433
1.03893073618507
1.07312225448291
1.08393852519425
1.08469076709074
1.06289478352291
1.08024498060403
1.13143664183439
1.11762612293765
1.14519095678481
1.14188950338336
1.13412377254747
1.160912362748
1.18829268787887
1.18542917750747
1.1653540381943
1.19257718607867
1.22037012294847
1.19623398104692
1.19538943738836
1.16423684007954
1.21097219074018
1.20206774646068
1.24505424464031
1.21619397049277
1.20175810542862
1.2127583866075
1.22287160077735
1.22274776289235
1.20918021819379
1.20024301943367
1.25648326108249
1.22455302976087
1.21749565780532
1.22100804312136
1.20767746660992
1.19294359335912
1.17099616177799
1.16707196148281
1.15846000047263
1.15284949421481
1.11854945960977
1.10316290243598
1.10280579859147
1.05042929251849
1.00723376199605
0.992165758134231
0.95465275585529
0.901958727224521
0.877772460752302
0.826079240396293
0.814777354635054
0.789910636181679
0.78290433964531
0.752764956097489
0.750806379841591
0.740937894453007
0.739114481528232
0.72478898032091
0.740905112096501
0.730239372593985
0.720978848588649
0.724301111952855
0.711454892739066
0.695841335383623
0.69869227934606
0.692405532562142
0.680110552646226
0.667486058741285
0.664499841765348
0.648380774382929
0.637669563255584
0.629786994750572
0.613870196225762
0.602828507967371
0.579065492146872
0.565598581929015
0.542184623065205
0.520865668901258
0.506002784012105
0.489061288565473
0.47087683148436
0.457618443981009
0.437112211375726
0.422730586616262
0.40445165241571
0.398283560212698
0.378021541208214
0.371431671031402
0.359816911846971
0.351005421523363
0.344883610960067
0.335584690075204
0.327571473238486
0.318311107941842
0.320299461287163
0.315757065267972
0.313877987547899
0.307338484669521
0.304447146399537
0.295504987278864
0.301135734121995
0.296486356425514
0.301960683833191
0.300232020810883
0.298543650625768
0.299181416604672
0.302656015889139
0.301073477597821
0.301577365884216
0.301731278902722
0.305153555850584
0.309127117042737
0.304465536008875
0.311319651401975
0.312389609556534
0.315017625892148
0.312194979020396
0.308686136782383
0.307423692676039
0.306631742359028
0.305796583496494
0.304089948645396
0.300457946776996
0.299443823375249
0.302014970801627
0.29445609131157
0.296152246934779
0.299909931267058
0.303110833653805
0.29558426801922
0.304544704150018
0.293038632147181
0.302775187843013
0.301680448551781
0.303741315435462
0.310993745973095
0.315629148457945
0.315446379550839
0.314745614773695
0.31324188279108
0.319919257865197
0.31947143809886
0.327251149352796
0.31968445297318
0.323938576211633
0.324003037921017
0.328448291939629
0.325720707215947
0.331155920275421
0.325153508640068
0.332454153770878
0.329737411506934
0.335026903806136
0.336392508188325
0.340044436321105
0.342541457567175
0.342370683112181
0.340064549379573
0.341527997542539
0.351359796694376
0.357306315814128
0.356071298629771
0.370454892262611
0.374926322406362
0.376207085561994
0.391513280485777
0.403705937253257
0.410012811542843
0.417100353166846
0.418015043594802
0.429530525177151
0.425092314098987
0.427051319304137
0.428558807076847
0.419307603747645
0.42099090403115
0.417552486911075
0.411501112854308
0.416974132034421
0.418212410679942
0.411324041696237
0.409903056141231
0.416009922649928
0.41281179298108
0.403749733570968
0.411363265693374
0.412354678941756
0.408683987639418
0.421378104346962
0.421710148198405
0.419398890351523
0.422662895430834
0.414824136553025
0.408565602473376
0.40988893019396
0.415604953781698
0.409390051707646
0.411947343479596
0.410406970934794
0.409278065683761
0.420018876774154
0.400582347348073
0.415220354925
0.399360286464772
0.407646896231758
0.401222156462628
0.409996346649006
0.404369254344978
0.4014530131399
0.405152051017308
0.408852968569909
0.399346564186852
0.406081903545713
0.40734215889541
0.398048834021222
0.403808260297906
0.421256451873159
0.405966349232437
0.415922557617012
0.401503731307393
0.419599927337178
0.41148114782347
0.40095575184751
0.407271689123543
0.408656309254153
0.418837734641239
0.413384400205764
0.407718900191977
0.427701878468507
0.417141158110698
0.409173314619368
0.413683553100853
0.421663643309138
0.438776512450033
0.425080592304528
0.417381788348752
0.408430337692468
0.420166985842692
0.432285211944262
0.432598512848644
0.426314898217682
0.437081956270603
0.441217851757434
0.424549990482807
0.434834707990488
0.442451543308602
0.431404114261205
0.42089603018716
0.44836428770588
0.445115559630839
0.446496261973237
0.450277818617228
0.456530125999013
0.452596515769662
0.459497939920011
0.463436759568465
0.47246464645411
0.472388597864876
0.450510950387327
0.470815581686594
0.473549248905451
0.464338781821315
0.483107905314543
0.498051873710672
0.484529511032163
0.493131012839201
0.491887272247128
0.482223286861508
0.509406672443567
0.500599923938725
0.506659289544737
0.501849784867352
0.520801919005089
0.52655378514254
0.522312909362335
0.534662126638
0.562066700451252
0.557885836404183
0.586653154993919
0.559053259474917
0.60405981918651
0.631785324178498
0.632044683624297
0.605623519792071
0.655300538733084
0.625154320930667
0.621742307407235
0.635348505500542
0.66122928052559
0.665810719258529
0.671037883948702
0.650321974510328
0.642162797335943
0.638429540701266
0.618786545895192
0.629347153843245
0.648001359833663
0.604277870484285
0.6711380254011
0.623228510234637
0.644170196953271
0.643911285330667
0.680952272738854
0.706929449042578
0.665398033882484
0.647069285531838
0.689454414204756
0.616185006630344
0.672941975021374
0.66616129982735
0.668323522973497
0.654484373725208
0.674388493780833
0.652689352618572
0.654649023726844
0.641653781880676
0.690610382028704
0.677438120643638
0.682241981334851
0.636716186678448
0.667300445579716
0.630377677935825
0.683514246235349
0.705357481310592
0.671424973394583
0.644323049205865
0.68881691047439
0.648431329061081
0.676918501603456
0.668330954972409
0.708608511338854
0.700727600925245
0.672402921407485
0.619230710525503
0.7230366611278
0.669598624392662
0.731450702089964
0.663385776509241
0.784858136798893
0.705328654583295
0.703861963968964
0.715632064156535
0.734123281068538
0.753302007433349
0.819294175438577
0.669483161249029
0.661119786595766
0.706326168597259
0.699130514412931
0.682112382240015
0.736392761385212
0.727384604590092
0.690183238410372
0.684314616128015
0.821957763895297
0.807969369151314
0.794632516378873
0.854169224713474
0.876091467539289
0.695501131430508
0.86510625915094
0.716087029008315
0.858123624308876
0.717857780240098
0.767274824754763
0.765304024651754
1.05630415964589
0.82104899244444
1.05887787464849
0.898148928353373
0.913679971552689
0.858927167086551
0.881914702135049
0.861818281984788
1.0100769252428
0.90708162069476
0.97130900497561
0.92667055378074
0.921521628136724
1.11756299011293
1.01574469126586
0.850433432054002
0.744011941827707
0.927513599571268
0.8695074844871
0.758118373141591
1.1602783692633
0.853327402512976
0.88499643996922
0.984352099740232
1.03786488813316
1.312364891627
1.29351384477214
1.02036167491149
0.901170338489233
0.895533211341455
1.28228719490853
1.40612277098441
1.25991049395985
0.936899675853035
0.839148366812318
0.801479259631436
0.626906924237432
2.25699706401337
1.020896980256
1.09088765839423
1.20988637360016
1.55622286066824
0.706312527633401
0.938129241181667
1.01073161065904
1.34729995526773
1.0983917625796
0.854875523919043
0.582253675914369
1.39671505474562
0.712781845341572
1.6518588644821
0.758925873279132
1.67959753867485
0.874197076680943
1.71963574002846
1.31328873068958
1.2033779414844
0.327171628532615
5
5
5
0.391429907938199
5
0.470165406994748
0.78136626757798
0.598051116292847
