3596
4000.36533379555
650.420452594757
1
2
2
0.0215174188554614
0.0305905487334409
0.0269176172029503
0.0291224204976715
0.0370368960522389
0.0318381460593994
0.0274612537628265
0.0344541968138303
0.0231022535062634
0.033435343868851
0.0260207829334184
0.0301091596991089
0.032261179241709
0.0326086183206905
0.0282639319658197
0.0352577832008345
0.030377400098362
0.0320519923795968
0.0210867252543755
0.0299685618466535
0.0211751173108436
0.0248471167584445
0.0281049504802565
0.03291977338435
0.0206629441308167
0.0350455195056356
0.0339064771385883
0.026055772117077
0.0290577840314031
0.0354438530349901
0.0263400229765728
0.0303201768765268
0.0230735125029041
0.0299656362101378
0.0261274051723867
0.0318173526557964
0.0219135357324264
0.0306558339543865
0.0243884462609786
0.0365160926276478
0.0266320148957512
0.0307103570304022
0.038121316454782
0.0318969247372641
0.0273217878558159
0.0372566722383616
0.0286448767244738
0.0340054514830682
0.0194663363181457
0.0375805851775449
0.0257737654844351
0.0337071027318821
0.0367621696103228
0.0395294422452957
0.0313723370076242
0.0439556163832203
0.0382926339008479
0.0272437984385155
0.032715801166249
0.0315233716887867
0.0355762638822705
0.0510171368271743
0.0299375341482615
0.027274804383556
0.0202203871954458
0.0401826670928476
0.0314581997271542
0.0360803493119953
0.026505253160766
0.0347122010301945
0.0227683111442652
0.0314688082607515
0.0381120376703932
0.0355151109737604
0.0362099920317602
0.035184645496048
0.0293855657062442
0.0357227694026396
0.016471326453983
0.0324799253408994
0.0373762738092735
0.0328117943261288
0.0265160477815675
0.0281955173844967
0.0342799653730548
0.0474744497693305
0.0179246899240006
0.0328296060341464
0.0419143935010036
0.0457236918537945
0.0314571876155126
0.0267967634577416
0.0322571507891229
0.022660371234521
0.0286349903511153
0.0283594436206716
0.0228535554994164
0.0290055470135046
0.0206513550857466
0.0277334483733428
0.0314438465107486
0.0392104790582838
0.0629590953903318
0.0192596810162255
0.0610910391061365
0.0506111275398973
0.0144535603906185
0.0744998167310797
0.0522475088171293
0.0434648569123558
0.0278635064714101
0.027968414980234
0.0286174132213713
0.0369896492724964
0.0110963125057276
0.0419668462110655
0.0547060896747459
0.0393403476873422
0.02944720827075
0.0285873287503529
0.0103040277645774
0.0292085483275897
0.0690311766401115
0.0330760359845208
0.0469864464209966
0.0355562926090471
0.0157112656281875
0.0499588540850795
0.0578243608971761
0.0332947587830561
0.026600118920607
0.0331260868687591
0.0290565363928861
0.019232769983672
0.0593363064336695
0.0440914594877698
0.033696397722879
0.00745060352726654
0.025711116154899
0.0839758901450167
0.0480263447931497
0.0399308391459763
0.00765204119626004
0.0221585285287725
0.0731684681002889
0.0405261853823802
0.0158906151862278
0.0433279371424841
0.0436339729703956
0.0286018797004769
0.0240984272292597
0.0174862553808674
0.0364215842483338
0.0326097706949257
-0.0175938280923482
0.0241203617777627
0.0976475091285326
0.0333422590014046
0.100465105914018
0.0427843297571635
0.0381941068949455
0.0304260919273979
0.032692758207935
0.0224977270960325
0.0339304794285607
0.0189774975863716
0.0310696174699536
0.0577036995878785
0.0257347315216768
0.0372520937037969
0.0585437611314583
0.0313134335397384
-0.00189558360167363
0.088539412370859
0.0507994819952201
0.0156747505153893
0.0587589047816839
0.053537175292684
0.01620305534829
0.0284278787932006
0.0587861882184863
0.0347126349861364
0.0303169761813312
0.0222930309484245
0.0314491032226403
0.0543495551992806
0.0370876969978372
0.0307425033215829
0.0326235118726632
0.00374206604124202
0.0227814894353876
0.0629039698811338
0.0637434643453576
0.0357807442100407
0.0405508254364426
-0.0117164776341646
0.0483930597262585
0.0729889702787328
0.0369955437878519
0.0343235556075206
0.0263995492033359
0.0255622502821376
0.0224419163934454
0.0298129738677728
0.023301892746866
0.00228869004207834
0.0655602689357211
0.0479147864456565
0.0296451206462952
0.0190126278246792
0.0258444527493282
0.00147983235064246
0.0554832711469642
0.0723659322594671
0.029548087374277
0.0385321658709066
0.0199698856855784
0.054325738790891
0.0504290473655189
0.0342797065003962
0.0263733322776966
0.0290944416358791
0.0259592015598149
0.025264425680475
0.0244391870065624
0.0272277686713027
0.0281421146128026
0.02997164328799
0.0218886158239183
0.023627088082774
0.0314999971202236
0.0402300424577614
0.0284780921711907
0.0337000491800322
0.0165388752994225
0.0304389466834252
0.05733703038184
0.0273321272978731
0.0310605906799092
0.0259570693832597
0.0227804384176146
0.0264592687980762
0.0276889477732909
0.0278486697200917
0.019443220158176
0.0079897681378684
0.0642569305382316
0.0423028090862442
0.0360194446249215
0.0136578269276846
0.0355165241524776
0.0467352382993005
0.0252106538057248
0.0320951644614427
0.0311609668129345
0.0182322514569487
0.0118780933775338
0.0610881300798145
0.0375672345167835
0.0231159633483229
0.0336527290709945
0.0426412833829224
0.0234173411622559
0.0148528925015215
-0.0043542427228906
0.0955395207487941
0.0329236003896609
0.00413671015850256
0.0932347890858268
0.0615849445758319
0.0428661118357589
0.0287519408732899
-0.0402996459859028
0.109732992145999
0.0973301430988715
0.0388600354237562
0.0287044882469818
0.0446751981953838
0.0257062552990507
0.0404920436637401
0.027599960132149
0.026838714033785
0.0573941675220773
0.0559266165466082
0.0801184012365428
0.0139739898368857
0.043105002893271
0.0552534204521678
0.0349624431199818
0.0352495361220997
0.0298467672933791
0.0235817476572787
0.036123911279723
0.0496673509692538
0.0398264596452173
0.0375578324456817
0.027789705826315
0.0496488115355146
0.0415576056038447
0.0341452468886764
0.02704365444476
0.0435011919832054
0.0241625460136008
0.034269343391335
0.0178663011558292
0.0395808568134506
0.0176556153991727
0.00675643420073472
0.068790523930918
0.0511160622513556
0.0228031219283093
0.0606183711877515
0.0300549592262891
0.0304399465984228
0.0238138398774336
0.0276312646415773
0.0264701286334869
0.0267650737463484
0.00608893007428977
0.0556348466417333
0.0382172143253788
0.0233506232444252
0.0271093350509136
0.0225272972590851
0.0279386836307869
0.0292542935762025
0.0212272427800719
0.0297724283487697
0.0265817711782534
0.0110546819317713
0.0294868070953359
0.06298344717558
-0.00184198183444507
0.0484322613263899
0.0706733786886119
0.0332175607206723
0.0361057100362323
0.0225275250744578
0.0332148336916646
0.029421158288088
0.0264198077846433
0.02406411150758
0.0223904656607631
0.0438742062017643
0.0359966228888191
0.0160820578465799
0.0189426861890787
0.0709772207576811
0.0827865983801438
0.0492719295787896
0.0380201496303862
0.00568049063811941
0.0413272170744084
0.0664300898834914
0.0344640911997074
0.0695850857818762
0.0257041639273545
0.0445578833482897
0.0258800988148567
0.0375089271786196
0.0208201546378199
0.0307416773313549
0.0287451709376137
0.0283153247530199
0.0269591904549655
0.0355315230217557
0.0246092146334797
0.0175782808817137
0.0656129844179031
0.0494469939845457
0.0252512820786954
0.0366370286639292
0.00924278730503604
0.0359999567128957
0.0437406624163036
0.0582207879692723
0.0632553312204106
0.0276566108206409
0.0923699608254366
0.0502131136333015
0.0471159625152595
0.0201160072772053
0.0344718523574007
0.0359604162495809
0.0386902521248286
0.0332502528985187
0.0325832737271657
0.0338900901340974
0.0352551112517733
0.0278011119299252
0.0384145047034376
0.0200331613348684
0.0539265514753079
0.0463061001558891
0.0411647713403447
0.024387287468908
0.0262840041668011
0.0704530253702717
0.0736232273128136
0.0464642568886656
0.0392090923608885
0.0481882064775527
0.0327949912810907
0.0445023821018202
0.0345874668901485
0.0473647288369166
0.0197918661596589
0.056449027243638
0.0590250250437116
0.0529754200143552
0.0654872134367469
0.0218743696048561
0.0525055731019885
0.0443621501343598
0.034893965337186
0.0790072666686941
0.058603560147363
0.0267966753651067
0.0531481851047132
0.0680062685668348
0.0364875242131264
0.0831479688042971
0.0472675820425097
0.0494387215605561
0.040137944738967
0.0493562857616507
0.0437549537487086
0.0577921841481595
0.0515365674436007
0.0541498071300931
0.0527487738649844
0.0518908814513096
0.0528285136008394
0.062232913164932
0.0607739858021302
0.0523027185936282
0.0677758819040081
0.0463225900510486
0.0647334636062909
0.0385745355102682
0.0551186862609066
0.0837849037744697
0.0505740297638755
0.0868529914849487
0.0482182273842931
0.066729187973465
0.0543572413236906
0.0679263714226543
0.0517785449273068
0.0568831233063167
0.0562102549163344
0.0669311898875922
0.0597752718950595
0.0624347673374183
0.0563578681308794
0.0585863956167678
0.062025917568855
0.067544215185668
0.0620497037854069
0.0652781277439389
0.0711992493265309
0.0585625824144536
0.0719421283177263
0.0937800837981771
0.0662650353018369
0.107171137123471
0.0677258019281004
0.0785126807299847
0.0790210531157186
0.0849881055383632
0.0752657977999946
0.0899058949260845
0.0705082138895159
0.078938310393354
0.0733294787964752
0.0862749438679213
0.0792532117153872
0.0791272202122325
0.0785333797229793
0.0925513879421597
0.0863759848122009
0.0983257234456527
0.0814520367441162
0.0886785334534724
0.0659794998540574
0.10435162872091
0.0912166507208034
0.110868595008692
0.0959546626962631
0.09758044221067
0.0947119879598633
0.0952236961761566
0.0879441494515778
0.0947063346281891
0.084871102727185
0.0911887222366069
0.100403692135522
0.107415820218722
0.0995906334198032
0.108257186170877
0.112151633614595
0.0988328871020777
0.110941898163857
0.103215400143596
0.111088441220388
0.117369888925327
0.120036892238325
0.112462798580017
0.12250479738105
0.123074377716595
0.112997604109736
0.127734086807723
0.122005237835712
0.120597530680141
0.11586668919138
0.120278090337516
0.119164133742577
0.12670763944599
0.11420141930441
0.125440210470358
0.12048822111133
0.127923619610164
0.12921086902062
0.1308337196863
0.126054415572629
0.144377684857944
0.131840343805163
0.127714173544845
0.134746221999952
0.132150503109546
0.136181995514572
0.140610759088344
0.131861432874667
0.136446332526389
0.149949443923522
0.136022283600858
0.142294625783528
0.1532736896417
0.144398407505096
0.15920467580123
0.142519602637901
0.148896986770891
0.147442055441694
0.159899392146572
0.152292598152637
0.166661770855569
0.156914218473679
0.153520175612199
0.155174458177837
0.154193282038957
0.151974634847757
0.157523064753843
0.161374265005269
0.169812509397207
0.157348559681445
0.168159148991808
0.155294131549827
0.178179011741027
0.167036090791279
0.170896402802347
0.166858470448226
0.177357234252809
0.164636727964398
0.16675998201459
0.168651978623604
0.179289849679817
0.163566660249661
0.17485564269915
0.172497311398926
0.172041926529631
0.169614396993398
0.181883032962286
0.186577735896893
0.191293215801715
0.192149485508154
0.195275446694947
0.193987265614812
0.189818089223269
0.196810384223605
0.183293679081389
0.192767354204069
0.198487029607265
0.184841098866247
0.196751799678598
0.192054651642984
0.187966474195485
0.191280743828559
0.196784448893792
0.201267171974719
0.20581565510176
0.20209402274511
0.202054982185462
0.193372912685486
0.221266370702086
0.188502641892764
0.204957180205847
0.211047157636749
0.221590800337585
0.214415111045804
0.209925973109119
0.200431541096194
0.211744477613825
0.209860690284531
0.212263576184614
0.202586437524859
0.225048195541015
0.220412805164521
0.219828089920733
0.207536072613032
0.219560829526583
0.213235199075379
0.217892324619202
0.20779478586362
0.232875855157403
0.2219587985223
0.230743159742482
0.218109742074331
0.243961137232746
0.213998310773495
0.214143388813703
0.228754755073031
0.219966021414692
0.225088178581241
0.238737129888229
0.228334807929585
0.239720373488455
0.223719248120149
0.22931391841361
0.220630204604086
0.231567015466989
0.22356593296561
0.241149187827983
0.237329603000174
0.237468394635235
0.227827781409247
0.246286970058123
0.237327006944968
0.243203681464081
0.228723786097271
0.231343760084389
0.226991370714018
0.227969810529727
0.242836828649593
0.238050179236741
0.236754753308651
0.243980618658957
0.243301286680445
0.252066784851253
0.246318011118516
0.261694246801035
0.236781616488365
0.256303645954433
0.24541284052385
0.249540973363357
0.238306771442465
0.253553529360403
0.241205828979925
0.251168732037132
0.240494887101826
0.251280397941897
0.248109675366923
0.249374930785951
0.237583925960608
0.255990601266863
0.244456553808608
0.248306880980718
0.242298721673751
0.243094293876307
0.24718764152208
0.265114803324729
0.244210596283671
0.250613706307116
0.233426218725938
0.270478537797592
0.239884940524828
0.244066273885235
0.238375009277129
0.250833929935186
0.239689331053163
0.249783143654616
0.253942293233755
0.256115912379686
0.241522202412588
0.258302433990542
0.254421311695615
0.241338081999055
0.24499028082582
0.246818053619692
0.248368057505847
0.258645700276809
0.241279880141053
0.247503001685569
0.252232542132053
0.254031723208562
0.234029338785317
0.258243196644576
0.240850763321975
0.24736632190818
0.25056317939253
0.252747841059197
0.240758111313883
0.240813264274715
0.252946514337724
0.248728585442797
0.24170451052237
0.26141269301857
0.250443995503869
0.246193947082002
0.242687556782389
0.244759820716001
0.24513171126896
0.249180930232549
0.238813240336755
0.255125224361128
0.24631014695685
0.241737937062992
0.244812448724891
0.24209515320838
0.244424460669777
0.246036335213799
0.234770772941084
0.245420110169519
0.241629095492097
0.240745916173451
0.240182371172416
0.239630648475622
0.231460285868064
0.242252227703391
0.232312988049881
0.250715396881962
0.245222475082999
0.258289065438118
0.229953038628432
0.252147053640003
0.235141151781256
0.240486606548735
0.227110734345152
0.240094002404915
0.221813597823353
0.233968363057247
0.233949364856514
0.238257601797554
0.235444283298465
0.243994170143185
0.231975427188133
0.234070902253466
0.227117631041147
0.235883848312775
0.232558502251587
0.233977895901096
0.223995551768526
0.224653923563314
0.218504504306409
0.224274658248181
0.227064598737096
0.239343261110844
0.216164166821593
0.226293030184083
0.219793765170965
0.215955844640166
0.228988647790764
0.223872562550576
0.212500963935227
0.228667145835387
0.222039554553789
0.219995700795412
0.213384367462764
0.209167201280393
0.212419994592362
0.217666239043068
0.209759793936938
0.222862490577838
0.21078306380596
0.212301375148862
0.211150590847343
0.222646180178594
0.20587799115591
0.215807675595169
0.209940887449139
0.212426051866158
0.208156846822472
0.207465213777559
0.211818608237841
0.221288363180066
0.202146367275856
0.207458176971083
0.203080499902112
0.203271523067051
0.203478083622064
0.210086609820628
0.198876694967789
0.205547728540316
0.199070173342395
0.203042076225741
0.192381468644184
0.197845243755369
0.195129389692895
0.197153674068113
0.185685710891733
0.191478098552778
0.201158165520343
0.192053929336135
0.189398008838455
0.188794039702165
0.188815137242166
0.18770544160774
0.189730352771196
0.190006312936653
0.181144497649691
0.183720932280547
0.187151820949871
0.189674262432574
0.180771287574092
0.183327377191969
0.175205379949078
0.186272226411774
0.176676845616265
0.178829468176762
0.178441855043906
0.178233542069476
0.172751254223118
0.167452002716462
0.16388268694019
0.169710399149725
0.169378300363349
0.168537192986027
0.167752029022144
0.17374149907216
0.171676767693746
0.166888902434016
0.166390258176276
0.169195914528071
0.164820389228399
0.169056198567286
0.166025031845892
0.16361324393161
0.154079250859553
0.162115107937378
0.156027350584194
0.160569079751099
0.155830802783615
0.160106874933074
0.155417827773853
0.164440896701574
0.158176224137011
0.155238015508354
0.146983938276461
0.14966466544682
0.151626658285805
0.149398526243139
0.145221749309922
0.15153821116028
0.149895610463805
0.140539143328021
0.14717515445017
0.142749648115673
0.145798716495315
0.147417110040805
0.144703904584875
0.145854815312361
0.137714821415391
0.139317531547343
0.138866740131028
0.140722540537749
0.136722346711391
0.135242396016906
0.125844588033777
0.131442407422036
0.12732086076587
0.133771903443809
0.131579416553917
0.131050234910718
0.132302198447351
0.132841179864003
0.122390735395838
0.121651079455036
0.124137915629467
0.126470847148394
0.117289182349652
0.130091853105208
0.120672406345769
0.120718224458723
0.121733374547862
0.119103874077225
0.116774958754066
0.117942423387023
0.119741264143464
0.117751999394573
0.110326077533968
0.11798321538178
0.112543092057553
0.111637586753447
0.11045438749925
0.11570612411533
0.113559302982428
0.107880759770979
0.108035111572579
0.110286484722182
0.10394321220254
0.109007549732756
0.107379076435298
0.110151229896231
0.106084609733307
0.102702121485182
0.105725529135703
0.10697258661079
0.103395410052797
0.108892499937623
0.094833588304735
0.102676061748859
0.100198798798006
0.0983650479490905
0.0941558625231401
0.0988617198103135
0.0926199206563139
0.102449679838876
0.095092322260458
0.0919670425074828
0.0920124632796036
0.0920665573439802
0.0929421635696319
0.0954524395674466
0.0845691678367829
0.094235265167243
0.0884984730957114
0.0887129311141862
0.0819421585580224
0.0834384179373436
0.0856709609260434
0.0868340202513341
0.0839802518416247
0.0839674871047241
0.0803016921215574
0.0781228684079462
0.0795804088174692
0.0789229178143282
0.0793238024742347
0.0832090803475351
0.0823178907482374
0.0791092970186114
0.0755039845797364
0.0792019858107455
0.078738594159962
0.0750251406874258
0.0782657061562516
0.0767765229921832
0.0703114057927167
0.0734641157055766
0.0716001864499653
0.07631078783191
0.0692078986519829
0.0687277528241588
0.0694199646806384
0.0728287300677355
0.0736211810125288
0.0765933443639733
0.0728926567699533
0.0668702229223488
0.0699196725851812
0.0700531693974956
0.0706041761800571
0.0644273156213555
0.0648366722469966
0.0729512124588233
0.0658903403880232
0.0696367591011757
0.0699755566601516
0.0685399418930502
0.0644230530726472
0.066261853111866
0.0629829881601409
0.0605905924579417
0.0613776294767158
0.0630514971776229
0.0597291657091922
0.0633814593355192
0.0608729078023608
0.0644558673102163
0.0580382791435095
0.0605311508297564
0.0618388167733275
0.0591277494975136
0.0548610114247371
0.0577495507441996
0.0636764097921381
0.06115162255672
0.0566131027967421
0.0624825068038245
0.0580948137092329
0.0565871445367146
0.0594407652200755
0.0571962681487024
0.0522802414398003
0.0531584587491156
0.0532248060635742
0.0510330997015
0.0507373648702971
0.0565167947082851
0.0482013157451282
0.0534114013073635
0.0527487180736717
0.0541912894222788
0.049225222678477
0.0497359538544501
0.0495795647161894
0.0547468569247852
0.0471076984687721
0.0506124710619545
0.0479638813018356
0.0503128209939378
0.0533002115735689
0.0494845513211471
0.0465509244494358
0.0479392117892819
0.0469633090344473
0.0495722662622124
0.0419272924544817
0.0472067132586747
0.0459759462430129
0.0459212128829104
0.0469648195799077
0.0502681923454466
0.0459381775567523
0.0473711029212119
0.0453313984999964
0.0491325123763701
0.041695868976854
0.0440598686255407
0.0448131057256151
0.0398292410856167
0.0426273639566216
0.0452443128851497
0.0474670563644162
0.0395200450562332
0.0418841688279445
0.0439165224633919
0.0399383546932311
0.0406294637310598
0.0398707604332709
0.0425450238928401
0.0413869581222718
0.0433778768781094
0.0424892269815205
0.0445965779009943
0.0360905253928316
0.0395926866666937
0.0394716180625428
0.0396876784456784
0.0341505815673606
0.0370037451034021
0.0379929655520764
0.0376304076566792
0.0354082127384586
0.0386227470177514
0.0346197967107181
0.0344259722641696
0.0385866116235921
0.0405827143837039
0.0353870916011618
0.0413027738333053
0.0327219697171905
0.0360618293375622
0.0391901298533989
0.0354996689091417
0.0332116527014042
0.0382007406217402
0.0370181082583046
0.042943883840636
0.0294551936204451
0.0339445748146956
0.0357236186896712
0.0341104257030967
0.0357001955241733
0.0373613825508995
0.0334668255295257
0.0352928217020957
0.0370266269995862
0.0405666596844771
0.0350026432662095
0.0373839600449439
0.0371307064536333
0.0380996544830514
0.0367516599492236
0.0361047300498411
0.0385829577849068
0.0357559421746913
0.0392651774910768
0.0385794253949525
0.0322547686721944
0.0386461053746806
0.0407293738221317
0.0388608375542292
0.0387824631741159
0.0426711013077613
0.0374337257675988
0.0419885876974399
0.037433113774161
0.0385205240835645
0.037800919542793
0.0378120014291276
0.0395722230207027
0.0405040018695359
0.0388803532722272
0.0429083923446889
0.0407795613181401
0.0397353723797529
0.0380672992005944
0.0390047773183094
0.0396475826009528
0.0418968994919584
0.0443349144724543
0.0428070967281942
0.044464825440298
0.0433635516074174
0.0408393149627336
0.0396641923486301
0.0442653564929752
0.0468980984269266
0.0449375712907918
0.0440929988953231
0.0477537563845351
0.0497438078347038
0.0434975645187133
0.0431183515944529
0.0478799187002894
0.0514566574085242
0.0483185343092392
0.0448968484620201
0.0511355294722676
0.0504018323845924
0.0514649672286136
0.0532665183624296
0.0535254173719806
0.0535486417829702
0.0488544445484948
0.0568916587269224
0.0509524674520818
0.0547676717268701
0.0525315116718531
0.0556404577070163
0.0501205625356323
0.052901463336784
0.0546436978089805
0.060454786616075
0.0530613878783746
0.054301036514042
0.0566794297381559
0.0574290344091257
0.0543592893983762
0.0605972509778984
0.060628878225278
0.055549783756405
0.0571019900947549
0.0598545713692997
0.0529728685908446
0.0576260441793893
0.0573994684266517
0.0519964562983433
0.0507771100459317
0.0519263381647685
0.0499321704222099
0.0568376683324097
0.0557656435503842
0.0533869049196275
0.0563485366317527
0.0571656038226524
0.0566000694406472
0.0570938873187572
0.0526489203810513
0.0568396415990023
0.0537000113829784
0.0545429674156348
0.0521148431941147
0.0577883077479186
0.0499016527331796
0.0516476875700454
0.0529408362285509
0.0521272966159429
0.0569722366937745
0.0566300083844627
0.0526566915674607
0.0528012902043202
0.0512000514372011
0.0550848610265935
0.0540655465559738
0.0567157632498327
0.05328012844937
0.0581876971880707
0.0533329273950115
0.0502881697352795
0.0468584402686607
0.051197736678809
0.0568158141676906
0.0580030709119616
0.0535898126777618
0.0508490078360687
0.0557254271823318
0.0556146761555045
0.0546028813183094
0.0562084051738216
0.0539565191969424
0.0501701980675869
0.0514794654243024
0.0525535507111511
0.0507763486140596
0.0518413420415507
0.0546623928089453
0.0529067114429795
0.0513312814416361
0.0500935977302796
0.0506252469166308
0.0515435451844272
0.051335461745099
0.0490423689364819
0.0459340475874736
0.0483295248276386
0.0437343728549029
0.0448775007229123
0.0477113861463082
0.0463461687581587
0.0481507639156949
0.0470433549903086
0.0410154100844577
0.0433985725962704
0.0440597197411024
0.0423301594028647
0.0422075040383771
0.0422582277806222
0.0391872770229176
0.0382314951565875
0.0384534196220422
0.0424753623109034
0.0368976040062504
0.039402886153164
0.0388980799462767
0.0373713762992908
0.0336661426036083
0.038818238026519
0.0371169831342373
0.032994083113707
0.0296288958995554
0.0361766819288081
0.0355803781780051
0.0326799619903993
0.0331484544393732
0.0327499450410685
0.0310312034078613
0.0296661590254917
0.0321531229425986
0.0334063734587231
0.0317474534818795
0.0318090687189902
0.0298937072640351
0.0302168611235959
0.0319188698621874
0.0355634440320738
0.0329142393819629
0.0313869400464462
0.0264588553043562
0.0343828616045814
0.0315668364365105
0.0341668271227382
0.0292813702034746
0.0301005815443839
0.026209452005276
0.0326974800448595
0.0283768077234664
0.0276867513530422
0.0274456429044104
0.0291878078329132
0.026534202097432
0.0272641770614464
0.0289912390257937
0.0294930514666534
0.0293175733582926
0.0314772160569635
0.0286443599456769
0.0262828477083766
0.0262949653851379
0.0284169939122076
0.0218859649265235
0.0261036805661978
0.0260141022146091
0.0309100746403506
0.0286583943342456
0.0294659743211332
0.0251183057840574
0.0236238590427142
0.0242307141628427
0.0205374078779796
0.0228473132094371
0.0258236485547007
0.0253244296332535
0.0270128060155043
0.0216030596381406
0.0243671649788095
0.0220223314247553
0.0257082974074978
0.0256741046198104
0.0253011410236708
0.0233914942452462
0.0263847747624806
0.0211125124623017
0.0243905828736448
0.0175645407152762
0.0255402562327713
0.0214416212653494
0.0231988038125362
0.022116461327792
0.0258734300506301
0.026743430528076
0.0283665196423807
0.0253088002096937
0.024346676878863
0.0232990118363264
0.0262194980436164
0.0232841196038033
0.0246560462612818
0.0196477148532709
0.0240744343549319
0.0230134867950231
0.0245047577371193
0.0246684016923907
0.0241062438232214
0.0219594123002047
0.0220899219845027
0.0201751666147057
0.0253116688946976
0.0232138526350243
0.0224467877788899
0.0248636290674047
0.0262997507257291
0.0286108998861744
0.021197111725903
0.0244798368854691
0.0249213458360775
0.0220102430069396
0.0221931031965327
0.024570612104926
0.0230730866466176
0.0235642476473593
0.0222046282320386
0.0219073816880151
0.0225015609829657
0.0217532315033817
0.0226117746860563
0.0218070654499327
0.0190881059052732
0.0209679182009
0.0234797337107067
0.0202820740212545
0.0204864433666021
0.0177422740499268
0.0192149330962992
0.0182517596113186
0.0250456311236616
0.0186904037224422
0.0198269035946819
0.0220652711549373
0.0207969939726644
0.0219701513382589
0.0222941264422469
0.0181507139175996
0.0217451228169268
0.0212534079144474
0.0218976895954348
0.0208948231189919
0.0205633974937675
0.0213312742797509
0.024131088286181
0.0196260310406396
0.0200036046094251
0.0220352363188308
0.0223454703869264
0.0185122422740588
0.0223571703179962
0.0237256412001824
0.0229723192279393
0.0224886227241695
0.0215021891088699
0.0209193048012255
0.0255077386209602
0.0249223782729938
0.0258424667984933
0.0199483545389708
0.0200223837712274
0.0221012972425694
0.0214925164316341
0.0195305368855219
0.0233896881303599
0.0198333904734692
0.0179469391515399
0.0245637379398109
0.022727451817486
0.0197402291205564
0.0187541431417337
0.0183668331171704
0.0217735886262958
0.023259494210558
0.0189841629067023
0.0180810508095774
0.0169442436900092
0.0194264522931707
0.0192968176556471
0.0169467085774289
0.0168816775581632
0.0165527888371994
0.0201385295066438
0.0172448497044949
0.0165606590923662
0.0187417253221629
0.0192325627447905
0.0141124808848094
0.0169789153200971
0.0175478254851192
0.0175034789843261
0.0168424486824443
0.0169814470104983
0.0190235600622606
0.019741645429469
0.020215286110183
0.0159228758691676
0.0148227362231707
0.0167899272205514
0.0164615190808828
0.017979230506886
0.0151809531527885
0.0145881598459614
0.0159950979280847
0.0158152143177057
0.0194535246805905
0.0210496246782167
0.0181863830053407
0.0159398744727413
0.0163040964177021
0.0176468172220078
0.0157466985882884
0.0179833418483639
0.0209957797772052
0.0216328126169808
0.0191354006384848
0.0165962188989757
0.0184116286916792
0.018669998219637
0.0154577782938148
0.0165191013916806
0.0200895034266905
0.016275247529209
0.0141745746487827
0.0176808923730316
0.0182508772151654
0.0175095101304745
0.0134519997363018
0.0134061087890056
0.0152053975282854
0.0168403375703462
0.0168655458769582
0.0167545741875428
0.0167373932104783
0.0184236571150066
0.0163236892826312
0.0151301491857536
0.0155946953934009
0.0145282248571382
0.0124464494980881
0.0156596636184431
0.0153751015768672
0.0141791293590528
0.0131483323501747
0.0129075209570452
0.0142003116961568
0.0166218558743543
0.0132709123777437
0.0128154610329291
0.0136140385724558
0.0147034098070815
0.0122832823475404
0.014624988522624
0.0128741426681563
0.0136242322469493
0.0155527255942597
0.0148582050769267
0.0122254589055715
0.0123012951601817
0.0139867612885701
0.0142161257505096
0.00954716790210124
0.0146861087851287
0.0152229802525119
0.0113738789291205
0.0156467548816675
0.0203420366076581
0.0131417441289029
0.0139862938071473
0.0125038729871249
0.0149895240515659
0.0139518872978565
0.0148976457814675
0.0158382797021811
0.0133669251550361
0.0106536340727513
0.0132779014737025
0.0128988552261347
0.012959708141344
0.0132406889504592
0.0158040702353268
0.0148030545393581
0.0141071734773574
0.0129232613046698
0.0135473926697929
0.0151531756332936
0.0170889843702681
0.0152514433890081
0.013960558355285
0.0140958147539125
0.01710289735282
0.0118046476543226
0.0121159763600184
0.0122757946173704
0.0140984714413939
0.013321846114118
0.0138252594308949
0.0121109084831663
0.013597208089509
0.0119498010380776
0.0116933441756036
0.011475724209482
0.0139426707570668
0.0104798505683434
0.0101669454728599
0.0114627595487484
0.0102178296048305
0.0122412218332757
0.0111302754001719
0.0102945487448073
0.0128454533275134
0.00947980682511555
0.0106461132274058
0.0114811169208039
0.0131677428700674
0.0105592118608462
0.0126217080931113
0.0124562387884907
0.011564528485067
0.0104104051462772
0.0134630233210158
0.0128108024445664
0.0126113376952934
0.0112122992458693
0.0127771197127684
0.0141584733850432
0.0119313051349071
0.011290073936462
0.0138063862033372
0.0103954849475869
0.0112073976292663
0.0125565781774584
0.0124813496564135
0.0117039785374455
0.0120809752768775
0.0132644277528564
0.0121053304390627
0.0131481923463114
0.0114373391717991
0.0112206154815569
0.0120011954012053
0.0135419099391739
0.0144650023949838
0.0107358465071284
0.0114792896681029
0.0124807323143224
0.0127024977008537
0.01252891949166
0.0127577436404081
0.0112576361937766
0.0138191180921993
0.0101634527171473
0.0109672192266606
0.0109030955594806
0.0130870227181057
0.0131118546256437
0.0125522680593573
0.00964108514187968
0.00923928806235914
0.0121378552327661
0.0139978786071785
0.0121644327025533
0.0105548615014284
0.00896737198842045
0.0125919900782979
0.00955547044857112
0.0110874945386361
0.0109409867709974
0.0113193349746135
0.0108348707793779
0.011338235873429
0.00844938727653742
0.00742657953028016
0.0111026321163783
0.0101953488509606
0.00888496442687396
0.0117290181348208
0.00941977128232035
0.0115150825259487
0.0108697946841835
0.0111121786332446
0.00908129861343779
0.0115436267507189
0.00963197404074493
0.0107800288908007
0.0109160002631642
0.0103437336816793
0.010732648668777
0.0117298612215651
0.0100220688347108
0.0118983820244244
0.0103995586556023
0.0115813665237976
0.0100592148022297
0.0105958640332235
0.0113638122491207
0.0129925661842057
0.0099020022925977
0.0126980798786802
0.00980961885686705
0.0112150370758418
0.00939910718000667
0.0107893167081654
0.009649024019404
0.0114973242596243
0.0119320998681078
0.0147027556478895
0.0119387208814752
0.0139367400327274
0.0105287596435534
0.0102474442172802
0.0120900222653273
0.0130556753815552
0.0100549585550082
0.0104184858593671
0.0103507462392309
0.00991837146759506
0.00996618936038679
0.0141934182562021
0.00837777215425415
0.00841659347441802
0.00805278754467986
0.01088189409966
0.00704667976145392
0.00858156087678492
0.0106095489679876
0.012919516540946
0.00742436475350745
0.0102884050274419
0.0104611500190247
0.00785206019157744
0.00685748725664302
0.00962592392836475
0.00807829586870144
0.0105131435470217
0.00940352859414757
0.0111942015002302
0.00901783426672524
0.00982800978126901
0.00969843677647124
0.00924856986239829
0.00933576840718032
0.0119260680597279
0.00888252143299433
0.0104383875646086
0.0106153176215502
0.0108027380639042
0.0088508043689053
0.0128760769353902
0.0118228845097136
0.0125659490477675
0.00818294915258315
0.00829845773311235
0.00794559908810713
0.00951274199417307
0.00900753575547382
0.0114600236647104
0.0088051976698206
0.0102364319777169
0.0108863225490922
0.0103833461831144
0.00765598101577027
0.0112531642735864
0.00947775820550948
0.0100542678457761
0.0102972685223111
0.0118675018570563
0.0106528191944291
0.0103558767993663
0.00786212535998884
0.0115335537082164
0.0104096461721005
0.00886806094221061
0.0079477368053162
0.00833544629320652
0.00805047777602811
0.00957382723467585
0.00670936926389194
0.0100906679347361
0.00745548467893961
0.00868966997883361
0.00883591331591196
0.00763004965745484
0.00705758250495926
0.0086015322778884
0.00534954632841178
0.00909176728201217
0.00886113116759892
0.0093685169033485
0.00696095413591878
0.0112691797038215
0.00745232759339529
0.00796501484089281
0.0063477779942525
0.00928390845152509
0.00850154489773549
0.00884650442683173
0.00876991649823168
0.00985777329338617
0.0079136970281459
0.0117064526402984
0.00780045360531334
0.00845438019913219
0.00596629725916746
0.00972536820628414
0.0077182723448267
0.00870087198097485
0.00674989025877069
0.00787283853653267
0.00526488638812659
0.0104060653804936
0.00842414446275435
0.0126701983544405
0.00942079319943662
0.00897153559520715
0.00478921054582636
0.00986285757591751
0.00494523120479668
0.0094199350518277
0.00871633119565092
0.00760453672915537
0.00215862696573475
0.00183581612532901
-0.00325718405203287
-0.000450611599730692
0.000135902435134551
0.00854241116664002
0.00265250030927041
0.0065877386759133
-0.00496894441637089
0.00139120371630948
0.0071527490417874
0.00339537937858568
-0.00636598838713577
0.00930620329477311
-0.00546922758571154
0.00104107456783388
0.000102248770223028
0.000745357745525929
-0.00411275318908881
0.00543200841458258
0.000169329965484274
0.00683050536194834
0.00279656845065154
0.017373999813941
0.00724110680647294
0.013941842384134
0.000144446452256502
0.00932802546463749
-0.00289593012848565
0.0106006084265575
-0.00412039709849859
0.00888201801589801
-0.000373250141017423
0.0105640314678409
-0.000951421746540983
0.0103278652409119
-0.000308431532836625
0.0115611751854387
-0.00161397537651807
0.00674335587135933
-0.00862572146216391
0.0040942928732173
-0.00110770643398278
0.0127991591106186
0.00524231972185636
0.011085676198134
0.00117366857920439
-0.00137376042268596
0.00461741457745533
0.00753924265956983
0.010519148211098
-0.00273107890333451
0.0123865368670834
-0.000362175732829555
0.0207938524490115
-0.0117398313492764
0.0233753586728158
-0.00745503555826306
0.0333884969566637
-0.0188131054777012
0.030690727571263
-0.0088072880048596
0.0288849268435663
-0.00657625842603008
0.0274682190966111
-0.00243407521477291
0.0158079865722394
0.0045495112283222
0.0099197810056385
0.00977145502836727
0.00651013817126978
0.0115551951402608
0.00478813029056692
0.00762247937717076
0.00942178171782236
0.00879867270578424
0.0122669885354274
0.00380198303702446
0.0135863451515099
0.00452021519011395
0.0105270033828285
0.00497019422239523
0.00898244621206244
0.00849177681430205
0.00845611405205072
0.00669049869474978
0.0087727502204909
0.00392054213908644
0.00892521342319816
0.00524744440288496
0.00806416590008829
0.0060607557531946
0.0107788745842508
0.00617328506104546
0.00780490477622586
0.00601206315713386
0.00730849502325191
0.00449122389604641
0.00767987144710743
0.00568112081563866
0.00952040271425763
0.00827260768273622
0.00949480690789731
0.0056419830946436
0.00720142732157484
0.00471814737963929
0.00808738405483472
0.00742692725816901
0.00947989120618826
0.00809209496766763
0.00997696249124622
0.00571227282000295
0.00979738869805526
0.00704861588973628
0.0071671182054085
0.00625377326654296
0.00934008913529434
0.00640510325184491
0.00845101659118767
0.00922990261188686
0.00862647980289493
0.00553980660092232
0.00810979861811025
0.0056707291325301
0.00899597774014049
0.00608589971421481
0.0100909678111669
0.00925098981018196
0.00967516098183588
0.00556648574267908
0.00641161768336966
0.0058366852017212
0.00699251973414482
0.005767362046866
0.008411983478764
0.00670156535753124
0.00829931206952673
0.00890356670048557
0.00747176587215622
0.0046442244130637
0.00537188956154356
0.00647344609699354
0.00855467630410754
0.0088781494893127
0.00771495756500021
0.00604230539770245
0.00761925696234574
0.00548146421373668
0.00796002453514486
0.00684205884753262
0.0055134153953041
0.00566200002018785
0.00830804448380116
0.00430278032456289
0.00701998451516958
0.00548536483859655
0.00752188253451138
0.00716998322324978
0.00683059006321529
0.00558126046507569
0.0051161962216686
0.0074191024412634
0.00946428368794161
0.00678675341259631
0.00802637643637125
0.00641022661667787
0.00596911227210152
0.00543742720308017
0.00945723463281847
0.00714392289984466
0.00673741014115659
0.00730522805264877
0.00758829132481601
0.0064093616589814
0.00725822898726867
0.00741782100329279
0.00872593852374043
0.00676577302587134
0.00771729724806017
0.00801379931130288
0.00942007401860227
0.00860620205970153
0.0107182029731416
0.00643598325807164
0.00749204326411333
0.00790314933504639
0.00723613993967587
0.00615277959526396
0.00858131119610152
0.00690653321436394
0.00666002721607622
0.00866309971124338
0.00616850553786624
0.00440898723912242
0.00768883097038463
0.00709967769858702
0.00847764074653114
0.00733690106708756
0.00810922824247459
0.00632362155177056
0.00634476797210075
0.00650679261419481
0.00748036532075292
0.00616433786349997
0.00608537358076564
0.00375548027463747
0.0070474746413982
0.00801000260677405
0.00628789182250585
0.00448915578698112
0.00736502445821763
0.00751401614769845
0.00577678495756572
0.00765047950941942
0.00715565124213988
0.00600195339018864
0.00666705899472753
0.00568769717734875
0.00544006525568243
0.00573431533867117
0.00884775276459319
0.00744058377541464
0.00694877680822465
0.00603424236143207
0.00843146637444127
0.00723937385140388
0.00696171317370816
0.00671108946700812
0.00690287296872028
0.00719518367077197
0.00649799708313774
0.00747336165642865
0.00631899674330136
0.00531242546440898
0.00877133342957273
0.00726598299908053
0.00739251347470826
0.00499023953599379
0.00636552266690127
0.00720279460330622
0.00742311860493984
0.00723943243890718
0.00839294394447974
0.00610829697998519
0.00692596095045646
0.00827143140554195
0.00657173657623132
0.00494630587496475
0.00650000166796809
0.0064162317325593
0.005631192703549
0.00745007237016667
0.00814331932862458
0.00643364008974302
0.00747985228646227
0.00861016241485888
0.00664780617637271
0.00617294005401042
0.00712064619866009
0.00620820469292431
0.00562943829018936
0.00659920080994633
0.00741804106019307
0.00562026806205089
0.00528165205079413
0.00511092363647906
0.00711321697081828
0.00536884968185411
0.00696479358295781
0.00595181387579091
0.00526164320949212
0.00456960429177374
0.00600557782331252
0.00559346096799294
0.00720939710320472
0.00810093891798731
0.00396482065481997
0.00332379060032324
0.00676330894214584
0.00709766211266766
0.00613042913718854
0.00502212726030376
0.00754627769877134
0.00605338230406256
0.00484785023670395
0.00647444751148118
0.00441067550848625
0.00497721833157188
0.00767150465522722
0.00612460550979316
0.00557399430076114
0.00612938579210573
0.00706695954860673
0.00643217233866438
0.00681823157013645
0.00711906832286264
0.00605636396497174
0.00618159702140437
0.00662258252744183
0.0055624094266491
0.00862715144366856
0.00814495859086775
0.00549026990799164
0.00579634849799731
0.00689756892570135
0.00591797502207977
0.00723190026792879
0.00688295330922371
0.00602419749977531
0.00460832550542785
0.00633255598065778
0.00642225247802954
0.00454632145421902
0.00619097247581495
0.00650275431064214
0.00551674221516019
0.00583918609196271
0.00522621147040026
0.00814491039802184
0.0087291971280934
0.00440866497162827
0.006178343659038
0.00726790758068945
0.00505634765899181
0.00666048631603029
0.0071916788430985
0.00523950683100162
0.00426186944300617
0.00667146557002614
0.00604540612515458
0.00574797540267167
0.00626754072266238
0.00647639380518915
0.00676889442461398
0.00559056967820346
0.00493913346775145
0.00490730897138269
0.00463344783884157
0.00578755196663927
0.00636538589252763
0.0049373773333651
0.00509606561091137
0.00702489316112545
0.00676669181775159
0.00726933889969367
0.00664868825064599
0.00755928973961973
0.00483251349827197
0.00531124864702267
0.00656507896176569
0.00523939271161101
0.00574292005752325
0.00709912031948012
0.00728565944724733
0.00706884149510584
0.00489077464490823
0.00684108526989699
0.00721544355337444
0.00581586672767655
0.00567424078341773
0.00655610510398958
0.00606101726769947
0.00642972283883926
0.00722261525534765
0.00608821550922311
0.00607968085804364
0.00565823423039108
0.00571386515080801
0.00658463564061464
0.00581624011773171
0.00564660289195326
0.0065133556416477
0.00625831971592212
0.00487900538367961
0.00674836858800486
0.00580205363471239
0.0072581009343138
0.00632178023186533
0.00534767857952707
0.00586789386577037
0.00726078605997384
0.00516514105597005
0.00850557641686229
0.00700485592232394
0.00548120820704354
0.00646378116111498
0.00606675573465792
0.00790096006921998
0.00614927820603013
0.00492149904849461
0.00558013100562023
0.00533561794680364
0.00739351552502679
0.00641597881676225
0.00670081716840412
0.00550342247525563
0.00488492607951565
0.00553136197520314
0.00430872699207945
0.00414550909129883
0.00393901091725275
0.00507374744677214
0.00566437818577267
0.00460859387249298
0.00679738498727113
0.00649801383138269
0.00667884223806769
0.00344253848327981
0.00699034087645643
0.0146999011525154
0.00830577267594683
0.00708320076991791
0.00754435674532041
0.00868941642915404
0.00631058798458981
0.00602336876960945
0.00731693014875025
0.00418979710431321
0.00587405039760606
0.00685706739553423
0.00392235217840785
0.00379793144593609
0.0057904075532475
0.00586224086059235
0.00567870504223616
0.00546697196262654
0.00640234683229821
0.00485562511425727
0.00506798785535838
0.00515474962134112
0.00450102405571596
0.00534232225930611
0.00471947774484119
0.00405023340129722
0.00348734572591607
0.00829039564716921
0.00959371131258077
0.00606126500261522
0.00691462882210082
0.00591356055623898
0.00551702599005657
0.00513196122160649
0.00513758761231667
0.00437154690167365
0.00492710793639788
0.00494589143435378
0.00538313370119548
0.00493087910767283
0.00534859527816291
0.00545673544272714
0.00494373673766653
0.00308387686098793
0.00478076721090588
0.00497660306951062
0.00399416212482813
0.00283438656881128
0.00372314306011512
0.00472053903455659
0.00516335672568657
0.00584406134369328
0.00422316250870822
0.00504295547717631
0.0153889391928469
0.00784253759219735
0.00443562850246627
0.00512081354816033
0.00379735309821873
0.00502034253625836
0.00518166629971804
0.00379325427803279
0.00569229608040904
0.00333089255942553
0.00331614233517276
0.00372413296312585
0.00512665512076625
0.00463095656797391
0.00356590394767068
0.00574293671621264
0.0050318797827158
0.00511607944878733
0.00596003514446235
0.00509088574441013
0.00728747840388727
0.0138568030541944
0.0104660799768256
0.00745553431802334
0.00728936231061682
0.000716500016722108
0.017233500944477
0.0138729860664543
0.0051136653283945
0.00746800670477066
0.00437141333866904
0.00434426308099991
0.00595578930021647
0.00390686568597038
0.00361118655103701
0.00818256647314877
0.00762603689588074
0.00851271949395608
0.00510228090448124
0.00413364907844917
0.00626844712249275
0.00413631774306329
0.00373320068639929
0.00565247432011698
0.00491452307620167
0.00413071049725762
0.0044768674578023
0.00255415180509269
0.00554609708272948
0.00385365535514965
0.00711980866428562
0.00916998765793384
0.00494492576228011
0.00468281603868822
0.0071273145497039
0.00232147395050454
0.00835136687489182
0.0175528294144891
0.00689105527914232
0.00430444293287301
0.00621545486800823
0.00440945996344851
0.0043827998294747
0.00416136403071837
0.00640121035211712
0.00624161678441191
0.00557471160743974
0.00718147392535071
0.00520289636145219
0.00274039531207695
0.00434620420990276
0.0064712498025535
0.00306079062622217
0.00324940871756914
0.00778312186067835
0.00461447446252184
0.0026885154297995
0.00373536467276838
0.017475280055584
0.0172626658067429
0.0139339937868033
0.0110610188682432
0.00730547394106016
0.00584599363777398
0.00571635665154974
0.00589527339252842
0.00468097707077047
0.0052142482628513
0.0067318744741883
0.00514782229431807
0.00646170691122724
0.00575261863524447
0.005109427911261
0.0040524392063528
0.00522538922343741
0.00525098386173462
0.0034481065500508
0.00355919478866977
0.00515339006790572
0.00474285160967894
0.00283053697493904
0.00709405780735747
0.0114337231168006
0.00747090876734084
-0.00436952721156784
0.0153095483959553
0.0254783768101137
0.0114305285723675
0.00938983180935207
0.00424379241967086
0.00451561500632318
0.00346911454113527
0.0060189760186191
0.0106894821724024
0.00629059185691811
0.00483394477132257
0.00516993966590809
0.00541952232124803
0.00510879566237822
-0.000468397712811314
0.00946793775526361
0.0275620136401688
0.0145454901388964
0.00925072688986702
0.000413630077665457
0.00778185075675655
0.0265765372251145
0.0104931663266649
0.00591223359336897
0.00798314678950239
0.00472990833434999
0.00315958055285338
0.00486132315271302
0.00559194918602525
0.010548669497562
0.00588394114348055
0.00389524864078171
0.00553544366073915
0.00426947992106563
0.00477508884654072
0.0024098132454144
0.00700427446989496
0.0139690709068176
0.00642132930937892
0.00553180765286322
0.00673097018432745
0.00564520127256713
0.003933256532149
0.00597294701961443
0.00278367689150003
0.00657059156286518
0.011549158037248
0.00820916947115032
0.0135978296970101
0.0168813610752031
0.00722838102800261
0.00490347230095521
0.00929860557483862
0.0152692969494031
-0.00244104825831237
0.00667370238320885
0.022126994756353
0.0202684920033946
0.0166122556894987
0.0105639690693311
0.00457140883618968
0.00736505677934354
0.00149001205738409
0.000255956804575128
0.0130410248460394
0.00992160663190166
0.00507897876174382
0.00180347515436475
0.00603747634256144
0.0133606459921504
0.00917568160548559
0.00375379018525042
0.00578593995994764
0.000899351170951184
0.0160335723362892
0.00997886632152413
-0.000679495216532491
0.0194026898826426
0.0181892247461949
0.0257818723538039
0.0114851127261354
0.00170476219981261
0.0196362754740917
0.0156243181586374
0.00767705953483042
0.00463417376020642
0.00674503716420619
-0.00023565222259531
0.00353920712699452
0.0310438412263468
0.0145999209179913
0.00672180568721387
0.00681295769204715
0.00461423386877469
0.0225199967403638
0.0180122045929669
0.00581447673109233
0.00731320638496514
0.00629359850322712
-0.00426256744892124
0.0272025741399383
0.0225864329339251
0.0139337591310175
0.021973370685291
0.022497479575329
0.0170875812234292
0.0134286473899792
0.00425943874196811
0.0184153587811169
0.0213617652161934
0.0114294651110402
-0.00381652998312561
0.0150580025684396
0.0222807493411661
0.010595309134186
0.00786373875786954
0.00550292501115587
-0.00687095686684303
0.0199043917086441
0.055491308825872
0.0367334262999593
0.011740895401786
0.0124301005165225
0.0231294136842903
0.0140320710909123
0.0082673581553749
0.00686049140699827
0.00567207116534756
0.00527254375750147
0.00568541908792044
0.0136565321670679
0.00914621851569501
0.011539436447897
0.00473973281830532
0.00389375417678628
0.0123640960213571
0.0440723760782591
0.0319239823807764
0.0157221073494527
0.0163523167324314
0.0238300581810413
0.017575996095385
0.0118736318213333
0.00814554794940477
0.0103564410353705
0.0130855745600569
0.0098606843342588
0.00686224822408656
0.020966264709412
0.0131565335825179
0.0283005325405516
0.0264359821921807
0.0184301379660365
-0.000710094398726324
0.00208611136564409
0.089074886203631
0.0466022399908801
0.027037912306547
0.00667190468745571
0.0155922647393937
0.0554592080312008
0.0365258678412828
0.0126485563249357
0.0138625696937517
0.00894767330190979
0.0144778473196886
0.0180674617620469
0.0210817797254417
0.0230157627544868
0.0161029335246399
0.00161764603607278
0.00946507430448141
0.0544527993056491
0.069947776841068
0.0354798698284607
0.0272191944440292
0.0293485295196804
0.0330230472786588
0.0187909609769461
0.0262478988738502
0.00612206270800487
0.0201340687828931
0.0436903923006542
0.0384088927432004
0.0150706419779987
0.0226121852890964
0.025527153482325
0.0216270385218611
0.0436993092681764
0.050601453986794
0.0335753504603843
0.0205052054944155
0.0281969921848276
0.0203372751373518
0.0199436097633308
0.0370215455241967
0.0401222285893511
0.0312360036788234
0.0267823727970532
0.0293726727575881
0.0232394367073039
0.0291814857606034
0.0244677274705556
0.0216616844284222
0.0181532294310182
0.0342358311971114
0.128406867609459
0.0616859996055332
0.0405565600979237
0.0257125118859819
0.0311030098933803
0.0399842009353177
0.0358785223963733
0.0551058134296742
0.0505798589222651
0.0343204182466964
0.0258451189152405
0.0322782045498542
0.0267303653273451
0.031219024785812
0.0250647569819429
0.0244780438082072
0.0340021024115667
0.0163170118724744
0.0411832015186745
0.0646765175605399
0.0444363416000818
0.0210589580320909
0.0287189842222884
0.0242164151248572
0.0310449382024776
0.0185991833088679
0.028480032924218
0.0300331239999098
0.0307275060739063
0.0226793926918346
0.0212900600646078
0.0332879437186464
0.0408785338984733
0.0307701870829587
0.0295966614498127
0.0248135675253387
0.0268826456469155
0.011824239660632
0.0202681479727208
0.0525269398287134
0.0402814149224079
0.0261480521288056
0.0273462257326389
0.0258820420128385
0.0302482911666672
0.0198406867998068
0.0279592298734252
0.0246495144313471
0.0268480432960325
0.0263121428864289
0.0268089483130486
0.0235056843328451
0.0237851245629372
0.0258155322324401
0.0252178345575991
0.0278914334815423
0.0247459532785467
0.0236035557932262
0.0249282507727572
0.0255767906936591
0.0243265150240801
0.0252670312322574
0.0280782116446703
0.0260243272869129
0.0230256437427324
0.0263244480625064
0.0256785085382509
0.0228014113890685
0.0238211513305905
0.0265628654386848
0.0223787087311238
0.0224867608602502
0.0197401242187333
0.0244707096089147
0.0224342616700103
0.0234924033221224
0.0225046576803871
0.0259310276406346
0.0205289928129667
0.0244118477640326
0.0179039494638748
0.00978968238560368
0.038293092104406
0.043591560623884
0.0330688561330915
0.0153028408151743
0.0267449666986467
0.0129319058499152
0.01501984933246
0.0378380673488303
0.0435794296376791
0.0239903199726347
0.0181832369440963
0.0117124608633002
0.0243445486207239
0.0188236783519588
0.0225515526057309
0.0161316862683055
0.00537082700373241
0.0291677779477939
0.0333641955573573
0.0764886588234092
0.0736939785482056
0.0487968460735442
0.00842856929521475
0.033278917401327
0.035822039291659
0.0285750963833004
0.00951825129218346
0.0128643932722885
0.0249216079085339
0.0226730359643375
0.0192443885595969
0.012889732708831
0.00583489121669881
0.0223382718491752
0.0358147054374561
0.0185934498213835
0.0275205704108616
0.0315132756437354
0.021552697332394
0.021766753306465
0.0839945566751898
0.0444395056823282
0.0214605215165061
0.0230242494166343
0.00979505103659201
0.0212014532375019
0.0327351951095676
0.0294753768336576
0.0253726094495754
0.0147663005516283
0.015644737871783
0.0122519423701398
0.0362019951129837
0.0104164730489364
0.0244211854476311
0.0263369352565762
0.0263613579868405
0.0124788716090201
0.0195864227832135
0.040525557180546
0.0487585746830648
0.0336070399492368
0.00589996241665563
0.0343961134332589
0.0396782820951841
0.0340077340071732
0.023634112201882
0.010763485064224
0.0149519221756135
0.0259690446161038
0.0165943303821632
0.0219795813290386
0.0208253768613448
0.0337247676918642
0.0325667331045436
0.0601521556925608
0.0549223779182808
0.0285283612450157
0.0153414440746298
0.0122964178782239
0.0206251987317367
0.0141562867242067
0.00274765632174505
0.0253427425599693
0.0149151671123308
0.0214249210673521
0.0240192186327765
0.0307197799330181
0.0130864823327385
0.0148309352008706
0.00925219081760745
0.0171139721736043
0.0332879502594121
0.0513659887685361
0.0185913678591208
0.0220295192502014
0.0225400160145927
0.028514872369104
0.0110685854085211
0.0220417123732233
0.0114864593557818
0.0183611500426691
0.0168562485433085
0.0232102886782206
0.0130984279474685
0.0208600008572623
0.00595534171760143
0.0433185925354406
0.0286817188751208
0.0285370897341345
0.0210465688091509
0.0451033353359374
0.044747602216515
0.0426243329994367
0.0285267273211419
0.023933492874377
0.0241417711338585
0.0252438030347658
0.0121222275640434
0.035754891125053
0.0366022458862877
0.0362773818055436
0.0206036669561103
0.0308508187350472
0.0208692181886955
0.0287520635501913
0.0361791564806816
0.0335008402624947
0.0638765632023169
0.055818526986709
0.0571416282864556
0.0302998570910125
0.0304320506983312
0.0290191717174919
0.0317945038110295
0.0312070653760257
0.0222325315690832
0.0334841964327037
0.0430271634730731
0.0360469622549496
0.0294727217354641
0.0266236990531618
0.0261886232638881
0.0287151037448212
0.0293796783755211
0.0276542340773213
0.0251076771997067
0.0361922302426277
0.0190889720824975
0.0328168509392501
0.0709202040198704
0.0557082586244902
0.0373188828782652
0.0320591110010888
0.0426236197298455
0.0334751999158755
0.0302771112813168
0.0434784067333766
0.0478346286122509
0.040897075830779
0.038171144185091
0.039975337618074
0.028656142460341
0.0502319389649772
0.0482786120824158
0.0438779986419302
0.0400211283040588
0.0216754250690258
0.0574613463071054
0.0568430739293439
0.0623229650706291
0.0415852644656822
0.053288370100507
0.0344400461629713
0.0444585624295866
0.0350724438715389
0.0409614891498941
0.038643639542885
0.0396169726661984
0.0375673150865209
0.0362301422999007
0.040947704102548
0.0322938715338596
0.0384377782356912
0.0437833959428546
0.0382536615442665
0.0361907419004069
0.0367677805170686
0.034970021006989
0.0349229131357616
0.049159260722454
0.0439721474943911
0.0467719920970197
0.032356785375108
0.0402150488323338
0.0524642995757432
0.0512341278367094
0.0391306196283281
0.0358330001933167
0.0329963582252747
0.0389741148922939
0.0280846353083019
0.0405048910846438
0.0383119308331583
0.0477584593852172
0.0332659756442874
0.0403736089542008
0.031787774065987
0.0377536879585424
0.0329118344920362
0.0381683826525516
0.0347631070536531
0.0414593460454683
0.0395220635605201
0.0364943996755533
0.0370963737972057
0.040542598508672
0.0445189931264248
0.0470229997415805
0.0380571005826571
0.0374885313538986
0.0302617812627697
0.0372020117089402
0.0363139270375147
0.03801580524798
0.0254243812289128
0.0381495650657116
0.0224263302418367
0.0414277728405758
0.0436101356720635
0.0407430614065256
0.0383390628102825
0.0333123539835126
0.030246632357866
0.0267305620309558
0.0301371873135494
0.0260142390382684
0.0276950622445717
0.027424183055171
0.0263520618570898
0.0242356771192972
0.026481311848997
0.024788686412848
0.0268368844320194
0.0290834566339116
0.0267392540292176
0.0244261649660105
0.0230958693518986
0.0279528957784333
0.0240505220646265
0.024938898798583
0.0234186057337113
0.0259648224416376
0.0312349570773151
0.0333803573276112
0.0326863943803356
0.0261892982388625
0.0350966163805385
0.0243480286452435
0.0272366769215979
0.0234100706847362
0.0279911299348155
0.0222518158513019
0.0250942052723631
0.0249935291929923
0.0255795749858631
0.0220664530696346
0.0261602701247389
0.0272366517060544
0.025760689910187
0.0224134094318593
0.0260643091621446
0.0257997678744321
0.0261525314508813
0.0269275849073948
0.029675826819714
0.0328691222057076
0.0267520231458822
0.032361852888575
0.0281142947910245
0.0286359422880499
0.0281897058126495
0.0322736187615511
0.0312762702390925
0.0275018308913968
0.0252981042783262
0.0248763134941923
0.0261687079282284
0.0273383196411856
0.0269353716459839
0.025703940489786
0.0244743628540621
0.0247458533964394
0.0257353472400092
0.0243377028250737
0.0240080236603542
0.0263995244665182
0.0243151208173861
0.0227621316433191
0.0223440719546714
0.0243903005233707
0.0219121098108828
0.0214345493865511
0.0229674662989538
0.0220688581786121
0.0183391288785125
0.021438320921056
0.0204103143746154
0.0221433109244364
0.0211870189266041
0.0221363539222131
0.0228837951826989
0.0227967170304847
0.0190466594114921
0.0196309724287189
0.0190959511142253
0.0216195201425182
0.0196981224550323
0.0204292062871042
0.0214080065575818
0.0233611897466214
0.0208423721468247
0.0218161593748411
0.0197480779637955
0.0230962165945175
0.020764375296215
0.0235334823987495
0.0228713432286693
0.0240754956378775
0.0222520644139056
0.0246365015310851
0.024582403614657
0.02267244538771
0.0232086305028599
0.0259778435868983
0.0261416634148227
0.0255789702044509
0.0236968464976309
0.0264578826369516
0.0287643882979116
0.0277210413331787
0.0253642757078975
0.0225392673566655
0.0256518398956837
0.0260848753146619
0.0253494541284291
0.0240714438110377
0.0251624155455542
0.0253152982729633
0.0245164954825111
0.024862720325397
0.0236284930651094
0.0246361438109886
0.0244130809967543
0.0234728886031146
0.0232982404607453
0.0234814350235131
0.0253944347900967
0.0247326896393938
0.024379530816867
0.0242592591696437
0.0206985408607086
0.0230119135243957
0.023505991362745
0.0238467082432713
0.0225264445719304
0.0226903782814484
0.0226119711354356
0.0233395324851832
0.0227421222661051
0.0228563069871946
0.0226225956891718
0.0225481739318343
0.0231438927789871
0.0220583516630623
0.0218342360684848
0.0224141984166867
0.0226485234790773
0.0219292123582672
0.0208050059080942
0.0234069725656101
0.0231556369209019
0.0219950177436577
0.0229390013091863
0.0221131521140574
0.0230556324392907
0.0217714111917744
0.0223321920369334
0.0222706504208595
0.0214022723729207
0.0226865965659417
0.0216648801088557
0.0206468519631269
0.0207840915273876
0.020018731337922
0.0195346265298209
0.0211813699872157
0.0196317632349105
0.0193214939657955
0.0199191027495795
0.0205129429397764
0.0206598453077144
0.0209281595232554
0.0209168932863654
0.0221984519859577
0.0226091876120854
0.0206113732482055
0.020375309386362
0.0223166906581216
0.0213781913905433
0.0206154163309838
0.0205244889949514
0.0211793361723543
0.0206304233657957
0.0202312330949183
0.0219324429456031
0.0216208017501984
0.0211000120615125
0.0222767009791099
0.0217419672767834
0.0208691914777519
0.0224104900608505
0.0232257791815074
0.0234941490360535
0.0260242006324593
0.0285115788056767
0.0283746797235054
0.0280491524923304
0.0319735585269781
0.0311545043057486
0.0327337768438175
0.0353774719651381
0.0397488166695051
0.0416716888058567
0.0432211053831596
0.0433887400101917
0.0463324240748221
0.0466061324620241
0.0484053315666154
0.0521237126181178
0.0514393247794182
0.0519168351324845
0.0551712288460827
0.0556749558087256
0.0550767225795136
0.0555935923832458
0.0567218797182338
0.057124502868421
0.0563117827887559
0.0586784249184299
0.0570247788653055
0.0576436352181807
0.0591452261824431
0.0571800396447494
0.0576840980836405
0.0581412041989047
0.057243680239515
0.056923282377639
0.0569133415288513
0.0547652415172244
0.0566810589297664
0.0562574795555283
0.0576949308764409
0.0583385875961698
0.0587677552920225
0.0583065987055412
0.0588810141480263
0.0617547854532886
0.0620708945876485
0.0614687778357497
0.064687993312808
0.0633393384729438
0.0663689207078727
0.0662232287338265
0.0685446743213435
0.0677468907217079
0.0707821173076801
0.0720455575633886
0.0740445342407701
0.0725104869776169
0.0754529703965762
0.0770239415809402
0.077177911108492
0.0796281613304778
0.0822150911990645
0.0825479907894405
0.0832946308771105
0.0858075491060687
0.0876965761900221
0.0878249231718287
0.0916653563970098
0.089312394715348
0.0901816960125673
0.0895681473931994
0.0910892036931829
0.0888550083862977
0.0875739428929086
0.0901962947085192
0.0896834169953222
0.0884787901684339
0.0871263151441745
0.0877882556813476
0.087019709858139
0.0864258465300623
0.0874334475928229
0.0859965469853292
0.0883926501829571
0.0891610099132724
0.0925104111435202
0.0952407266748418
0.0958590440014194
0.101123193429316
0.105235457661633
0.103901452100762
0.10573948078736
0.112111655357375
0.115266542367995
0.114691161914147
0.120259993294602
0.122884484986586
0.121674172636505
0.123013727883182
0.129948415104879
0.129382689859988
0.129540265605691
0.133431962420936
0.136478170885363
0.134397807232471
0.138843182676807
0.143424504172317
0.143252560718346
0.14675651156695
0.150008595283729
0.15028523197684
0.151837442882078
0.152980624645766
0.153933393123448
0.151697863610168
0.157861668191595
0.155219105993341
0.156452114584961
0.156302179734205
0.155812366778209
0.158238099146131
0.159150167577544
0.155068041740642
0.15564302735517
0.1508246886445
0.152694089735787
0.148770094889053
0.14628919867052
0.146503487328189
0.141974246611486
0.140689067776145
0.141941927537233
0.138508058324396
0.137652526809143
0.138606561592796
0.138638607477269
0.141184286671442
0.138968680312266
0.138198169376932
0.13869773225905
0.142570426727818
0.139266854601384
0.140504307772836
0.14334926429086
0.144234042120139
0.145444567589982
0.145620080320749
0.146974999457369
0.145801514887322
0.145170855511492
0.141048957551248
0.144478641977361
0.143255232614061
0.143924373375799
0.143015568075037
0.140326580688524
0.13524369872343
0.133423305757726
0.133462954855169
0.132911653826736
0.129650950304857
0.127816363491708
0.125075891142382
0.12254638723083
0.119843197246209
0.118431697515652
0.113860990250348
0.109310219399098
0.107727090667831
0.105304670526724
0.099754855227706
0.095100522541805
0.0902388749694894
0.0894471753920031
0.081187703995366
0.0843928833204326
0.077379457667645
0.071271486652456
0.0649152904331926
0.0606666269648262
0.0518363788048851
0.0499495947929418
0.0448318215844039
0.0344713062757478
0.0324616016525042
0.0255041056537718
0.0181516234367532
0.0128030734547066
0.00484032705855387
0.00238308967380888
0.00012559270158332
-0.00394195987567974
-0.00593846484620673
-0.00665102935971713
-0.00855278828362909
-0.00878402099720339
-0.00925751848781163
-0.00949975630388825
-0.0124846414769691
-0.0131559681492628
-0.0113663591887743
-0.0134062718266425
-0.0171295842815281
-0.0140611085388252
-0.0175465063999901
-0.0167953753507169
-0.0159918673631979
-0.0186020688221392
-0.0173004510620252
-0.0198251679527708
-0.0185083886393726
-0.0198635034285627
-0.0209539229600182
-0.0228341040676726
-0.0227216786607823
-0.0211008628465931
-0.0230824189627273
-0.0225251354172813
-0.0259571050900541
-0.0252908794391035
-0.0265975424871085
-0.0252721619177136
-0.0238202752908313
-0.0239060334038693
-0.025636304048737
-0.0240176616455139
-0.0230806410645805
-0.0238826952749447
-0.0215452706388054
-0.0199201803511322
-0.0249884838511946
-0.0207412320302172
-0.0168005019397919
-0.0182550712404422
-0.0176976136285333
-0.0159981067224383
-0.0190526754064663
-0.0150364432107483
-0.0175087778107274
-0.0155718966494505
-0.0168044764823107
-0.0157357240475419
-0.0160180282662775
-0.0158798428870687
-0.0172022023464301
-0.0130313764789902
-0.0131449291106761
-0.0122149282977987
-0.0153055100017169
-0.0119649034012817
-0.0121981605833521
-0.012205054673627
-0.0101535866210665
-0.0103801273731754
-0.0117925320754907
-0.0127127080881742
-0.0137371644711016
-0.0143562405398621
-0.0155985946671957
-0.0153660303704573
-0.0139728414412963
-0.0165996467624785
-0.0136533586295735
-0.0144315033566334
-0.0173950795131005
-0.019061965526757
-0.0177427838732076
-0.0140685246366467
-0.0175454237338724
-0.0177056018326032
-0.0185321682287759
-0.0147289979519822
-0.0166767175882654
-0.0149682598678523
-0.0164954477804472
-0.0141931658123398
-0.0157583232691448
-0.0126990970967217
-0.0144533846040279
-0.0140054519608063
-0.0139672904153158
-0.0110288322506053
-0.0131014050499474
-0.0137571477330849
-0.0108494401205336
-0.013279409703689
-0.0124638239910594
-0.00717152832407078
-0.0119175488487525
-0.0107429793942078
-0.0100087045441711
-0.00675799073344309
-0.00773295196922659
-0.00695338098232961
-0.00549014434147017
-0.00322839618646939
-0.00922625742658176
-0.00550845615252744
-0.00470286741456025
-0.00497278003917078
-0.0057895340515077
-0.00217678136767881
-0.00248049123979328
-0.00570983323579129
-0.00321447763774282
-0.00271198877509717
0.00288343162934336
-0.00125976458689507
-0.00305582885400637
0.00182780069461467
0.000270149833626235
0.00203324105148281
0.00219854844080963
2.32564679345911E-05
-0.000241758553068121
0.00330462273234989
-6.29596417628648E-05
-0.00223457473565974
-0.0020256838667973
-0.00348248731088914
-0.00258517603094862
-0.00100590071224079
2.49038520761454E-05
-0.0053178459872811
-0.00524972091109817
0.00128697963761708
-0.0024547118593691
-0.00122614734977098
-0.00230533869502379
-7.51725024127725E-05
0.000733349986387866
-0.00251857998472999
-0.00766883088056408
-0.000481080859487638
-0.0035537765424016
-0.00564752628474821
-0.00749776145793745
-0.00908474931293016
-0.00586967744438769
-0.00758397855915053
-0.00225973763146527
-0.00642636503361211
-0.0107359029318625
-0.00571175497764987
-0.00769014643539603
-0.0104227255866881
-0.00970092513267551
-0.0104688222867633
-0.0147929775664323
-0.0106760585087803
-0.00891337305770912
-0.011614361741671
-0.00982455265844609
-0.00850694208565289
-0.00723066615545449
-0.0148138762381967
-0.00733629484543496
-0.0118374969357051
-0.0193181606654425
-0.00769757859867289
-0.00852651437327875
-0.0138681906844783
-0.0166708602892899
-0.00718980473034084
-0.0131736907980774
-0.00756781274052669
-0.0140914038646864
-0.0113402324645053
-0.0101108179672462
-0.0145089609592603
-0.0125458725594983
-0.00869663541152291
-0.0187938733419531
-0.0109518392982682
-0.0113064654957697
-0.0133281820996098
-0.0169707654249734
-0.011092947498808
-0.0145877795198675
-0.0154497851262002
-0.00871761581637077
-0.00746369604740505
-0.0153797602692284
-0.0156262076479238
-0.00702353592194401
-0.0126744322863289
-0.0185427640293715
-0.0052293811573378
-0.0137271091734023
-0.0125525086157543
-0.00971310613095197
-0.00642294162697317
-0.00817924015286756
-0.0131485789000042
-0.00947541870640951
-0.00438977125018782
-0.00565447419813069
-0.0135374777419133
-0.00110179876440448
0.00226678635877531
-0.0046279357444545
-0.00740683804953017
-0.00678652806185314
-0.0121663429470387
-0.0081767986157049
0.0014077819652234
-0.00905052159604475
-0.0132976655745363
-0.00224733468611183
-0.00739989293366771
-0.0103916017510494
0.00181546792843479
-0.00182823459645383
-0.00293767478012398
0.00964805455206995
-0.00242008769808348
0.00169607591519541
0.00187273486382697
0.0056512588632775
0.0112680207740154
0.000999198675785339
0.0021954959002946
0.00484296186393203
0.00616448984699286
-0.005207489854312
0.00901604584601073
0.00100108609130376
0.00122451376061895
0.00377591652722994
0.0110600987937451
0.00849724005107881
-0.000885860005669441
-0.010122422230577
0.00127718099425042
-0.00284427426357715
-0.00328468871013174
-0.0120692314677106
-0.00477034997179323
-0.0118493358254318
-0.00715494668601106
-0.0127364509469223
-0.0155696217345953
-0.00365663525709234
-0.00552498344354712
-0.0154250325289929
-0.0142911604420784
-0.00884419237841443
-0.00723216138999101
-0.018082787439932
-0.0110655487761285
0.00380280886429594
-0.00655938752812076
-0.00190359694918539
-0.00161788926177927
-0.00829969222813893
-0.0165740642496301
-0.0140265809934453
-0.0151546441918884
-0.0211397507375373
-0.0181801253740414
-0.0186522040719343
-0.00357664728758542
-0.0120795613667414
-0.00679227694040035
-0.0175769540867317
-0.0171045580715505
-0.00452581838073684
0.00482990134058955
-0.00537534429999234
-0.00479294255641963
-0.00684161774316713
-0.00925257190674519
-0.0154072388238964
-0.000410050877324231
-0.00350190933024909
0.003086765840762
-0.014790347423884
-0.0113265311982546
-0.00728864325613305
-0.0142469987831415
-0.00573512361851491
-0.0126891716763657
-0.00259890370714268
-0.00815667202800357
-0.00411040339974555
-0.0165402110219534
-0.0315693128926114
0.00347744398327637
-0.0180579044699964
-0.00459264545648772
-0.0349887426052486
-0.0313764426301081
-0.0252756512889339
0.00586999225249667
0.00881769190357557
-0.0050298842012225
0.00286125718057488
-0.00584618955472198
-0.00182747555776017
-0.0249486997707598
-0.00654450698111866
-0.0134877030054417
-0.00564867475825571
0.0106952687515974
-0.0192179090892004
-0.0218944176002909
-0.00174965719979413
0.0167441400597077
-0.00756802154843093
0.0365334904207092
-0.0177386127393592
-0.0380112509272695
-0.013167281061478
-0.00320838230176995
-0.00428471223585962
-0.0418752370488818
-0.0124634361145798
0.00461275605431776
-0.00793834495684552
-0.00309257607783151
-0.0221367446967427
-0.00137372272536073
-0.00582658950840136
0.00869796783325339
-0.0171423916919754
0.0122810245678085
-0.0191357784246662
0.0202442518202898
-0.0266752628133204
-0.017066523765024
-0.0388658607353059
-0.0234106505655485
-0.0613071783276941
0.00777109826136154
-0.0144206452228768
-0.0215605732932651
-0.0535435971826801
0.00711822429966988
-0.0047558791269426
-0.0326862039006781
-0.00138325092578611
-0.047572630610139
-0.0243268150518103
0.00345221593392287
0.0109646719519844
0.00590419467015009
-0.0896691098090581
0.0122780656207851
-0.0614160735842505
0.00175595501948954
-0.0960877791985718
-0.042677982027058
-0.273477050321935
-0.0563037776347622
0.00744881613763555
-0.0873423773604671
-0.00323596390946874
0.00946628682339864
-0.0673642218723572
0.0117276573333595
-0.0155280660665911
0.00903908959548787
0.00744657773395113
-0.109898238728935
-0.0728391363617146
-0.0159660005913549
-0.0339494397597843
-0.157345037195362
-0.0215765924137739
-0.0418846786106496
-0.122730965474526
0.243067329748289
