3596
4000.36533379555
650.420452594757
1
2
2
0.0346323933872267
0.0359164446351138
0.0333388540759687
0.0385483213859112
0.0409550631338781
0.0382567610905538
0.0334752817981491
0.0379385377235608
0.0294898033846765
0.039905299424724
0.0317240223737616
0.039575678532074
0.0314918629845728
0.0330992975119197
0.0336231610371118
0.0381589693260467
0.0336568315315724
0.0378148093733851
0.029172947909325
0.0409026523295023
0.0331894079168101
0.034238958113723
0.0349545210887034
0.0390071320134655
0.0371833028721896
0.0440690565246028
0.0334557106991161
0.0360458105745987
0.0333897563939635
0.0420755240966088
0.0310594548470236
0.037564810380689
0.0360803022550867
0.0314710464331912
0.0334841236578889
0.0403533824125889
0.0300903705200934
0.0336136711559919
0.0311528591986564
0.0444102037160378
0.0319921089922126
0.0312798949071919
0.0406714429177648
0.0389631284821477
0.0358667732722811
0.0386112967724203
0.035121190193666
0.0392154042870219
0.0274208236781366
0.0342713817276706
0.0318508412196872
0.0418479284252551
0.0356284150788469
0.0459875222585616
0.0396382870403986
0.056918863146739
0.0423078787817046
0.0377033401226559
0.0389147204992979
0.0371574857237885
0.0452588059153569
0.0542027303411281
0.0392416356352282
0.0318205783282783
0.0295968395094443
0.0361778505605449
0.0359421393431701
0.0341785505425208
0.0347027465349995
0.0409708891892098
0.0318327588493833
0.0403897283862324
0.0440853885015261
0.0402005426764044
0.0454661440714844
0.0392034206536007
0.0309745549825724
0.0402169444180169
0.0247143585198057
0.0362713293263029
0.051055552446676
0.0380123692933152
0.0378698734288882
0.0252676835264116
0.0430905049974629
0.0509017360543707
0.0280005870747345
0.0386493730486916
0.0493629694969869
0.0472432629007389
0.0361063837312928
0.0282578176284111
0.0374553042532845
0.0259309336183797
0.0356728192777125
0.0297848423371111
0.0247604174165705
0.0397246573238135
0.0220433089033195
0.0342403134818624
0.0319703643230541
0.0514117440759349
0.0739095392644254
0.0314183266302387
0.0646915854233787
0.0526622122852215
0.0225096837950426
0.0781697569446738
0.055658482453567
0.0378696177305906
0.0394523580684936
0.0363564337697172
0.0362565961562996
0.0474246619608491
0.024114609894277
0.0593517584337544
0.0624089039627285
0.0522460096764375
0.0355847800178492
0.0359097976195963
0.0166578990869336
0.039522313544867
0.0732124019919032
0.0368435763603063
0.0472299378089364
0.0424884436330866
0.0222738221477949
0.0570137044452286
0.0543764038157658
0.0425441798887693
0.0240914304510446
0.0391061150182608
0.0300541170955376
0.0308968683293059
0.0642934290567234
0.0470459172899841
0.0374785411405177
0.0175849797936461
0.0326982151397277
0.0856501772917124
0.0504487928848457
0.0420939991111953
0.0138655722931477
0.0378174963286037
0.0717893083718308
0.044886767548078
0.0292661501162492
0.0492264756261132
0.0481304755493757
0.0340105184850179
0.0287805642794488
0.0243396709464334
0.0413405008004977
0.0399805199013223
-0.00888081641246649
0.0450847798627367
0.0848945568211685
0.0613326651818177
0.0798743149945153
0.0503123773799441
0.0390960150752061
0.0378543849327674
0.0374453361122552
0.035150749205685
0.0396001320834472
0.0258316137465457
0.040577554513965
0.0609680783332593
0.0339219226864514
0.0373181892406415
0.0593531178114129
0.0416175805870509
0.012209148125851
0.093987399228029
0.0501288663343924
0.0311921396445056
0.0590057131731766
0.0555394620922718
0.0247012320583136
0.0427182161736021
0.0628630319294825
0.0423816035327448
0.0340353359151492
0.0251080938472722
0.0374817950877728
0.0574609340582182
0.0443897647380025
0.0396147563767451
0.0334809469824659
0.0160016184940787
0.0337966606547173
0.0698814136380722
0.0632730380185181
0.038677751835597
0.0400248090778351
0.00515596069637092
0.0486217759372828
0.0747942554837535
0.0384430407948509
0.0337968732465002
0.0313219373712187
0.0327744608952609
0.0316675229141587
0.0384270980023859
0.0273876706911977
0.012129586079385
0.0712934210709866
0.0488481201369597
0.0331784862528862
0.0319233347123972
0.0296629627203567
0.0178502824156108
0.0710062600441344
0.0682294834982728
0.0402085459191799
0.0373256876686421
0.0250827099971651
0.0539994032027214
0.0566327699379956
0.0355749819148206
0.0304353711492076
0.0346462660957905
0.0293109480760174
0.0305897826297191
0.0326117983700891
0.03845230494544
0.0324565554884717
0.0349513101560105
0.0337135489203807
0.0320063545543957
0.0391493469651062
0.044256616961506
0.0293988129534516
0.036048924887674
0.026545565962085
0.036913231999975
0.0516022640782609
0.0366592713815375
0.0325274186852737
0.0336795365422569
0.0282804467370526
0.0328928230884925
0.0276405339674277
0.0422950169025753
0.0272330130216762
0.0254634907875458
0.060357548130257
0.0499942288019736
0.0352525525284654
0.0234659284150981
0.0455556699420852
0.0520167247386333
0.0337659603109534
0.0344786316110265
0.0380330326184606
0.0286008154035926
0.0232054027765411
0.0583680927385234
0.0398766073269378
0.0288862287404735
0.0376160546391972
0.0472396204333227
0.0355061488600475
0.0214692350647844
0.00427427319981114
0.0948192740940005
0.0423879377897248
0.0212991447521808
0.0908890357212072
0.0633409070290291
0.0428549019734067
0.0326645559206952
-0.0235628956380716
0.10093604257138
0.101682430615902
0.0475941547315824
0.0322388911345168
0.0513134902049359
0.0330994779716063
0.0397768405724125
0.034796009742067
0.0297032292950596
0.063353563354778
0.0699796737993696
0.0802023872572067
0.0240094469666647
0.0494117898033213
0.0598615689403433
0.0396642173180582
0.0375227089262643
0.0327542583149342
0.0310080136303529
0.0443107034994557
0.0481221941728617
0.0447543839233644
0.0416855096976084
0.0352332024884363
0.0616007831010506
0.0438374976368245
0.0355124593395305
0.0364440950927164
0.0455188447052624
0.0349813598338053
0.0367202773486596
0.0324184178048539
0.0464939635372942
0.0321952183392159
0.0224992698211586
0.0754449769797062
0.0605804870110794
0.0291641590188208
0.0662233812707538
0.0420247061611139
0.0396632675500919
0.035931613132238
0.0347794923738981
0.0352105026501527
0.0339706157585169
0.0116330363335901
0.0613398439680904
0.040664082777568
0.0329699893786958
0.0328444478222928
0.0287689482307265
0.0349416442589168
0.0366736480210587
0.0294138864143936
0.0335593154661858
0.0296503881059973
0.020407770645076
0.0364164630872668
0.0635307673812324
0.0143966668560061
0.0670522121926127
0.0776381002102413
0.0402487561956683
0.0427274147218787
0.0306496101864379
0.043613242903958
0.0462866514344637
0.0312398938163286
0.0321059386904754
0.0305471172098442
0.0501599912607879
0.0446242208941038
0.0248133796693754
0.0332463932105461
0.0867421797347978
0.0918012815655928
0.0562832713557277
0.0463680788646478
0.0154121973171122
0.0565962544769986
0.0729712589085581
0.0486435016291913
0.0754753457174387
0.0359837440117898
0.0501173128753968
0.0357936090411685
0.0475402316809859
0.0359112530574485
0.0432631705788797
0.0413508043957736
0.0385757484009971
0.0392662256921739
0.0483545806226477
0.0311211103935224
0.0394367781547845
0.0769836437701307
0.0634625906398971
0.0412458891686574
0.0479097412829272
0.0280524226023938
0.0522438889235111
0.0601893811773684
0.0915151279837772
0.0876825604429019
0.0540694253021798
0.100147172108819
0.059426017167586
0.0581198761075773
0.0426246980298845
0.0465113835102054
0.052365620218536
0.0496918810357713
0.050720827650497
0.0513878125700476
0.0524668959923905
0.0580416222124856
0.0550239186483024
0.0557361345787362
0.042220429617634
0.0731750182657445
0.0619386714244064
0.0643249301745469
0.050279996674893
0.0498028940524634
0.101964806457283
0.113241962997101
0.0680744107548241
0.0669313235873734
0.0693324883256042
0.0582141317391259
0.0661194952669356
0.0571853759865667
0.0680905740555989
0.0533169308816733
0.0927835039587124
0.0890993707260944
0.0824184252511065
0.0902752825426544
0.0556215843556274
0.091367921370441
0.0767470852825572
0.0767494019385927
0.104419068817121
0.096185369280042
0.0603899549079416
0.0944179877326557
0.100868071771585
0.0814413754690831
0.105552444346008
0.0805040500790722
0.0786151941939034
0.0796374954916956
0.0889656425756921
0.0809091205704774
0.0944441996490398
0.0855080262080567
0.0962747845463716
0.0952920795365639
0.093454793993091
0.082487071080864
0.111707885533976
0.0934687289564297
0.0892969496408604
0.108446843823452
0.0895084108578773
0.103946748886264
0.083899062848403
0.111101905123296
0.116713281980266
0.103133003147843
0.1373825230449
0.0941798566257587
0.118484132910429
0.0997653023773506
0.113075414502474
0.0954390068303217
0.108238914959381
0.11010580083138
0.115917093937544
0.0996065223134083
0.122868186821697
0.117024192239772
0.113302201429228
0.11385588204877
0.116865579712646
0.113941542260257
0.126439264493475
0.126149265179515
0.118828206921425
0.14145134945859
0.161165980359775
0.13866304663218
0.158538648338642
0.124074442415829
0.151550453333731
0.132543774505607
0.145953747545549
0.129341711883204
0.157710187515848
0.127179953154461
0.155847114049298
0.132165544862623
0.158228355931476
0.148292650144735
0.150549885720502
0.13987902215582
0.162353867769808
0.15001221430963
0.155802327233818
0.155023099738841
0.164171355315354
0.145804951864731
0.180327128651359
0.162525901951535
0.180932406270112
0.166658720751507
0.181203379615186
0.170528962067372
0.180067271341711
0.172311914208893
0.164367731989464
0.17409382655474
0.189699643959399
0.180479097891895
0.191706208570952
0.185613113899442
0.183464895044106
0.185977086308299
0.185589487673079
0.188015424782317
0.199829771901458
0.187560749427361
0.20462566825954
0.196635790435404
0.197514206038636
0.205066732233295
0.212761363675879
0.217875670614236
0.225925906358912
0.210600777755637
0.215730399305014
0.204814376690525
0.224108157096265
0.215029608392321
0.220566410093796
0.212183752049069
0.23650591125064
0.216129996212563
0.224612271381576
0.233967743257954
0.252130793185144
0.232367851743776
0.259478986043765
0.234893945582981
0.250409543193378
0.240030758801686
0.243993727843383
0.238139627237986
0.247749859574296
0.24808056738693
0.259700935614455
0.249585711968834
0.259543951813813
0.244157232084578
0.257301638592601
0.26201222155627
0.272231755148198
0.256936374720659
0.28661435482883
0.267182017311074
0.277025966035861
0.269389704255709
0.283127811826864
0.287593989850269
0.274825616835209
0.274085635996213
0.300614305895301
0.276859231620144
0.305450384103152
0.28939210182435
0.289413645457521
0.282695119163337
0.293871022438491
0.291467120565278
0.313937275930471
0.307015725480298
0.307026511707253
0.305323467162508
0.313011957616109
0.299966623492944
0.331627540486706
0.286290522082352
0.331330506640574
0.301497103814633
0.320642643952856
0.308206094548539
0.328272672438851
0.303026398525193
0.331699882466487
0.326625410408098
0.344397637887476
0.322962443894321
0.341938413681272
0.332638150661788
0.347310720302389
0.347342949984315
0.344987011703661
0.337325568861491
0.350739631964804
0.337947767994966
0.358142835168532
0.350815462940706
0.362144677160568
0.343825345438353
0.367464332141778
0.350938169901082
0.365091726227041
0.355379415701865
0.37166939636006
0.351348682175426
0.375892649573487
0.34852397716705
0.399147598540179
0.359414918537911
0.386309370839778
0.367022900592568
0.379982853196952
0.358136700073267
0.390085811103637
0.373895705849045
0.387413501866906
0.370419044545665
0.391006110201045
0.381115044804914
0.404009543113093
0.374897692513355
0.406225115484364
0.376681495431372
0.413876081386355
0.396439714007285
0.418482558430101
0.409780560819561
0.408338899374923
0.393309649602975
0.421301284613876
0.398168747052486
0.418053652569462
0.402120007748223
0.414709405965231
0.402390616835163
0.434492978597956
0.414510742625477
0.436846151416061
0.396942636210783
0.429776437245642
0.404462888598883
0.404776348973073
0.421284916004254
0.424165662756954
0.426017505875142
0.442528204793877
0.425992986243928
0.460292149235809
0.412058379945057
0.445440184093747
0.414936440975936
0.452633537225967
0.412010788098267
0.433511990150734
0.430613239439563
0.442009940904184
0.44235130008224
0.4508329708213
0.437360342279382
0.449361260731436
0.435419169317168
0.459503530629423
0.430903130083113
0.462883408927475
0.436651890148944
0.460769520524061
0.455259431161514
0.459817189454327
0.456897437294035
0.483010361532847
0.442273075687162
0.469138828432201
0.437502562622233
0.447533935154306
0.447972116692305
0.45620809660242
0.442145342988273
0.456913001329708
0.430834665431919
0.476932629251129
0.460185257077778
0.470978461849728
0.45210424983516
0.46145498241819
0.445170139625419
0.468015627270901
0.450307180490159
0.449689016423158
0.438477120427389
0.485533195649493
0.453807689559616
0.480274151102077
0.474918890406769
0.472600242467115
0.460333482822357
0.483882780261361
0.45503597246551
0.470337334116871
0.461195658621596
0.473807162285663
0.453426482548103
0.490397947654542
0.457072530829349
0.490454613729664
0.463572140890116
0.47099838493545
0.447633831569518
0.477542815276201
0.461002530555273
0.481290963149017
0.474296896685184
0.466887358506414
0.449610297925618
0.471512486832541
0.463961118240981
0.469931474889937
0.454540010946755
0.493678945177599
0.46913295294255
0.46590614418103
0.453621947176186
0.475088107172901
0.463546962589971
0.479628303988268
0.467975676616539
0.477294648832667
0.457813775651869
0.47439390609001
0.468269338225044
0.47028392674469
0.465892768679975
0.502435924894387
0.456927262951324
0.469174630947163
0.452866649197472
0.490403353236372
0.460824380915373
0.472263411589445
0.454211037649734
0.468263848545026
0.452530944945957
0.472961682516225
0.457331154754122
0.469610984105143
0.450420908695725
0.472486918417812
0.451543253788935
0.471543099523944
0.450005129163608
0.48840536684646
0.426349684889497
0.47737838820061
0.459354456256502
0.46192099101514
0.45897371482767
0.461535212041208
0.446351113275774
0.451892641426722
0.447425485383326
0.474203117565281
0.451595877395207
0.481646166025995
0.442353135780834
0.464331735604066
0.446483547317104
0.440305679069038
0.45420533512948
0.445522786007314
0.44318035764795
0.459466432412479
0.438111920885491
0.468618766308786
0.437159454779816
0.445743507067152
0.438323866110028
0.46183079828961
0.430849952718409
0.446946939109744
0.433758043309373
0.455271248359839
0.431036255992669
0.455321435822792
0.428170920694607
0.441455093247286
0.423214266976991
0.45126994145622
0.42695790561721
0.463853405909773
0.423960639357641
0.443369837123393
0.422129739194041
0.430881977908663
0.412389229456562
0.43797282467645
0.427391110968321
0.453504061832019
0.418075238233149
0.439078455789166
0.425519714528923
0.431309325639565
0.412827619085161
0.432039038467545
0.423230546642392
0.426467536076356
0.417529938593572
0.415436413481735
0.417853405898587
0.417177368683679
0.409893893254988
0.424405960480292
0.398722084194163
0.415457310043718
0.405575749065261
0.406733047557334
0.397475680430497
0.422044796949311
0.391863732639388
0.414107972761793
0.403836536617552
0.399840998593283
0.386291401031864
0.39758152603688
0.390991397861167
0.398193682352293
0.390736015706407
0.408717441199005
0.385582415045105
0.395818955863254
0.376715179947687
0.38168101921032
0.378484151395086
0.393397464810392
0.372934238739777
0.38029891767793
0.387059384736128
0.389666710865825
0.377425133615275
0.385922450195115
0.371827332936239
0.388187000140625
0.371227544744424
0.370885432041769
0.373367506328933
0.378973866789744
0.364295513018064
0.36964208983646
0.36040361440428
0.367823641840108
0.354260465450891
0.370501310534906
0.350563365967561
0.371914602148743
0.355791873867217
0.364514034738864
0.346506576256105
0.360730626343767
0.346660820943945
0.359737982449709
0.348876892986771
0.348356479941822
0.346607344399432
0.355175091018282
0.333959496445088
0.348986286908641
0.325947529330534
0.335288740067613
0.334566890023637
0.339065156783778
0.33412102472038
0.332125227598326
0.322513860913114
0.342585123731463
0.322376963407312
0.336465487803652
0.324271078419905
0.319808622320922
0.324802877934591
0.312849673010819
0.318810213234601
0.319925173752935
0.302771629453352
0.319831325987307
0.308832850872088
0.305722466676192
0.313213672052156
0.310967666232235
0.298744885755165
0.302252108297395
0.296793633733858
0.304791041088875
0.298100166515252
0.300641837561762
0.293328217269958
0.301158916110019
0.298387509243294
0.299117112649582
0.282018173250868
0.291389288310514
0.283535599649456
0.282556670330734
0.275311272080052
0.287424116693031
0.277569578374362
0.281111555407403
0.272382836030078
0.273863685927191
0.274457841647348
0.269367708409102
0.264807756368683
0.274392123060801
0.266025545512121
0.272158119554997
0.271489853026614
0.276704204390232
0.268156401403221
0.263392673880397
0.264251610318386
0.266970664498575
0.251247011613121
0.26337964642579
0.245132578955344
0.256148310747334
0.257015331963952
0.257645292968694
0.240203626186218
0.247197296833018
0.240030656112355
0.248969850973996
0.238670911788185
0.244658887970553
0.235144902890704
0.244962150109238
0.234367966875143
0.235035105313376
0.229559316704007
0.244743044272697
0.229513882352724
0.234115916967427
0.222614224678432
0.227347769921965
0.228165570089034
0.231240434118752
0.221611315631377
0.22109827733184
0.209989031792243
0.224394150607846
0.216810553425948
0.214723130612773
0.215426426549551
0.217775066736215
0.218038096841428
0.215661665940089
0.206465243976495
0.214596690800023
0.203496329750549
0.209152628207385
0.204848582206117
0.20791005325342
0.199719914187782
0.207048670543627
0.201289439484788
0.203477836224176
0.192725271705962
0.197927412929768
0.197468765742863
0.196323227875971
0.186655469840214
0.198083675639392
0.191390463338409
0.197294777443331
0.191014395370017
0.194799689860532
0.189947069789393
0.190755207748135
0.185454611982837
0.187238960002575
0.183126816759959
0.183807433214962
0.182582711052113
0.18533218395704
0.181676743446506
0.177346786006677
0.172407152169919
0.180253964253574
0.176132179295313
0.175698353852052
0.1774622625297
0.17563169700127
0.169270936860653
0.171149707311738
0.170683614018141
0.170977888593012
0.168129658036055
0.174657525020176
0.166287814833381
0.161816570714673
0.157982757019764
0.164284100216753
0.158610731705442
0.161450916148042
0.158469662037635
0.167961174492833
0.159568097471251
0.162836934474674
0.147077472567451
0.158638022219811
0.154513428112016
0.150991716458934
0.151098026070406
0.153138825786221
0.149664462985644
0.14871886453031
0.147737340562129
0.151357569172728
0.145653776153639
0.14752730159082
0.145691466284526
0.148599152921769
0.137489428742807
0.145992920486744
0.145321318175821
0.139864820590731
0.138701157443186
0.145486642293047
0.134965232573702
0.139567890975807
0.138345133489522
0.141031781220714
0.127766987823033
0.137003044539163
0.130392916574407
0.135466712553233
0.12671509485945
0.136727512143932
0.128362299314656
0.134581836882618
0.126558217262866
0.130784136984624
0.128593005233932
0.135439754835701
0.126946429800178
0.124678396145191
0.123716560079656
0.124970101136782
0.126208703618308
0.125518450645992
0.117295405892581
0.12248642926284
0.116332034461964
0.117541299744891
0.1191587873906
0.124441514633645
0.115335352638078
0.116892523341987
0.112909906669946
0.122613448712883
0.110941741694867
0.116852425603863
0.110950079357334
0.110895099580787
0.106420652576631
0.108674822125991
0.112447654439053
0.115506762339131
0.108098009688168
0.11291038196274
0.109732737918518
0.111073485491308
0.106454431466654
0.108775569289633
0.103901817289114
0.110708260208848
0.103017289208826
0.109825843394193
0.106794082847855
0.106038658357545
0.0994458447296727
0.106761827684478
0.105396027229109
0.108293316361483
0.100747588678166
0.101631195009591
0.105650918790639
0.103615720456931
0.098508091056837
0.105779450192292
0.0980848896062358
0.100999562748503
0.102212740957486
0.108210594161498
0.103017679501248
0.10504947459604
0.107584677485752
0.103985853448612
0.104286236895597
0.0999981659931937
0.101918305544126
0.109388620476793
0.101706227706077
0.104427187918687
0.102362036597985
0.102277560052539
0.103269985270794
0.106572689838682
0.102680511828362
0.109202768825369
0.104408966571009
0.109451115368268
0.109112897604553
0.109371797346415
0.105827007504977
0.107574937773699
0.110089653218775
0.116552601824782
0.105637147189526
0.113025582747428
0.109617996547854
0.113426684518846
0.105312286220032
0.113835220380672
0.112764219945488
0.110421766072133
0.113064635460172
0.116926744223384
0.118850171432551
0.117015476178138
0.115612000168493
0.117757864603054
0.118259955170783
0.122716677697304
0.118304057057382
0.11936690452735
0.121328038572463
0.123009552233518
0.126582275094086
0.1239349971479
0.123995583230582
0.130012792181728
0.126874577502526
0.128733126065279
0.129327810824603
0.131301169419198
0.132503728898417
0.136206971603286
0.138461819402917
0.140106746247925
0.130879706736633
0.144821909480752
0.135786328375573
0.142518572133239
0.143091544889547
0.144895875947357
0.138124315003284
0.143305718526441
0.14453117173013
0.153149590174065
0.143575552431492
0.154172918299027
0.147167499182521
0.14852553835638
0.141950255199214
0.153334813105396
0.150436850816774
0.151551001726706
0.148595392760162
0.148955640812297
0.147574066878841
0.152182127258984
0.146304445386351
0.146974277716494
0.144414071857949
0.150253944046147
0.144638475174573
0.150810665403078
0.14670812146364
0.145987897268293
0.14400421171918
0.145831790468858
0.145602891023656
0.14648591387571
0.140909120532885
0.147786285068725
0.139989013476077
0.148657253567584
0.14187320055827
0.146687772257731
0.144872470616079
0.145953598596225
0.142434843203041
0.144346034867223
0.147166246114702
0.147481733002458
0.142031174639142
0.148323601478518
0.144541059755573
0.142473780487694
0.143273952184099
0.14624551046179
0.141166958326794
0.153188844975125
0.142093451707557
0.144996057843417
0.142632104648762
0.143271920853002
0.148309644626607
0.154385568948072
0.141835404681334
0.144086134250205
0.144755957584849
0.150998804001513
0.144546044042274
0.144714417316301
0.145684007643651
0.147350764479125
0.143880470805936
0.142438645878503
0.140625395440524
0.143936339166543
0.138841988610592
0.14191366591235
0.138249712064197
0.139084100834602
0.14022249305173
0.13917225035021
0.132100861859915
0.134971433302338
0.131716708545672
0.133509723641736
0.127188288616635
0.132842065986593
0.127439815548862
0.130247939087519
0.128451731805179
0.13072854627289
0.121917662802797
0.124573993515715
0.122320437702863
0.119680857925347
0.116545128623112
0.120266144897245
0.113718754284078
0.114163912774109
0.113289412902933
0.118434574936661
0.111525405473622
0.116850523146713
0.10823090094058
0.110517430072944
0.101677075586697
0.111503512601111
0.101006808555389
0.101508886651179
0.101455452260925
0.108194133902795
0.100999696297194
0.101516563048529
0.100540874158981
0.104600219031416
0.097845135740078
0.0998802684506581
0.098402859747798
0.100002190763826
0.0917435923579859
0.0953074270796444
0.0920143130476209
0.0959070566473704
0.0954107191962112
0.0959029786386924
0.096011930385039
0.095355516895072
0.0849121402754863
0.0948881915587623
0.0925543758464171
0.0939676662118456
0.086651256783992
0.0910864518307317
0.0866065192192196
0.0895787521653106
0.0839092797246491
0.0864910406616147
0.0852204502547762
0.087698787430971
0.0813914369384798
0.0860862316054409
0.0823159251969643
0.0844781433941122
0.085140690555866
0.0858193479052445
0.0803063667470115
0.0832575449693865
0.0823865260750029
0.0877885233482566
0.0803833733836297
0.0807295874763553
0.0842177901496495
0.084062878704918
0.0786284995129412
0.0827649781355998
0.0777833595481125
0.0781524451896375
0.0796080608664554
0.0763777395635399
0.0730897094204898
0.07845616926062
0.0765242349939899
0.0744882639735057
0.0734166996746311
0.0758071187198045
0.0707591713510162
0.0798145017181425
0.0752536532721828
0.0762194234092766
0.0738155900386856
0.0727967227105273
0.0691530535850705
0.0752707755885691
0.0683696199303261
0.0734872663398598
0.0678305880208429
0.0745120240399703
0.0736380681672374
0.0720329709521347
0.0750192799220155
0.0757002148234874
0.0689525517893373
0.0720868935600202
0.0723658540069698
0.0728358589643302
0.068546989819627
0.0716527190107091
0.0674952394424747
0.0702114010685045
0.0683043898516012
0.0729876682844925
0.0682165597532942
0.0729113402906149
0.0673688671845608
0.0673423937026372
0.0656200608316071
0.0703276971454959
0.067457551883277
0.0688400966086628
0.0699397609557843
0.0697999154491736
0.0666461266788748
0.0638405252020922
0.0681047473204751
0.0699293760407485
0.065943677367571
0.063750652127341
0.0689737000605425
0.0699446856971161
0.0701566187391452
0.06766698141765
0.0642840069938634
0.0670262054948724
0.0634363589263506
0.0630389780884517
0.0637508382025678
0.0631869327868784
0.0636688831619473
0.0654674927423188
0.0652836779472089
0.0637233307603822
0.0631596369553288
0.0633942638723064
0.0605104172796451
0.0662871282751927
0.0607623849107392
0.0621058954333509
0.0638206838291763
0.0638889632951177
0.0629242206637434
0.062621658851107
0.0607419269159952
0.0640582431716187
0.0597760009223003
0.0641981142629937
0.0649599760501904
0.0625282372690796
0.0622850857154782
0.0629964130190533
0.0561913642098717
0.0608173713912157
0.0653340219538445
0.0682744860478639
0.0611124281288709
0.0663828263424568
0.0667967248201372
0.0627468388023025
0.0644695289472923
0.0631856076205718
0.0615002505403907
0.0661954274218818
0.06327185381442
0.0641496605634448
0.0595504116201061
0.0625492055660243
0.0571673721211645
0.0607415922921466
0.059875315756188
0.0613275190600752
0.060640659313903
0.0576830003138998
0.0613393741777092
0.0594288325152359
0.0601770643335186
0.0600074436714883
0.0594024557867359
0.060457810596799
0.0588452631944095
0.0586914828432809
0.058257113354024
0.0546770869798632
0.059073423543892
0.0590400421496433
0.0540369089431174
0.0565072125856178
0.0534162189061244
0.0587504437328173
0.0558249983076524
0.0555686672505773
0.0572034230634294
0.055074262026123
0.0540450206596421
0.0542418513275248
0.0534246661059632
0.0563869402333354
0.0554173389551978
0.053404814912676
0.052222868363828
0.0526762348727474
0.0574526376381496
0.052751290465379
0.0511802929167105
0.0564748704925143
0.050861749659434
0.0524354186597868
0.0488264618370236
0.0525790670834811
0.0515880571526123
0.0528730030955301
0.0517273513569899
0.0527927405096888
0.0531950218435869
0.0546477300243578
0.0505887147200697
0.0521374870145278
0.0499016732369153
0.0536547927405688
0.0545470705288097
0.053660367189134
0.051050835706934
0.0478172574434342
0.0493343425849048
0.0532872302332163
0.0478736016700932
0.0509138167139217
0.0504489350741749
0.0500590173694212
0.0447224177946045
0.0497543415530916
0.048635899541486
0.0505756979377781
0.0465733922918798
0.0436204672176856
0.043504631048973
0.0483260020833615
0.0470487808646887
0.0482871684318626
0.0468682417211003
0.0493067031460159
0.0477630646135532
0.0474703367357015
0.0456419885970093
0.0479953568562019
0.0451711035532365
0.0431807195938542
0.0420326415988074
0.0435374254666956
0.0423254777512784
0.0417419699214426
0.0415564460329324
0.0454703428652919
0.0423643070369805
0.0463418328124873
0.0417659788802919
0.0407267271044341
0.039927249150043
0.0436048287531743
0.0400985988435108
0.043407652214024
0.0421075211158739
0.0421079094580685
0.0396492696810578
0.0402104513345081
0.0401283797338287
0.0414513107601297
0.0353745618446286
0.0376262841499072
0.0418684715905634
0.0411066402569999
0.041166897810144
0.0455766077404657
0.0387432812405563
0.0397903005726849
0.0403814661933874
0.0436757542929545
0.0395198280267475
0.041052932862545
0.0404850457395345
0.0401700765618513
0.0378105264398398
0.0399281111830393
0.0365896131505456
0.0387647969800145
0.0394349635921523
0.0414121469448939
0.0394472642588929
0.0385908401542787
0.0364195774983633
0.0374241109634501
0.0376821378802448
0.0430863231772227
0.0398516033513572
0.0408506864705822
0.0379743285225051
0.0392695551052678
0.0363193712802417
0.0380997718211525
0.0367985406874157
0.0399208554752077
0.0349596734715511
0.0366179277960857
0.0353265949735709
0.038453372713607
0.0349435699133689
0.0381510204478728
0.0363711034786797
0.0365287792387445
0.0334104982250194
0.0350154738105743
0.0355626553985856
0.0312850406326072
0.0346725972917463
0.0346206535739106
0.0331594471257172
0.0366428975429301
0.0342046699174952
0.0361756893467395
0.0343955957527753
0.0344464939803552
0.0344611913997743
0.0366894686922813
0.0346708876163955
0.0374550413718492
0.032311001306929
0.0347242004479016
0.0324534238554745
0.0350086049812889
0.0327006296641953
0.0344405342201963
0.0365203283638017
0.0343936131483442
0.0312077605583929
0.0378050604233853
0.0332147207797512
0.0331582090090474
0.0339972347180976
0.0354240545582054
0.0346646179880497
0.0325666567969507
0.0350571205010832
0.034969731990262
0.0339972304739687
0.0336964742778272
0.0354547387499084
0.0359161502220604
0.0343206701861022
0.0360148304343974
0.0324059678197718
0.0348787982622706
0.0359837586514898
0.0359532337304966
0.0343696501264529
0.034798757117593
0.0322753101249881
0.0341695672091447
0.0323810040293703
0.0328174181090203
0.0323324390332029
0.0343751716311802
0.0334644550688047
0.0323184673889186
0.029644060246061
0.0291535521037532
0.0310986840708556
0.0326045737338495
0.0302891107151747
0.0330133497026968
0.0285160793241677
0.029655662957323
0.030173144598725
0.0309169549282725
0.0290943068540832
0.0324536209050604
0.0312927315546291
0.0295649111836299
0.0283570831423982
0.0312114274469817
0.0303033429229853
0.0300834938778724
0.0300264406725111
0.031394409189847
0.0268687465177379
0.032493431405613
0.0294061689564842
0.0313345245110048
0.0289555347262262
0.0313309443511316
0.0307056622026153
0.0307828284798185
0.030009381716321
0.0310049861694064
0.0305006426222405
0.0326982877712341
0.0284748863683525
0.0341295822399777
0.0327836079307778
0.0313420651853644
0.0283850618430466
0.0316499167254776
0.0290914424228597
0.0319031447959818
0.0284358165397809
0.0317647332365071
0.0275106984141558
0.0326971698374686
0.0294248155993734
0.0302245490174362
0.0272763646991155
0.0311989804853052
0.0293558287111367
0.0333868541369786
0.0298769305329885
0.0304502395129757
0.026476037053704
0.0286768975124846
0.0299742846602631
0.0303459556308342
0.0273878800989967
0.0296284030543854
0.0284501932086923
0.0284021377300965
0.0261291860433457
0.030490639918953
0.024386138365646
0.0253396512656047
0.0252235261858499
0.0275886909303351
0.0244110887114256
0.0273958510836852
0.0273637119567557
0.028834662072695
0.0231451962171404
0.0278360799562966
0.0273099843674521
0.0249601833138702
0.0245280551024607
0.0273207626111988
0.0241051381825166
0.0276775826258814
0.0246592481432121
0.0278043937750834
0.0242876137010853
0.0254266797313659
0.0266241583697434
0.0266902939119096
0.023896993824811
0.0261810250055383
0.024029786615334
0.027164161038085
0.0269152068723169
0.0269037370689294
0.0226102504128179
0.0274657693683388
0.0254168874873759
0.0275743573930757
0.0220621770636367
0.0243459463613546
0.0237000696808249
0.0253532942297147
0.0241688232344284
0.0272364262031259
0.0236106061599292
0.0270249519765161
0.0237875350810297
0.0253746939869209
0.0217202466625142
0.0249502890762306
0.0228370581093252
0.0245682824994431
0.0251046374041067
0.0282167316957279
0.0230721727424272
0.0255259084088245
0.022699255911283
0.0244753597317792
0.0237210307989029
0.023889936197294
0.0240282325679954
0.0245715875087408
0.0226747633226373
0.0241125845156061
0.0210564604128455
0.0243934996471611
0.0230673550862933
0.0251681621379467
0.0205291806769502
0.022018979242492
0.0210623713887388
0.0245840937692026
0.0214761589908355
0.0241105583371502
0.0213408454667272
0.0215505346985832
0.0202434192444513
0.0248026742213506
0.0214547382077944
0.0229614939624584
0.0189981029809938
0.0233528430443285
0.0203064373715593
0.0225795007617671
0.0192415327574288
0.0234612260454013
0.0212846632965632
0.0254612216784562
0.0198270867032978
0.0202796256349763
0.0189031070695132
0.0252446386131155
0.0198602145358925
0.0226899454640037
0.0208486545185067
0.0232403709816745
0.0204709232271483
0.0253257046182739
0.0207247788584177
0.0253644291206658
0.0198708579835515
0.0253956488592747
0.0171037151905279
0.0214491724187837
0.0188993141040144
0.0241949102713127
0.0203239743916294
0.0211847400678774
0.0137444397124419
0.0176261528905099
0.0111026486406316
0.0152016168671484
0.0131172761499147
0.0230111624986352
0.0175167673060383
0.0206320668790991
0.0062437178407722
0.0149487901843064
0.0165834955160934
0.0170306563155413
0.00345770288934769
0.0243533616099724
0.00764450430129349
0.0165040056611776
0.0145647809008628
0.0184927583591243
0.00553951551001048
0.0164700785209271
0.0108748537431544
0.0248828800176852
0.0115627932926578
0.0275350799462901
0.0164484365031358
0.025806756308916
0.00949786516178382
0.0268241762797475
0.00816077875077493
0.0240687262027074
0.00955074121125129
0.0250027130141796
0.0076055435878672
0.0247639819602748
0.00762261214739084
0.0244259334831394
0.00672984401933086
0.028094589869616
0.00787506828203884
0.0234084706677486
0.00141380049990509
0.0174482823795268
0.00660364174212654
0.0258939215942851
0.0124596066556716
0.0247341238719576
0.00839108354689315
0.0130387016986803
0.0131556020421895
0.0234888117990587
0.0188274059666085
0.0118831298142872
0.0233290808131818
0.010755373793071
0.0332025538354897
0.00122389697198646
0.0354100138895205
-0.000334478835457188
0.0473123407892941
-0.0100740071552395
0.0455780315718765
0.000151466326067317
0.04399637171323
-0.000803252096991267
0.0434017920220916
0.00688836552450049
0.0317919796047837
0.013164393142499
0.0215451534342274
0.021150827613128
0.0185710878870327
0.0213925865245806
0.0173618266308725
0.0215027205966994
0.0213025697818986
0.0186303664553541
0.0245563335252
0.015364847732767
0.0233890297269169
0.0147682481872767
0.0220312289979522
0.0158776896462424
0.0202353185786708
0.0183281829221557
0.0179784153538789
0.0163782869955778
0.0202891252704963
0.0146069298733571
0.0195678399865924
0.0167367268968936
0.0208819749968764
0.0154905444086497
0.0209682774695027
0.0160707732126915
0.0205504465244182
0.0184702660668615
0.0186938869024233
0.0154097283184643
0.0201029850721337
0.0168047051418552
0.0210720272684288
0.0190722744024165
0.0203206350820969
0.0160382908978622
0.0188216633027974
0.016084150828908
0.0182159037337779
0.0175226475292491
0.0182669510767682
0.0178146328728215
0.0211038586714478
0.0162759501469146
0.0183950028857876
0.0172012063168467
0.0190757202543026
0.0162393203392796
0.0206117518261026
0.0174259865217525
0.0191269229354336
0.0196631303808193
0.0207830122282067
0.0173563890903297
0.0192016706766566
0.0182623540839568
0.0216128226603373
0.0166254267431919
0.0213426673439861
0.0201724939362599
0.0197176959435236
0.0180481148514422
0.0195444135400425
0.0179702810151961
0.0173893685223139
0.0172219916763974
0.0204200609580299
0.0173368933574936
0.0189656971882866
0.0190839735124958
0.0178308122762708
0.015938022387551
0.0172911823276417
0.0167150007470751
0.0178914515741125
0.0194815751702017
0.0186199547186428
0.0164011708883934
0.0182988756495501
0.016480020128356
0.0193185600475707
0.0191514626780119
0.0171466271694284
0.0182711527999763
0.019466521682896
0.0160663407990572
0.0184495643455402
0.0162561657345174
0.0179506376328528
0.0181608188188245
0.0188232539393856
0.0170151737603951
0.0167564545088012
0.0189104452858307
0.0197662402231489
0.0163942545953297
0.0195205910545409
0.0185089440835155
0.0183506159424959
0.0166806794821131
0.0176800668591653
0.0165323530425981
0.0174864786617117
0.0189849422538671
0.019829335768574
0.0169320021574247
0.0179948167174128
0.0177984847747026
0.0190304809483446
0.0177380924570265
0.0186634376020072
0.0181747151380446
0.0207632853301545
0.0217640769178836
0.0223465726777933
0.0187466810378944
0.0180255405374817
0.0192813696534125
0.0197341510144568
0.0177109549972541
0.0194164743910702
0.018616314831734
0.017879115501524
0.0185894705651711
0.0182970044534238
0.0165211357450287
0.0192390493723286
0.0194199655372158
0.0192249201254064
0.0185008903829427
0.019030838772971
0.0183484746738679
0.0178024919852767
0.0172577765035043
0.0168125936595499
0.0183116284615402
0.018413598395402
0.016853833021096
0.0187529883678856
0.0192785659238936
0.0181211322747727
0.0170423242019505
0.0184719488289891
0.0179826447293306
0.0175315423919232
0.0178242876784853
0.0189528709192234
0.0194172779706959
0.019017147369685
0.0177737794079552
0.016435766827427
0.0186507451384293
0.0205988737531174
0.017940701638257
0.0182136212892656
0.0178263785214093
0.019174393172255
0.0189250690174716
0.0196827179626983
0.0183104518371169
0.0184871714540657
0.0179718262680201
0.0175626967218872
0.0196932754095568
0.0189291480561158
0.0185794773515491
0.0198652363875018
0.0186675388117512
0.0178642685273071
0.0168829156576999
0.0204149187927449
0.0200542359719585
0.0186418045071853
0.0198545101147535
0.0205009393620375
0.0186803416447768
0.019564662491221
0.0187874926136661
0.0187840755210298
0.0187460401987848
0.0193400615702248
0.0176782404800922
0.0173696567396556
0.0175661623231693
0.0182526137687527
0.0179883154161686
0.0199381256777516
0.0210506432368189
0.0168558337994257
0.0188948547659464
0.0199355440801706
0.0172576037864236
0.0165631923297574
0.0185755759354881
0.0183638264650318
0.0160707057927786
0.0164589654226341
0.0164952715771035
0.0181617737792412
0.017750045952596
0.0187935619938127
0.0163959055785964
0.0176646732548289
0.0190277745369823
0.0189837873444145
0.0178120130013322
0.0170033268877244
0.017917798908083
0.0174425442207107
0.0164404463446445
0.0190074901009727
0.0174767272379418
0.0155082103927964
0.0161378440911154
0.0191349605980788
0.0193716821542652
0.018668434360901
0.017665242588205
0.0151227724093221
0.0172581930484197
0.0189515860599198
0.0176960162878925
0.016831445360597
0.0175656480245808
0.0171042700294613
0.0170568309285095
0.0175564161699736
0.0180384239783043
0.015935099207724
0.0173535837275279
0.0174278163137259
0.0156419441055862
0.019041175027828
0.018512080118556
0.0173250048296975
0.0190176188564693
0.019602485977789
0.0179490174577118
0.0158930850948467
0.0168790631971981
0.0175050123800593
0.01593755808976
0.0180018258489773
0.0181360687462987
0.0157910301706114
0.0153226298457721
0.0158548898438003
0.0157192011008552
0.0172874162248236
0.016681647470563
0.0170451425722515
0.0156345392189645
0.0147991223385797
0.018654940844844
0.0166672506413117
0.014869650370879
0.0165800743969559
0.0181054130272685
0.0172621450682476
0.0143134575739532
0.016103802935203
0.0186630824539288
0.0176939596725481
0.0167385469197465
0.0173445162759654
0.0166153038968543
0.0166207035276001
0.0166268239841463
0.015306977856547
0.0148325867381271
0.0153764612287101
0.0162477693490595
0.0163983860564865
0.0163980595971614
0.0177959006873776
0.0173275247977791
0.0166997903216905
0.0156050686616224
0.0157428034206252
0.0149123941271794
0.0148721880196048
0.016185799382381
0.0166194643976059
0.0154691074890038
0.0157898603140796
0.0185921301357263
0.0175101708658978
0.0146979333259565
0.0157955320158494
0.0157003162573578
0.0159597339952466
0.0160364405996445
0.0168905436211197
0.0175858282460237
0.0175583849842066
0.0171080586703693
0.0156510317057033
0.0163720071516271
0.0177975708992106
0.0163857025277181
0.0148151448863107
0.0150313375166127
0.0158471911067252
0.0165936446792952
0.0153546453053317
0.0152305278120426
0.0170183585122951
0.0149265273082234
0.0161711074853132
0.0162968893393438
0.0158644699215678
0.0159925395832006
0.0164155939282106
0.0153700003840108
0.0192899029222483
0.018266727003121
0.0148535959206065
0.0142565791477271
0.0136374224683856
0.0175193670153915
0.0155638399466336
0.0144373440468387
0.013572399446006
0.0130443954159421
0.0157538268979502
0.0155631800178961
0.0153047082838002
0.0134210593776443
0.0129999992877506
0.0141894201872945
0.0145909475588338
0.015163701698459
0.0133042066497703
0.0155161929344082
0.01445795390844
0.0120257625906072
0.014452318505287
0.0151384431302653
0.0144015333637356
0.0111255617625904
0.0150681173823331
0.0234853764066678
0.0147531969600186
0.0163340226345954
0.0175440412417545
0.0158604557621558
0.0135524304459787
0.0150388564462644
0.0144258085844022
0.0128969446804897
0.0150873924323637
0.0156315191971524
0.0130260435233383
0.013326844089703
0.0160251281670729
0.0151482058971362
0.0142171639910434
0.0155982417914788
0.0144024017155505
0.0131574631919006
0.0133120161252237
0.0146718694040362
0.0144718076027656
0.0147099772003059
0.0139683487272493
0.0148576180759731
0.0122783095082099
0.0169613386927121
0.0193254758960172
0.0145073020181808
0.0128770875110523
0.0135405913267672
0.0141017732283067
0.0146992000631916
0.0151228665353403
0.0112074702956589
0.0132226136827234
0.0148316852718087
0.0140106536305939
0.0135167781434403
0.0135391999729385
0.014765979860532
0.0138601582350834
0.0134131610740481
0.0143976765664948
0.0121653104421288
0.010436009981918
0.0117657101599198
0.0130723567859375
0.0138200081068708
0.0152426522964399
0.013708181094858
0.0122136565708234
0.0143496723727981
0.0263708534384518
0.017645850791037
0.0139658162020611
0.0133195426755185
0.0131491360217533
0.0147607203775832
0.0137769521126753
0.0122981309526442
0.0151649844375259
0.0132301946075991
0.0116897157035205
0.0106053773844361
0.011843186652818
0.0136091557634992
0.0117042645274514
0.0129181182990897
0.0137963995361385
0.012400003789188
0.0141222407158591
0.0122957826243811
0.0135876902942214
0.0217383136675649
0.0167236852802706
0.0140048308959338
0.0134040624879648
0.00713181751628595
0.0285790496181703
0.0237796718706701
0.0119024677633298
0.0169810226404005
0.0119994185074845
0.0118791587382327
0.0135518293836668
0.0124588751368039
0.0106612408869913
0.018760775076882
0.0151453889999975
0.016777364420899
0.0141772400596012
0.0131273487150895
0.0145514310266181
0.0137060471711949
0.0116538617305376
0.0125905769394012
0.0122373932264975
0.0099734286338177
0.0100575139349167
0.0120488366724281
0.0125723345216429
0.0111445113653002
0.0138260096669796
0.017684527972081
0.0126622865645195
0.0122921009195997
0.013902034256916
0.0111541727170843
0.0163758876076224
0.0265175915663945
0.0141520073089913
0.011748438698888
0.0124067500111039
0.0129950315588194
0.0131458825442927
0.0130891600686154
0.0135361722334193
0.0127166048466336
0.0120650065416773
0.0136181824775758
0.0122700683697483
0.0107550209388808
0.0114989759005616
0.0129214044329052
0.0117516695568487
0.0127827149943663
0.0144826077245107
0.0121631262713528
0.0124579454909857
0.00967427235713947
0.02378934607139
0.0265241813291969
0.0194560307536603
0.0209267744176056
0.0152332637582766
0.0139672278333461
0.0117471294174447
0.0133219044380312
0.011050816140983
0.013208401241716
0.0137591778512739
0.0140978443795532
0.0145181995756311
0.0143635047870402
0.0116173820296787
0.0127213322697533
0.0127193711347535
0.0132481696065504
0.0120713795867556
0.0140622129739632
0.0129718043953758
0.0121402538504377
0.00974674667422803
0.0150691583587597
0.0168310189946945
0.0144296000582223
0.00567767455448098
0.0233589834796634
0.0366729503122839
0.0181856539265002
0.0177444807345171
0.0122632407805759
0.0138620636046245
0.0117443385197982
0.0136888973365625
0.018161239819106
0.0138070188338446
0.0128840079618372
0.013998098390119
0.0148951711401485
0.0136163732625743
0.00870169479587521
0.018474807972694
0.0355064685519571
0.0228464322698086
0.01680232625898
0.00967544142619644
0.0169948228282026
0.0370037593985486
0.0182803801009443
0.0139914978040273
0.0164034279656115
0.0116847340862717
0.0114912375712146
0.0123809515081006
0.0142733360572954
0.0180234837547385
0.015390753458509
0.0128163441019439
0.0127705511695867
0.0110593544971781
0.0139842634894588
0.0145770947060602
0.0181205763080237
0.0218521595903917
0.0146191648952928
0.0144228001125412
0.0163149077025931
0.0128562557624277
0.0145830254898423
0.0156943459177967
0.0124784006317316
0.0160618976308727
0.0225727616556531
0.0157612517010002
0.0205146041165446
0.0260386047897131
0.0163435309609194
0.0155162164895668
0.0197498749405437
0.0226714899774009
0.0099274205416825
0.0151845659047771
0.0363630199460733
0.0300134534747433
0.0275195447846093
0.0187712660178953
0.0149267406752747
0.0153451773953571
0.0119146575432115
0.00939100611753625
0.0229769961499703
0.0201324996611262
0.0138540740945479
0.0122461508608633
0.0148483441925171
0.0238931983397149
0.0178929664253623
0.0162290800868677
0.0145096625092116
0.0102289635487796
0.0244501849767205
0.0208277198826589
0.00991912830153134
0.0336063683583304
0.0307207337219971
0.0319544293312675
0.0219372802306465
0.0132425786788286
0.0340846501716423
0.0246302191800133
0.0162715706050935
0.0168318067350425
0.0147460536308371
0.00855863417902719
0.015032428497726
0.0418953051973024
0.0244463263577025
0.0163480116796786
0.0183341322120569
0.0167872955907757
0.0340302226215358
0.0287431665060837
0.0161448428774148
0.0190991372800386
0.0177359815298777
0.00874365649219378
0.0395706532096564
0.0356895820926188
0.0257992835030734
0.0382617592082629
0.0322105888879343
0.0291776635171055
0.0257480874970462
0.0179401945202596
0.0286977276255423
0.0321072057606964
0.022518239710971
0.0118006543012755
0.0274274467548591
0.0351904876933463
0.0224108995964146
0.0219377704117527
0.0203454599629509
0.00824247451761272
0.0380100174274817
0.0712383686429455
0.0476271906743008
0.0257814065459558
0.0245070642745361
0.0381370480779377
0.0287277228054126
0.0230842676434622
0.0223513047314952
0.0207664613919552
0.0221254676951599
0.0206068293780357
0.0302722207779195
0.0256137980737843
0.0268258506214986
0.0237712835566897
0.0220928959800399
0.0328703118752766
0.0656584433222243
0.0537225813497835
0.0344827269384777
0.0386852128113818
0.0427707564619971
0.0347478983437662
0.0308937883343077
0.0267766512907697
0.0310047861445075
0.033271587364918
0.0284046396126106
0.0275519689659535
0.041156083071441
0.0340148983900998
0.0459375113944777
0.0476448238210603
0.039790485296117
0.0252005672490998
0.0300995933509487
0.125011210105854
0.0693223344060486
0.0468162825175188
0.0369763192183335
0.0432059011400762
0.0854112309409365
0.0591616390244549
0.0396026679923312
0.0428945244041759
0.0401859267929171
0.045203638493285
0.046889463299752
0.0500772675661425
0.057742159758768
0.0499164153633716
0.0380699742307007
0.0522242126633323
0.109783298901435
0.107076253582818
0.0731224965937967
0.0602125310975094
0.0682372084762911
0.0731054917102053
0.0589847791691652
0.0654669101295258
0.0522439240298611
0.0674333492895626
0.0999401552140173
0.0822208162905819
0.0660792856105958
0.0751070936260733
0.0762540826820542
0.0728522636838459
0.0986093188521208
0.106101570150477
0.0843912362891532
0.0763457176640596
0.0796835868682524
0.0764094469252502
0.0784532493518337
0.100133288345965
0.0997825291906253
0.0898976723096289
0.0903186438361353
0.0928248516917004
0.087007369211906
0.0904523384604564
0.090515623241843
0.0931179867625128
0.094617338858673
0.112278203609934
0.197304826462195
0.125403147110242
0.10302966245761
0.0963512674879901
0.0965805452932948
0.109566049498736
0.110569629640249
0.12722254935267
0.120010511851071
0.102603341236099
0.0946812284703102
0.101346210573602
0.0966664796866984
0.100951305134664
0.0952421104979752
0.0953944914825371
0.108497537664809
0.0904216983452904
0.116135857481054
0.146781005133833
0.115286602267816
0.0928513772838459
0.0981349609419959
0.0921603548816578
0.0983296802341178
0.0872986044570431
0.0993451482200952
0.102371979252268
0.100519676817719
0.0912928353200744
0.0862525206461121
0.104746211200703
0.112403858362312
0.0947737003362371
0.0923178383965498
0.0908042676993605
0.095790832370174
0.0782625411680181
0.0910729049594563
0.120238895596841
0.0991745972114613
0.0877186212880663
0.0907742374681501
0.0857814248076033
0.0917073357773548
0.0857456944590722
0.0909958541156931
0.0858495490704253
0.089284306694842
0.0919941137649716
0.0898031390062724
0.084578076351585
0.0880792150796779
0.0892567222954108
0.0876040787777904
0.0916642713572154
0.0888664868412443
0.0852029984425423
0.0859295983967354
0.0890563570686535
0.0879952505938871
0.0876936415761271
0.0917351926924239
0.091608513550879
0.0865598975211758
0.0872971979799387
0.0891028078266944
0.0867904852023999
0.0876859914005124
0.0878616248655123
0.0874199821487057
0.0867908725205345
0.0839794429521371
0.0860189197766598
0.0842262909371207
0.0853753633689562
0.0823971016405698
0.087359313435698
0.0823414179830832
0.0865132243664225
0.0821693859383124
0.0757337927648391
0.111994485113511
0.106557568115392
0.088465301570028
0.0741844448914233
0.0812278500297915
0.0721230855756078
0.0742033119950779
0.093145376281909
0.100195122795643
0.0770943540264095
0.0729385203228371
0.0678774860907572
0.0804423795049854
0.0756202541104211
0.0727300877401267
0.0673681621609675
0.0639468035283493
0.0894384668013938
0.100385985466594
0.12759053180054
0.125198810253059
0.0899990433394645
0.0595850345766424
0.0866010605420676
0.0882554807757859
0.0722488922498256
0.0551025171092947
0.0635193168791549
0.0730071954855571
0.07344152674377
0.0653798861930457
0.0586262424516208
0.0522400048058936
0.0693234742199958
0.0833380200420241
0.0656298871488751
0.0768277876843354
0.0778887155018057
0.0672164881860864
0.0737552546111422
0.130268462374452
0.0871209336865283
0.0604193519428238
0.0609025796452135
0.0501329493546682
0.0650961812542696
0.0790091375060418
0.0722942680529997
0.0639647212678545
0.0518272590102237
0.052947041416589
0.0545516058725877
0.0743717012728974
0.0502996739222178
0.0654426110563753
0.0668391276085491
0.0621174636861164
0.0527383150870925
0.0631638435248908
0.0809358412962976
0.0920311562250232
0.0638111392672041
0.0424780620415694
0.0728935471133485
0.0745002730348784
0.0655215582143374
0.0590483803832945
0.0482271217845597
0.0544889799143175
0.0617622438713119
0.052000168085193
0.0558994213115899
0.0582586146765616
0.071724341224812
0.0743238335017529
0.104881408037803
0.0935162114740093
0.0608095738998039
0.0482673152440272
0.0467954787463872
0.0530842449598353
0.0463335369263939
0.0425953008318333
0.0612920313972087
0.0516377656667183
0.0586147892910308
0.0644524319165793
0.0639463196521451
0.049465737859353
0.0482645310187087
0.0434431348227986
0.0531707603979243
0.0772613246509814
0.0912934954207497
0.0577658966571329
0.0631357316994587
0.0634021009729281
0.0663429907702294
0.0520835723142017
0.0626945665954666
0.0550030635857704
0.0615215955907145
0.0643300234777083
0.06792425388721
0.060431803718873
0.0668513897896503
0.0549731214033493
0.096831697646284
0.0827212256518201
0.0812822490215017
0.0725850325248214
0.0986179708746285
0.102123341435505
0.0945730030928326
0.0828037818268869
0.0837381991882622
0.0838898917254367
0.0830548267369832
0.0749426568532836
0.0982085331438768
0.101939425963207
0.097214943229028
0.0850875466798591
0.0958893082407511
0.0833162703243868
0.0945722149162866
0.106257248602582
0.109267538679638
0.132501374363692
0.129269952265058
0.12048582097434
0.0973995907594685
0.0995653953243884
0.100364989828905
0.103767064311223
0.102056642254633
0.0925473787232656
0.106337781677409
0.11799675992529
0.10906236975091
0.100324741453653
0.0988550567872895
0.1002621107607
0.104682151947216
0.105349531843334
0.103385107005433
0.101357843033944
0.110437843255736
0.0981983084962084
0.117016559948904
0.147398133760548
0.128669610210212
0.109750015086896
0.113012207256007
0.123323170744482
0.111740036838141
0.111805385490049
0.125752089786535
0.127157548211639
0.120576548105303
0.11984788505098
0.124189971894459
0.11704383268296
0.137908918889713
0.133589319549548
0.130281821087105
0.123853336160847
0.115077516408036
0.153242524166587
0.14925433620291
0.146934130744503
0.132668633564041
0.142372526192416
0.123156079777394
0.130091488491689
0.124766136242953
0.134064369485327
0.129593018262391
0.130170762941044
0.128259541665601
0.126345075920339
0.129845888192997
0.121225520588234
0.130439405421127
0.138380909591513
0.131992015038126
0.126869900635235
0.126783112363313
0.121316783312649
0.123780956076593
0.141214575202011
0.133920302043421
0.134681395956197
0.122717501736175
0.129391268867172
0.142095525282806
0.138367449638013
0.126876456200664
0.123785880666669
0.121322216588055
0.126309533421377
0.117867266395317
0.132451382850817
0.13072156041068
0.13766281536907
0.123142446471253
0.131466606710809
0.124799074849933
0.130367154160231
0.127159157975428
0.132238419632317
0.128805346795209
0.136566328755853
0.133526177423196
0.130011470060343
0.132632545100715
0.137138809970674
0.140962965949609
0.141525744716015
0.132352124755484
0.130365633559111
0.123696787962749
0.131848313944977
0.132282408343265
0.131616446834578
0.116213039173788
0.128165681008396
0.114514158711349
0.1326531626213
0.131595466914607
0.128921946535086
0.123499782212239
0.119280447931644
0.114695707521074
0.114772937381314
0.114792019872707
0.110075077075299
0.111852837964156
0.112028963030377
0.110321529695534
0.10790519030491
0.109152798075089
0.107178291353773
0.108155115387468
0.109164714129091
0.107425552026289
0.109421050988703
0.104886641509613
0.109145267832825
0.105712340244259
0.10636002268626
0.102095429381305
0.106122537856448
0.110366028437182
0.11643726484347
0.112743063368959
0.105626033079294
0.115560112402841
0.106697526020083
0.106888773476459
0.100319957302807
0.10745308327157
0.103500540859029
0.104441693992107
0.102928420475733
0.106648921171547
0.10477590994808
0.103838729865262
0.104714743595742
0.104021830047078
0.102248334757211
0.107466431396864
0.106312549387073
0.105002375155348
0.104369035728576
0.106580491336054
0.107921025950644
0.104314153687193
0.110288146941139
0.104244222111368
0.103415342050014
0.104809175695847
0.108555688916493
0.108573196439994
0.107586438448599
0.103871772149462
0.104324231511736
0.106122882682418
0.104555986783093
0.10273416128911
0.102224062700325
0.104536328319201
0.102435233834943
0.102271110028301
0.101880052544164
0.0999627842912406
0.10155544212764
0.0971332173936514
0.0951807014596166
0.0953801971412992
0.0979106550861554
0.0937462628427475
0.0934066840705461
0.0937928325177473
0.0921394925514169
0.088274958850697
0.0911758162953876
0.0880674803472665
0.0884722133516516
0.0866933291756807
0.0896726086607399
0.0902184879422908
0.0885893515455237
0.086863696821513
0.0857946467330879
0.0857608594671254
0.0855831242737636
0.085749944305654
0.0870780180959898
0.0863022785768667
0.0892684019047868
0.087565604216606
0.0883221916036743
0.0867381137944923
0.0887115770693189
0.0867356443969797
0.0901483141303396
0.0912837833033315
0.0929182556463873
0.0905197048143322
0.0917651051052597
0.0926964817640578
0.0932366855470878
0.0931440876098096
0.0956038051301309
0.0951475082941937
0.0953816161787119
0.0945166254466691
0.0957141625797114
0.0976548208323323
0.0965739074909915
0.094608360880529
0.0931335479567438
0.0947775407611529
0.0955933770700148
0.0943591269691336
0.0928683990518561
0.0947879718108991
0.0943347013185055
0.094116417408405
0.0942735426610155
0.0933497984745899
0.0948093586827089
0.0931328506513828
0.092690784060343
0.0919575507107497
0.0920007409612201
0.0926023260569821
0.0920802169670826
0.0921922680314667
0.0911053601840455
0.0885959235465901
0.0882668767833782
0.0884545991385735
0.088293939071209
0.0877004456792777
0.0881642009608809
0.0865967845866238
0.0879676367502335
0.0870838748979727
0.0874777214906881
0.0866178353539564
0.0859835753389475
0.0855800706377482
0.0863027481917736
0.0858453094616623
0.08706562394638
0.0867834183593017
0.0825213938672228
0.0832527757863423
0.0848275972743515
0.0843407578956633
0.0840377044112617
0.0835708850139328
0.0843365445774146
0.0839457022918823
0.0825759710389949
0.0809875638999417
0.0803633342463285
0.0788083184192648
0.0803397495445941
0.0815003630403358
0.0781709728782853
0.077862136992726
0.0777709994518964
0.0765826969502188
0.0781815367828218
0.075077411814503
0.075201185206957
0.0756062722988051
0.0761457679640667
0.0757501588258152
0.076414588195697
0.0760204796997176
0.076663360903568
0.0769590788348005
0.0754722504396366
0.0753785840952115
0.0742723895526543
0.0746662534628242
0.0739563888740737
0.0721289463596977
0.0732380429793687
0.0710302807038752
0.0699307294772396
0.0708252666462423
0.0695276322687646
0.0683421812024661
0.0699339275662795
0.0696973319311545
0.068773771335957
0.0708090680415759
0.0735821845213052
0.0741197558967645
0.0766770086990806
0.0807755206809316
0.0818757648369763
0.0843826249481632
0.0899588298003051
0.0919748819651315
0.0961046431444627
0.10172469783672
0.106953553996099
0.112027017900898
0.116799485655083
0.121117062788758
0.126056079294966
0.129159121533746
0.133421458342665
0.138793319208473
0.143583720271655
0.145200676319353
0.150487117513203
0.152552489603808
0.15530917860511
0.157750800528515
0.163117125445835
0.164410080988294
0.166967998051268
0.171033297267607
0.1729680863652
0.174946767717741
0.175304856762766
0.178871727878226
0.179445639010384
0.17789748151796
0.178126230911015
0.179425460134559
0.181546797035321
0.180629305883327
0.181740935596115
0.180817423957019
0.181552907432602
0.18210233547451
0.183627995384511
0.184319766829884
0.183668818497843
0.184053950813862
0.184684808362045
0.185502960714491
0.188516391385412
0.188967049606952
0.190772164055972
0.191258439316204
0.195476882980663
0.196493544984848
0.198788829428446
0.201742056429184
0.202257469372378
0.206711616126709
0.209430897538667
0.213907571187984
0.215245096971967
0.218565277675074
0.22302435711346
0.225856779119021
0.227747678141827
0.232404630398099
0.236490242885372
0.238060400399212
0.240457382932647
0.242168416634026
0.244383841085944
0.244013893211939
0.245110397731147
0.243578447173983
0.244354624913498
0.244991659857711
0.245482804188412
0.243601864748613
0.241264591103317
0.239564383718326
0.238773391911487
0.238265351422845
0.239720259315725
0.240055396159591
0.243319763400813
0.245801350161169
0.250012824465641
0.255649621836061
0.258014729605753
0.263760822178939
0.270734741203588
0.275290447485429
0.278003628893915
0.284264916233207
0.29324925969919
0.292970651742578
0.299948260969036
0.302174484270179
0.310639647373351
0.314434696778323
0.324139208841164
0.322995141064847
0.330382234922925
0.335786358144158
0.342479844625229
0.34647609338839
0.353166408059941
0.362233024732904
0.366895363848415
0.371590982013237
0.378314944859565
0.382656625423552
0.388221563261934
0.39038910955742
0.398724497573629
0.398799769111254
0.402844322119908
0.408498835556699
0.413073023797878
0.409866637918702
0.411045702612455
0.414039738652913
0.414927870069637
0.417043954171509
0.414109424001746
0.410640374919269
0.404386067013546
0.405317758044164
0.403441850188382
0.394678598885622
0.391623159128947
0.394142237482199
0.393399046694425
0.385636433231235
0.385126102560734
0.388189924151221
0.390492362564548
0.393290365655858
0.395391353723196
0.396941703806976
0.398379306146753
0.40250444258366
0.402201349870898
0.406025195222977
0.41269936052375
0.411302038140035
0.418080684736266
0.420512652180188
0.424776187897085
0.428366624040353
0.426465851941844
0.42514366335745
0.430463665703072
0.427544687005663
0.42531172651581
0.429565565787513
0.429345670883828
0.432933238273371
0.431167261677083
0.427499853878639
0.42716186739069
0.418254014718646
0.42483724091785
0.42715292221142
0.415209142570617
0.417170536173592
0.417096653403357
0.407109141887036
0.407584345389771
0.407319836162365
0.401385896929162
0.398041165238662
0.396022411421093
0.391140173723165
0.385728650577855
0.377578520213101
0.376647477120962
0.364175310647119
0.356144754357795
0.347806131874333
0.337022088441066
0.323065152838105
0.313479183777897
0.299813062476549
0.287582319224562
0.277132458557339
0.262286750810914
0.248853967764054
0.235281230210476
0.222133190199763
0.213254225611133
0.200521711454886
0.191612928488734
0.187358877998824
0.18300277728065
0.179592735327864
0.180144954965469
0.174028992381629
0.171294333941055
0.168270465223173
0.165787794425166
0.163738844141318
0.159882096634636
0.154864190937799
0.154494588352318
0.149263625256237
0.150562384013854
0.144277051818735
0.142173063266955
0.136672639591215
0.133272375854769
0.127372261715534
0.12401826181548
0.117102606332855
0.114965168561086
0.107226713280772
0.103148650314042
0.0982962063404915
0.0923502742809122
0.0855901153111049
0.0798684640113776
0.0748220213777655
0.0725115041696381
0.0683784864789654
0.0620361482111185
0.0606322022322859
0.056224334613963
0.0541467048604126
0.0489568419212343
0.0475599138201284
0.0469739761146992
0.0413930291650382
0.0419247415939869
0.038532300037619
0.0381275902061993
0.0400585217446793
0.0393592723671906
0.0359968739247567
0.0362722914100798
0.0350840800703317
0.0370741149818299
0.035726797912902
0.0373492515619033
0.0371938488159958
0.0343579280035661
0.0364391265441043
0.0393160926624288
0.0396328446900507
0.0384129635084894
0.036766670722762
0.0405806438978162
0.0383152789190979
0.0401711245236355
0.041464304465934
0.0421800715757697
0.0422186909896428
0.0395490053180698
0.0402220850994533
0.0410023803870477
0.0388350117033481
0.0388876147614763
0.0387149723232413
0.0373702074643216
0.0398518623066236
0.0377768252919748
0.0353944897102683
0.0344188680471058
0.036821341883521
0.0374794966245103
0.0342905612248475
0.0371355852717938
0.0343478056408277
0.0378431097785461
0.0385798117438862
0.0391048075140877
0.0345783309786627
0.0384401549717187
0.0398495254945615
0.043941659102987
0.0422448711225688
0.0423073930949004
0.047473962783268
0.0470978936036485
0.0453166042695243
0.0481461146538403
0.0436638538580736
0.0451475743433391
0.0448013814132267
0.049885621808431
0.0474348480734961
0.0470887184428251
0.0473446419109191
0.0485703055020334
0.0511057398184166
0.0525391526688239
0.0521398285872484
0.0527517364358255
0.0505726300549989
0.0569608592626839
0.0581664936521859
0.0579079937163991
0.0582858018675414
0.0672087413318106
0.0621072182484636
0.0652447697528717
0.0693822340043348
0.0671531711932855
0.072837917939145
0.0769093700769512
0.077118535137781
0.0797435815399701
0.0820945717388998
0.0791520632671521
0.0839473949504487
0.0759280098593177
0.0757618833318759
0.0783582001534729
0.075275063471703
0.0700824473883826
0.0665470712722616
0.0683511628974277
0.0656730246882053
0.067681999169355
0.0661830327088397
0.0662537603274989
0.0624461680312244
0.0738001148558531
0.0665638956285707
0.0646485465993136
0.0647447959326705
0.0686253490879849
0.0641222013935319
0.0619476149298039
0.0570716647143969
0.0652887741805373
0.0622055926422334
0.0598424288825166
0.0585334122152027
0.0551832997876027
0.0587854235382448
0.0583216566883943
0.0570601432282086
0.0590022248447602
0.0505221176278318
0.0592646918667512
0.0533211531586095
0.0498435975822599
0.0516102989283211
0.0493072109836938
0.0493524194323118
0.0485116027491518
0.0521439211521893
0.0498989184791367
0.0501742331460432
0.0513977380527343
0.0547449550810417
0.0470741751331383
0.0474587310790693
0.0422507069889911
0.0394029672688767
0.0470672869282953
0.0458361518656895
0.043618376572769
0.0437134116430673
0.0482552325783997
0.0411054033844823
0.0475283582098566
0.0423377196982596
0.0374967694674564
0.0481250558941208
0.0368346500802224
0.0365822091690547
0.0437332979919044
0.0357405201448883
0.0517349940953226
0.0459283364692261
0.0339395424172691
0.0367046768816618
0.0427466646243651
0.0347843386942211
0.0370826198310014
0.0423776169222505
0.043480373947963
0.0382569041194142
0.0402509307454843
0.0463756163685954
0.0436923758813949
0.0365221124944407
0.0495924775993994
0.0418863540220847
0.0386137248103465
0.0436533911716308
0.0525265806810835
0.0466421475219175
0.048495436846791
0.0510538477049994
0.0508387837220713
0.0439501328428342
0.0446778971676815
0.0519648223785667
0.0505557359834536
0.0482870008748132
0.0526169457743646
0.0506508415898076
0.0500708677318139
0.0591641051057226
0.0631025936376429
0.058482847041535
0.0577734169817787
0.0631311671859928
0.0626033515168277
0.066143566227869
0.0699926103745631
0.0672236936898913
0.0711797696166622
0.0791239741659057
0.0749921347428977
0.0821531780058733
0.0781296828788393
0.0853622884950621
0.0951217363287266
0.0886735419973769
0.0908149387706087
0.104510561008125
0.101972973158503
0.083586997888566
0.106128961293009
0.0956665363781591
0.102556994447645
0.0990903362862687
0.11584272617163
0.114416240970237
0.102063884295789
0.0906141187160049
0.0999087837663126
0.0893983927670326
0.0902429423066923
0.0952424566198183
0.089572252419481
0.079991268396098
0.0861812809863661
0.089976035077707
0.0737531939580863
0.0930782119528253
0.0880975257130502
0.0692506089819086
0.0817234111033986
0.0940483046097979
0.0886156350009205
0.0720341578834697
0.0695586665742169
0.0859628014718136
0.0819612354069426
0.0734435198118065
0.0863218236133478
0.0728633329281905
0.0782172015577917
0.0790154339375102
0.0652725732600395
0.0685288200143532
0.0776282437412394
0.0695916897840497
0.0825127000044688
0.0739811696644293
0.0756237129459846
0.0669391515262484
0.0718177352836323
0.0739083325753337
0.0801717464909973
0.0701535528671151
0.0696100030672854
0.0750129640992127
0.0725855974043838
0.060074387948736
0.082677083784272
0.0966166188937954
0.0923051081204013
0.0616411541420363
0.0791538150716494
0.0818991704040742
0.0821356672035476
0.0703196905549187
0.0790031041648014
0.0836716507318998
0.0913155438461996
0.0939506916648327
0.0862963624308913
0.0704991066515936
0.0829609726278747
0.072614639670483
0.0771336229144702
0.0684933072438355
0.0828167837342743
0.0739111002370644
0.0894433148767318
0.0936489155125874
0.0823249768566891
0.0834420685084969
0.095908166211434
0.0976672797374271
0.0690925476630051
0.0859354140290107
0.112867495366703
0.109614745278266
0.122437838714013
0.0950694703725341
0.100059890678888
0.110175860518625
0.109941245584772
0.0782681211662127
0.147672547578978
0.115597447885984
0.102607461776938
0.1110591012682
0.121796575796404
0.0964588422300864
0.0847625528986039
0.112179078289873
0.108978254431223
0.103729264122487
0.132865677184658
0.0938980099902849
0.0922157699131284
0.133854791194128
0.126128720292573
0.0888811283779827
0.112705392760975
0.0851462077925087
0.151742271510048
0.0948142144806966
0.131048538932241
0.0996244227033219
0.135271292532225
0.0484442586682928
0.123514852882792
0.0962188561165243
0.0889974898494264
0.072173552321167
0.135168571188044
0.116722603019465
0.086585090945898
0.129891348257224
0.114805920307022
0.0665432928775914
0.0736498482234687
0.0983487319065219
0.0934487894102059
0.00528568612361267
0.121392696850112
-0.00574816924771261
0.155357254099061
-0.00216582886507498
0.13856443437327
-0.181108766049692
-0.0102183174095232
0.100767683046091
0.146640618286454
0.119507388589431
0.0827265589132233
0.0943214341419749
0.0931334954479185
0.148713687897084
0.10741584044708
0.13691234677232
0.0487312865373655
0.0694148275172319
0.273655311551246
-0.01725080620426
0.100011256541922
0.312882193007856
0.229449837001966
-0.0851347034753848
0.206273110219626
