3596
4000.36533379555
650.420452594757
1
2
2
0.0544939732190034
0.0592928531980921
0.0570988469833966
0.059159980850619
0.0568712954854538
0.0546888673578442
0.0484929945297633
0.0529216467117575
0.0507371885795414
0.0619740660560632
0.0562191419357278
0.0595289434981102
0.0576342278593236
0.0504995367700011
0.0509520844476945
0.055853186913046
0.0521768128895443
0.0654116338587099
0.0526203403481931
0.0533602305759286
0.0470610012601694
0.0505388013314252
0.0556387013126254
0.0618059202183816
0.0549525475660899
0.0602212576326645
0.0547252881895048
0.057304801882964
0.0506436121579267
0.056449447213891
0.0577148991978624
0.0517889935756258
0.0540004810691213
0.0544393091279036
0.0544696103829159
0.0570954945069382
0.0574126750762743
0.0492737933295808
0.0527631318922091
0.0574409172624628
0.0540989009310538
0.0476628982885597
0.0600499436250362
0.0576908186200845
0.0561891424076094
0.0544132216107005
0.0553064221409422
0.0596315650528324
0.0565047032942002
0.0586054897387252
0.0588317985269494
0.0591876433167475
0.0575588421937206
0.0628495272720288
0.0636663302751536
0.0745918881215269
0.0634061369259152
0.0542143919788537
0.0525750390088487
0.0527489481836617
0.0713770795899301
0.0637623759467654
0.0536039556322393
0.0529554213280863
0.0537019114959269
0.0574503753830602
0.0546746848074802
0.0552868826449481
0.0587595562665995
0.0573310540675693
0.0475449268122531
0.0508315326029308
0.0643549078847901
0.0618576136978753
0.0580883927871405
0.0586081750562041
0.0467960805581716
0.0536250009486021
0.0470619823733689
0.0560730690804749
0.0698069621606781
0.0527398774682749
0.0530020239310218
0.0420366093671323
0.0562609274462868
0.0649671173394414
0.048469535354268
0.0555251582163614
0.0720541040351689
0.0635398648759517
0.053302483548535
0.0484272200334649
0.0509168980218534
0.0431081596960089
0.0496298294858222
0.0511161520651472
0.0407028636518045
0.0520412916194544
0.0414159520265461
0.0517476436517318
0.0471373894988869
0.0714576674836441
0.0860150118614814
0.0517032699457521
0.0808358564215935
0.0689776778259707
0.0466938596424309
0.0810220138286937
0.0715236082206754
0.0527626718425648
0.0528757433292596
0.0486565154168511
0.0527991528710805
0.0536981285564913
0.0439589406920405
0.0673704162353436
0.0808226578361624
0.0640974163056378
0.0579779374680238
0.0513470079478485
0.0339988033000012
0.0567764040250199
0.0842138130234365
0.051116070774045
0.0591169898043224
0.0514582910400672
0.0371035708857881
0.067542339850632
0.0807776043369532
0.0602450990515066
0.0395392291432425
0.0455425056971984
0.0435982310301095
0.0510717265036148
0.0819635029435685
0.0671674903694402
0.0481221743572544
0.0384401312423026
0.0490323273862084
0.0966690705098834
0.0701664529102166
0.0564364896719302
0.0311739418300358
0.0595444839979519
0.0859224811399963
0.0572820666771605
0.0416989145770545
0.06510886760792
0.0627376990151443
0.0559533502629063
0.0465005342705003
0.0394450421298293
0.0596768389255197
0.0507234977273052
0.0135878812322024
0.0623144455725882
0.0912518256433852
0.0751442898140369
0.0966348813490602
0.0721481534820084
0.056351315055519
0.053940112054591
0.047248984478642
0.0501839597408492
0.0497782343538062
0.0388372121764915
0.0594471306620019
0.0759912141589628
0.0450087712659273
0.049765998121746
0.0751942844356003
0.0514293744695739
0.0255206107420813
0.108912883233321
0.0742925500798089
0.0452922381003994
0.0697570187639235
0.069416649407627
0.0416729162133149
0.0593411399102898
0.0691904562442189
0.0585706183668147
0.0507656657045286
0.0409143736744161
0.0513536449047621
0.0725099876618974
0.0550600066208524
0.0555941320221674
0.0472417290834505
0.0298245580172896
0.0449638954929881
0.0885896845941905
0.0780443110430222
0.0603164497586439
0.0489637163437608
0.0250236867260862
0.0726420850110724
0.0810359448223105
0.0552132012756558
0.049363871027165
0.0449386582712615
0.0518816875492533
0.0437236299773376
0.0489587697385073
0.042756821240379
0.0338995787240706
0.0789193928616817
0.0722567955100321
0.0495480228406245
0.046987437478771
0.040280142710154
0.0356393752224826
0.0855162705104252
0.0863779912019567
0.0562233416665467
0.0564051554829063
0.0423368211745502
0.0759838053852178
0.0711790717664262
0.055676682879996
0.045848525049621
0.0484321123770172
0.0437177020511181
0.0441756904677343
0.0503267526610888
0.0510194848366819
0.0487974326592715
0.0499318501618551
0.0477253047731749
0.049006441176586
0.0545088505301314
0.0549516964422965
0.0469041478547654
0.0514792206618702
0.040401856188953
0.0556865438811947
0.0746682473084517
0.0496214421703638
0.0470111336548273
0.0490051044663353
0.0452820203989918
0.0502779490127385
0.0499487372949986
0.0587453505021456
0.0418368556212556
0.0439049783575935
0.0771900646815557
0.0714174741288468
0.0509283601431489
0.042976108496148
0.0582102057668742
0.0715960042219334
0.0520518372169912
0.0480281634688012
0.0498932768018891
0.0426476727518221
0.0454416994928083
0.0791546740481624
0.0601219797585575
0.0485975319165767
0.0546947243933145
0.0617455780256185
0.0518861054928501
0.0359662720029413
0.0378939681631856
0.112655061405964
0.0626525815334277
0.0500715896941075
0.105751767813176
0.0771297614179628
0.0650561262753922
0.0474180116055842
0.00179178829031485
0.127587155718533
0.103802885183999
0.0619556186241364
0.0555848767663781
0.0679079776519936
0.0474153604932
0.059081916187509
0.0505805349376507
0.0570465127228375
0.08492495729347
0.107678358557645
0.0895222549069902
0.0406050315228742
0.0739943176133486
0.08151714144794
0.0586622665538873
0.0575718129862678
0.0549843328328782
0.0488803181103742
0.0706322111392093
0.0712139879428134
0.0723942141526095
0.0617124496830364
0.061357777182038
0.0770492112045441
0.0652419636160604
0.0601012187514624
0.0643954142420669
0.0666976852002046
0.0546919412619798
0.0583801072109136
0.0547455571709196
0.0656784242619997
0.0464305233482713
0.0467702775659407
0.0969630453213549
0.0705778642046529
0.0592033349774897
0.0840960163497487
0.0612628016733459
0.0602270196842357
0.0643913685001922
0.0593195543611749
0.0594635280606533
0.0546872923274169
0.0440067607615796
0.0788887839752396
0.0724418572208676
0.0561561858838124
0.0592121030989541
0.0553568396697971
0.0605234383109257
0.0632886523299399
0.0579402457622841
0.060957213622994
0.0555403181824423
0.050107302760917
0.0762569045648821
0.0918668217866511
0.048970148553815
0.0889952246232894
0.104201814370765
0.0680442528823285
0.0715256818263562
0.0610060117075901
0.0769621770858817
0.0761811910952579
0.0647024309012278
0.067749526446602
0.0669038021263969
0.0865928653162189
0.0779976363829748
0.0644241103291063
0.069791590082001
0.134165541888688
0.131347818490667
0.0909128171618906
0.0843879929728095
0.0638650566640105
0.101615989952886
0.106224957646579
0.09737449137258
0.109828761756863
0.0878587175601423
0.0910005705389167
0.0865437135026431
0.0876369034130302
0.0861829639086209
0.0956016604607293
0.0915020321953818
0.09039673029924
0.0960834787087541
0.103340130172251
0.0865076025895332
0.0964485693871982
0.125681136024334
0.123137512412794
0.102683332689485
0.112367096054801
0.0947439500416851
0.131919255280919
0.135741767864484
0.152517581115436
0.150265214790211
0.129513149850089
0.158013283144388
0.136421810542946
0.121144605744078
0.11775868464973
0.119975827755001
0.13604041817993
0.131405664855248
0.133817270664515
0.128776299265965
0.143616207117361
0.138527373099733
0.139287743604863
0.130921260301704
0.136120823789855
0.161467582049054
0.156472112958649
0.14512489117856
0.149750217860092
0.151781212592961
0.209249890811019
0.20592472192814
0.167768508985246
0.171753351652736
0.168355253061697
0.163898505677748
0.174088293410399
0.166047304600671
0.17821815599761
0.178566879516386
0.205847552721372
0.200477520583427
0.196310734733839
0.202328709834877
0.181782788848478
0.200708506264334
0.19713726202932
0.21180923670787
0.221443219053785
0.210893354303661
0.198156664089411
0.228975736175646
0.234198711568757
0.213536099707043
0.239502041884314
0.224255574701122
0.221633800661929
0.21216925591043
0.243806561006368
0.227133310404864
0.241152945089136
0.231188936337222
0.246383484128291
0.251916381071128
0.251866164803782
0.249574243917786
0.274826569034302
0.262057813865963
0.253704340270544
0.275486752433894
0.267931834405299
0.270482817107895
0.265001658566946
0.283878863417261
0.319649937899489
0.291924949945215
0.314179335878189
0.272442564221971
0.296788176828154
0.282044561605464
0.307721988032524
0.295833185954309
0.305158053134307
0.307414598136376
0.316981897224308
0.306227185087712
0.314486312285368
0.322461387900811
0.330529269953222
0.329141349077183
0.326049007744688
0.337964894455854
0.372257257765302
0.339870260857397
0.33817365915508
0.366227191033816
0.401470179165776
0.389656882639476
0.402906082315686
0.364883508755587
0.388430254362675
0.363563471684044
0.383408745055237
0.377443678311266
0.414684373935149
0.384020430641017
0.413491883603704
0.394442465485138
0.396555181323307
0.393472898041324
0.43187922876786
0.411072973194066
0.43410067780151
0.416930177423469
0.454440655710002
0.416660894407333
0.444221980596111
0.423376108336752
0.470925766412073
0.445834950704543
0.48794148123268
0.434472833951408
0.476529497759781
0.463682525899269
0.47040368453831
0.464621110876941
0.520217131337802
0.470356695546305
0.511499926112675
0.473403365312806
0.532808572025439
0.48501921798254
0.518896486483274
0.513374131563305
0.519687439331318
0.537137173819263
0.557241446875841
0.515747512580557
0.555894697192314
0.534622361708171
0.561239608374915
0.555960937976025
0.551448551790561
0.515561021404492
0.600331535622895
0.56668771176048
0.569130330320817
0.551696059656568
0.628412678416945
0.592033729791018
0.574177460017284
0.552062477481174
0.636435223663354
0.610163587246724
0.613971201139305
0.580095581916058
0.624832858946066
0.611810381601484
0.672669164530911
0.638475455517793
0.635659836698843
0.6190964149426
0.668771478003562
0.626369668352989
0.639334576198018
0.641755723008696
0.689582244205937
0.65632820394079
0.704890595230888
0.654178019331312
0.667036656845444
0.694376525890113
0.748521675279374
0.694458740724866
0.757312221848105
0.672691456269742
0.727084218363926
0.7271126722333
0.7417500924624
0.721933898040717
0.710647719644679
0.718577288091966
0.809409967544254
0.748069483105975
0.777493332802429
0.764912586235635
0.786596047527544
0.758970394184224
0.77474227618502
0.702294090352028
0.76666767323685
0.732852930328512
0.771790064596672
0.757568074636883
0.860004219521125
0.757696091785958
0.847371019769131
0.792734259296386
0.84233282761225
0.770631116852151
0.844115665382202
0.774024551142504
0.85404792091857
0.822349569241033
0.800439564744341
0.804553025968432
0.908505444686498
0.786598754112835
0.954906058761335
0.844719697683216
0.892927710364771
0.858130835609669
0.904744628782411
0.841913299489295
0.966055719737532
0.874659250795683
0.914100378462942
0.848970058791651
0.952820174598459
0.861857304869538
0.951404450098247
0.895697312705853
1.0089494013522
0.892711946237515
0.972109825213275
0.951630414386994
1.00761216638757
0.911154949319138
1.01355361981828
0.940923651043055
0.968741528281266
0.969697440166601
1.00441494480703
0.927363856135845
1.00200305207392
0.859250239323364
1.04779206456342
0.948847722325677
0.985010874615635
0.938957859396725
1.09007464959684
0.925567004654511
1.13980804437289
0.927879096389258
1.00860610222898
1.03790579530179
1.07570980425506
0.980431682334921
1.13232801215112
0.990957519475335
1.18409989518322
0.984047002484598
1.09752421369115
1.02784174522112
1.0894415318206
1.03820590422238
1.14831476794916
1.0741036488324
1.08610184562792
0.947423427013792
1.11981462382337
0.99727173115008
1.15084382682376
1.07977945345855
1.14693490708021
1.07097318746424
1.15263225577509
1.06336433462456
1.09885674337129
1.03623367835795
1.17585508107449
1.08592429984501
1.2277439793587
1.05674223191841
1.13409075049018
1.02808412370048
1.16026612031159
1.0628054176154
1.21025256302677
1.08425989108487
1.22487708570757
1.13427542121794
1.1692747524803
1.11405906203127
1.1632528459961
1.08982466321125
1.28648892276031
1.16797400151328
1.48948234741635
1.08309892090958
1.33226440457421
1.12217632468411
1.25254233570656
1.13745067381249
1.23122063735319
1.12174628795318
1.21616707459312
1.07220784166541
1.24792630598226
1.07883170185867
1.29173667685002
1.15160489174241
1.31144454289721
1.20225584469307
1.27120586806794
1.15408056273784
1.43105574260807
1.12047083915918
1.28202682572199
1.12081615349335
1.37328864801348
1.12987755616715
1.243807743041
1.21140491472482
1.39197487129259
1.27139507942172
1.2131800286072
1.17499157689785
1.30164688058646
1.17248665792389
1.41741599311238
1.22273120418476
1.28976650281067
1.19409337642851
1.32473491128334
1.19095824913083
1.27832674456032
1.18976711948537
1.23248467764722
1.14750459910325
1.3607530859676
1.20500612900071
1.24493105576218
1.27953952459718
1.39130610756377
1.20392765482271
1.40578152865956
1.18827794177297
1.32006370996979
1.22990967165208
1.28745732035315
1.21290494864045
1.30523215156694
1.17745288334449
1.37546463133244
1.22746590707733
1.29480717047532
1.23238442692077
1.3840960078145
1.25755038807778
1.45009712363897
1.27880770071247
1.31819417518187
1.33555467071038
1.26643103973709
1.22974299402049
1.31964890944819
1.28461578218697
1.43388892943916
1.23875573693233
1.37001844624787
1.15477467255455
1.42858362466945
1.35628034781946
1.35814304344813
1.23519600275449
1.35797171067168
1.21947295365368
1.38000223034956
1.22827116344581
1.26686849499379
1.17863418702828
1.36747741029654
1.20219266277052
1.23715347283633
1.23824696950907
1.37328611876233
1.22701347231665
1.3093588414494
1.240406623302
1.38730156584425
1.2347184162936
1.47268283981616
1.23538098419559
1.38747736433315
1.26123236092456
1.3939431239902
1.24296633932341
1.25591539483726
1.24048670609459
1.34825959372757
1.20323527244328
1.37990415336659
1.24900413262648
1.36663348113869
1.23673528396432
1.35621424837095
1.29276477375488
1.42172251424562
1.19071280172021
1.26133723227376
1.22415111275342
1.3404682214578
1.25105996785387
1.28467123279335
1.26604397647899
1.34262626814062
1.2468484254466
1.33684563616933
1.20064826772405
1.29429202341529
1.21439718902027
1.25512211145614
1.21580884953618
1.33610643321934
1.18426546273221
1.36980749144361
1.21195812889676
1.37496211303653
1.28575727897098
1.27856502406883
1.19325206793721
1.37534473978853
1.21026473098096
1.41960713951723
1.20014721937417
1.45870950820142
1.19095824982556
1.29405626655885
1.21884870902181
1.26223218761181
1.22114099596481
1.22967147306756
1.24173077641956
1.1704026261777
1.19696100811327
1.23012240873979
1.18310840283643
1.21915361571184
1.23032160036987
1.30873159679436
1.20739638342928
1.34897023219218
1.12407143936595
1.25014074729831
1.21387807478113
1.2180306860784
1.1655092095053
1.20036943065486
1.19519094627743
1.18447911225313
1.27471285903489
1.2005780760773
1.14763572929417
1.23706435643383
1.12451142332883
1.20886724882802
1.2560233671963
1.20628333427405
1.13375074097064
1.28065796504099
1.13778326493199
1.20173523904594
1.08518572598675
1.17150710451418
1.1520943788384
1.17802275569607
1.16422888976848
1.2392509256044
1.13284224475441
1.23112830813924
1.17425726407563
1.26780373494127
1.18062438549899
1.20029213703838
1.1019881900606
1.15550994870956
1.09165868072343
1.19480587024388
1.10602356980756
1.16585213101177
1.04847177887163
1.15773575997421
1.07160342001621
1.18218855814177
1.08122670591654
1.12911256079871
1.0891601687548
1.16222130299625
1.10545187121313
1.09084741499127
1.09892989008391
1.11557835123785
0.992375096058608
1.19518983462076
1.05801538036907
1.06064932120317
1.07277683583957
1.12563145284957
1.05111316014913
1.12817851567746
1.03072598323613
1.05315771021186
1.03219500634351
1.12755891696889
1.03490260111778
1.05105332937754
1.00402363817693
1.04311902107651
1.00029001286398
1.08110228572641
0.961561809457231
1.00896689638356
0.939037821437813
1.02404278010862
0.970029175514383
0.999237608230008
0.940230544123754
1.02187900958603
0.938585302306312
1.00410521631891
0.929326605137151
0.963697071999649
0.955080021089173
0.995810566838711
0.929111112116712
0.979584434373542
0.936381374136268
0.978399313036244
0.938520073595406
0.942196826041634
0.900967431203412
0.92835869281329
0.913366628526
0.914248713193317
0.917335288936277
0.922707400790975
0.872007616400945
0.911905238481243
0.883099886539051
0.890155640142964
0.857453835221036
0.878661417701479
0.867351126955616
0.903667456451451
0.847194672692921
0.886684289582548
0.847526878724938
0.890714306820146
0.834767597905701
0.854599755033324
0.832463048138498
0.868438539019303
0.826003661304437
0.873128074671025
0.818561284935023
0.806097369082882
0.823030611757987
0.848357196047934
0.796758243270641
0.817701989274891
0.807565181589431
0.818042217338066
0.774488001939077
0.786276408418517
0.773451238820346
0.778810344685318
0.745812740920564
0.760505036289517
0.753866960354574
0.774894177424218
0.766079281094427
0.786059469241355
0.734299631598572
0.753666699161818
0.722228629869763
0.740090414524097
0.731803163105453
0.745628780907333
0.737874658902912
0.722948636197018
0.710206472383787
0.72736076376968
0.691371221377077
0.727240999556758
0.705840361140183
0.722839020964987
0.701369411192906
0.714034672211035
0.685788753292542
0.695281768541077
0.677558204969239
0.678198218044068
0.673010977483936
0.674728113376607
0.660703816345335
0.677488410773865
0.640471753843282
0.673485788655078
0.661179843774412
0.664056339759663
0.642538346613359
0.660942555362976
0.630083013403272
0.657979286291602
0.625711331320898
0.643027989059423
0.628051957534648
0.624016627929237
0.625373049076794
0.634148574044228
0.60894671127205
0.632070538757189
0.603408052996812
0.614802590837383
0.596582649179861
0.605426907043448
0.585903252822774
0.600180763023383
0.576467702974482
0.606534002723306
0.581700867355393
0.583336616246761
0.57265359113246
0.590617910613326
0.565687629035534
0.584356050972938
0.577651861873047
0.57442270919743
0.562684836977893
0.556299011354736
0.5498956604575
0.565277387272626
0.547837012863101
0.549993759630947
0.533715240056467
0.549459888579173
0.531281168684206
0.541545681206678
0.525481182522526
0.540474909436831
0.522523842250491
0.53244207375017
0.507437974946268
0.524774482477962
0.518351214563805
0.505780274350855
0.501512657760715
0.521401407280961
0.50256890457371
0.507990619268425
0.49711423408153
0.50698296370059
0.488903412689013
0.503000283513261
0.484934138574655
0.489170682884555
0.484383302488434
0.489810989427017
0.472173232701916
0.486677761480372
0.468031615910496
0.480491376270992
0.466379835725939
0.474149984196233
0.466566631636848
0.476089274000453
0.45052509932297
0.449827856354347
0.451564997892415
0.4533216001263
0.442442694832687
0.455491870376315
0.44827141950045
0.453007728080307
0.432990582436521
0.441278089392724
0.444574641873571
0.433090761914459
0.431958076088252
0.436848174376007
0.422260970341437
0.426047478752497
0.422992901712365
0.429608343699
0.413352455234038
0.427362912551934
0.41158284339361
0.421250713157312
0.405180746408153
0.412581956731665
0.40483545659499
0.420221409049863
0.403011408731762
0.411130170688883
0.409925913672692
0.409930641885274
0.398393633094898
0.404327436187342
0.402945564906584
0.401655214183895
0.391714443199287
0.397742692725502
0.403675547079643
0.397975223784409
0.38563551161096
0.394001759892046
0.383873148921334
0.399104613590576
0.378979959430553
0.394568415666854
0.388967166513066
0.391378975884365
0.388201502689306
0.388657360070846
0.384032340942368
0.397198574415804
0.382689238967605
0.390237314156436
0.384331287230653
0.397441184812637
0.384064680460826
0.382507968966422
0.387291126179336
0.40527769124393
0.391940198489903
0.401342383142554
0.385705535668084
0.40143594735731
0.394598265377685
0.396734992489811
0.391806403815715
0.396629596313893
0.395129991653789
0.407739352407376
0.398657338066143
0.404537667471417
0.399276593179079
0.417348807812405
0.402564530210917
0.412473688146896
0.40869606616835
0.412149322725516
0.404269733741319
0.421440796741902
0.416364614080395
0.41240950375652
0.418194091936207
0.421474956442003
0.426495961332836
0.430440668667997
0.417400640016483
0.437284722890035
0.427380515276764
0.43507024882049
0.426047665424698
0.440181829199269
0.43614652775786
0.449388526937152
0.447518827083131
0.453597033703168
0.447294471251147
0.456710248570937
0.45261382318876
0.464062372503899
0.451989133800363
0.474586761441704
0.46350924501248
0.484577235007631
0.48032147096582
0.489245238533088
0.482921333372674
0.497581144517988
0.477435236775528
0.497925947165598
0.49808440017481
0.508956523189071
0.495505135313258
0.511302180372058
0.501849939940575
0.514215601084577
0.497674574522165
0.520879907613216
0.498051292676886
0.5112614657739
0.505764824456345
0.516073045484703
0.49975137910077
0.50612343230383
0.505983217566615
0.51955073667273
0.482641165925293
0.50615216218889
0.499417750818764
0.507024323067571
0.49005647728366
0.510771648095194
0.488178806981079
0.511258934874334
0.489350762909484
0.501052981733662
0.490005972571044
0.501056194496704
0.499451353213431
0.504436609057743
0.493841842351155
0.504803683274721
0.493971498857893
0.507540449708046
0.491154505372254
0.503350305872012
0.491809655328632
0.505093856702568
0.501590167032519
0.517251425886304
0.498903308700953
0.496371208139905
0.485693407305665
0.503583942489281
0.497631411888062
0.504505837003481
0.494311406459933
0.505129159660088
0.489023216778282
0.501516448303738
0.492490453272995
0.502286681713753
0.49204517226403
0.504820708728824
0.499678833903923
0.505238157943678
0.490501655704546
0.508621912243949
0.500150487680445
0.491078147581568
0.496305822929544
0.499347178600041
0.486795108763547
0.495358328354105
0.491863605315882
0.485254215135985
0.478927713058631
0.491509901294745
0.471683546181291
0.488790177805666
0.472532313834516
0.471855547533268
0.459725782720047
0.472446529429361
0.453048199436866
0.456176707792824
0.447969156362803
0.455910096946402
0.45301608722801
0.456460136955107
0.440450515855155
0.447955940592755
0.438822497147828
0.441753616545517
0.430527988170232
0.436562953024616
0.41775618537739
0.429272706870529
0.414971488650673
0.423182711247339
0.414863480560828
0.412175683091278
0.407072826356822
0.419456576364849
0.392694694413014
0.408112558267793
0.394157937876277
0.394982629260392
0.384791635021945
0.402050427649906
0.381994534175083
0.384918690442654
0.377205428669352
0.384331822177501
0.372757070496007
0.378393620064603
0.3740677232287
0.370197844851905
0.367596510661289
0.368252045869954
0.362064610215975
0.362595579120246
0.361040038981486
0.365696592852189
0.359471017026806
0.360934941990118
0.348061617930663
0.357507537459206
0.348514418189467
0.357060231433617
0.348717543862185
0.342578680285907
0.339355525233728
0.348039015896918
0.340965746122426
0.350167487972362
0.331428958813533
0.332943578710578
0.33090859826713
0.334990936004923
0.328121611849865
0.333462562510265
0.330725613848646
0.335804847720129
0.324270073616528
0.329999037188257
0.321049048489021
0.327530227106268
0.316634736333929
0.32859202430029
0.319637605248417
0.323020166597472
0.314290436832629
0.321351244112085
0.313934980062233
0.315228789512336
0.310514566259075
0.310455884169286
0.301269773606058
0.315241101087223
0.304477658256701
0.310457649093496
0.303571821049899
0.304155072895188
0.301128737225956
0.310949562398103
0.302393822733866
0.30715000654909
0.297605965075593
0.300601774986909
0.295665298891707
0.30157654509581
0.289285715911028
0.296884300615909
0.286744019887445
0.297069858782726
0.291025920555576
0.289417307894791
0.293604103814441
0.294807999596907
0.290182362441815
0.293375610416255
0.286908460389878
0.29220539473385
0.287001226215479
0.288453990824292
0.28254680762311
0.288881499128039
0.275943375719959
0.284268153227967
0.282015247795353
0.287180290978095
0.284271029903489
0.28023106119054
0.274052836907456
0.283107151416787
0.274212264866858
0.279638016657768
0.276328132034863
0.278474319163521
0.279766883086253
0.276011507863831
0.27712916995445
0.277758320707899
0.267055345339204
0.271055433853711
0.273026021850122
0.272038485939804
0.274222654713497
0.275316151710047
0.267317281199883
0.268140180061905
0.264066273629943
0.279091891191713
0.277029396437536
0.268592214729394
0.271277646725006
0.266171484999667
0.263245241172642
0.265987234319063
0.257565273148458
0.264512180095684
0.261579074280443
0.268033634887736
0.264491277531318
0.264387435042467
0.258762038371418
0.26468612110412
0.26455133387137
0.266296833897294
0.256118170218419
0.262428513271032
0.25660087718463
0.269154734367861
0.260454670988014
0.260657979089066
0.257277316257051
0.263480445645792
0.251434859419068
0.258223664280342
0.25298410068632
0.260864758298444
0.253314578169691
0.261439459423879
0.261054492801853
0.2589113885575
0.252764437659026
0.258431140193502
0.256540862449641
0.257686691093799
0.255450553912273
0.256210862638153
0.248129911336832
0.252568724749498
0.247347737031119
0.25118120721202
0.244901726373516
0.252974688354609
0.246054155694889
0.243554361407517
0.248357961264441
0.248193924382465
0.247667659508676
0.252557051957469
0.246848569904165
0.241035319344515
0.242260353269405
0.244570692478071
0.237368827271527
0.239584668450221
0.239378599058087
0.246380763971886
0.237381888985116
0.240710370600547
0.235779485129043
0.242223690434355
0.235049937665511
0.237235903893801
0.236801752686063
0.238420284733272
0.229539699798823
0.235581551227306
0.232324117399316
0.234719924924819
0.226417807730774
0.2278538563628
0.227104149192616
0.23521353858596
0.229457266721379
0.230458822098224
0.226272321625423
0.230265441117743
0.225650715104472
0.225317966147543
0.221656679864377
0.219739223392608
0.219909049144112
0.228191830306989
0.22324218314743
0.22629822913718
0.221129396679017
0.222624031710513
0.222495011285266
0.219927574199138
0.216136622555841
0.221682954419829
0.216935563481021
0.220367601976444
0.216291059578544
0.216238646066139
0.213767523051588
0.216374758513742
0.214481474270183
0.214706388211772
0.209738548155423
0.211725089466872
0.203890855015484
0.208626260868078
0.209102309308906
0.207173096946679
0.203243876943493
0.204974076940425
0.199266773211715
0.204183685425012
0.201277210051733
0.202848325907239
0.200351425677718
0.203719708897069
0.196958275419797
0.200095230296657
0.193978102737325
0.194824464900636
0.191793343662489
0.196210562164729
0.190051379858446
0.1944329457931
0.1887874622777
0.190602249995121
0.187975350190179
0.192154981583525
0.186965887307512
0.192538108184617
0.185342984374396
0.186674396580568
0.186067501025242
0.186111689796812
0.180217846929447
0.185554081689779
0.179855643710062
0.186649947773363
0.181379968543094
0.182414491045573
0.180583958633481
0.182191445617478
0.175887309126069
0.179273704334194
0.179487730115653
0.180858947561537
0.177850948871108
0.181654130730859
0.176074624411769
0.175144610967436
0.175563403422241
0.17974487994586
0.17395705973199
0.176898901454553
0.172963549602081
0.175490240795133
0.169520608079202
0.172908358602554
0.169179292820874
0.171432734845892
0.169887781950861
0.17288819667785
0.16841983171953
0.170989556258267
0.167048969318966
0.166185298501216
0.167105962614351
0.17224454197149
0.165236672292458
0.167665527699369
0.164537593656452
0.16543714522322
0.158637198882317
0.162891295449335
0.158467745060024
0.162662768627213
0.1600547311353
0.16351228908266
0.158154243806753
0.161242127644818
0.159734851285461
0.159921598025301
0.155528818793872
0.161272979452471
0.154192339875299
0.162338020505259
0.154993805312924
0.156101307471039
0.154818082215599
0.159897292038406
0.155684299141377
0.157313415088779
0.154981042524085
0.157464631754706
0.151816452425573
0.157601435935485
0.153684640054736
0.155759360217403
0.152059904749416
0.155635075107695
0.150016569132329
0.154194810962122
0.149645328778238
0.155993303090488
0.150979187781979
0.152930916072658
0.15078396406152
0.151479053533645
0.147951905444533
0.153966859627861
0.146895555754229
0.150018600199391
0.148319570295877
0.149651051014157
0.14806004443417
0.149420093881276
0.147990386173794
0.151237710744052
0.150171424892081
0.148318761680608
0.14634919433076
0.150351101554309
0.14830679241389
0.151216477624228
0.144159107180084
0.146485488541588
0.14284942205367
0.147375360298824
0.145110698664569
0.145881140754877
0.140766741630148
0.143940464118619
0.140369869814296
0.142047654194414
0.140397189871316
0.142261456497869
0.137855052992203
0.143518461239617
0.13925007949679
0.136830283282012
0.13756788186032
0.141199192542968
0.137917311971785
0.140536245485913
0.136996368970664
0.139717680310015
0.135592186594332
0.13916424501545
0.136400369559783
0.139733174147063
0.13609460591264
0.137928400774466
0.134342698882238
0.137603271668777
0.133908389564774
0.138374774474602
0.13174901628285
0.137035205746238
0.13142822574315
0.136442256740091
0.132664523967765
0.134156888956374
0.130758793419885
0.135527687553366
0.131970424336332
0.132015346751233
0.130292186033623
0.135182074446722
0.128953237065536
0.131716561864931
0.129154089422382
0.135138381179293
0.130225687858041
0.132649127728581
0.128268216668057
0.131929861281362
0.127088923803648
0.127986657249967
0.125050635300623
0.129686715681143
0.125740341215227
0.127749059324518
0.125229182209674
0.12757570136698
0.123968168028706
0.1275218921442
0.124105553737131
0.127018739803338
0.122152191888963
0.127127172109509
0.120058188390091
0.123459740053167
0.12194352362028
0.124146562876303
0.121044087588065
0.121571204457244
0.117583139071226
0.117854392175167
0.116400520394912
0.122400965159979
0.115436868614705
0.117330269079245
0.113065698378293
0.11668902068903
0.111617794342092
0.115624227067386
0.113315228302049
0.117375709352278
0.111768377369456
0.11510724988722
0.115025798795465
0.115876862565725
0.111498161910222
0.114908446047634
0.108638924910672
0.111508579810049
0.108673996623609
0.113291683195967
0.109824821566212
0.111539432441711
0.107637055631351
0.109434184513472
0.105439762369857
0.110221399476763
0.105535942309689
0.106597419651218
0.105846269454758
0.109449323512385
0.104651441025548
0.108106022407668
0.106875722353627
0.108511824368126
0.104682128081694
0.105674950657606
0.102354461446569
0.107252627802979
0.104021176107683
0.104923762696131
0.101759747422034
0.103264382725858
0.101485887715015
0.104801446580576
0.099145016367921
0.101390757409389
0.0983371056333823
0.0997513501519987
0.097774095357064
0.103915342580029
0.09861192643749
0.100226976484509
0.098391434640948
0.10097309912747
0.0964345077657068
0.0985741729300349
0.0980295850436701
0.0970423993491864
0.0925944256352057
0.0959744035984357
0.0911084771879497
0.0952987432148626
0.0924860506151165
0.0943344253508913
0.0934775651572035
0.0949381353745922
0.0902384087155833
0.0946701531326739
0.089514681323675
0.0936699385346088
0.0910325469862177
0.0929197494650905
0.0876829291740291
0.0940394181216379
0.0893593845994605
0.0906757997753453
0.0879877717146181
0.0926526928066231
0.0887994272693872
0.090876585216219
0.0879517441489964
0.0920473938491803
0.0891092946621305
0.0935666824137855
0.0861751803114107
0.0905508180848989
0.0849605588112375
0.0907818065928043
0.0851415238774199
0.0904749470343135
0.0838838292941031
0.0891034553418591
0.0843472890518465
0.0907156155558256
0.0859451279227869
0.0909470696761926
0.0856859957156397
0.088810987175048
0.0834977979491968
0.0875537218446036
0.0837065850990701
0.0880881102430452
0.0810780321495662
0.0855966415633764
0.0799932938936421
0.0811468868846507
0.0733550628185998
0.079263453780005
0.0733498935965016
0.088876372422646
0.0790098820251445
0.0826102968652598
0.0649806316875592
0.080311558062827
0.0762162836136935
0.0767707874192259
0.0648300558257171
0.085535207156195
0.0671732497384965
0.0760377890505528
0.0697812244792106
0.076827361369232
0.0663151126795603
0.0803720440657378
0.0656978820563873
0.0857979875929208
0.0735743362329518
0.0907083730297483
0.0754072425874884
0.0874681122353596
0.0688873780379625
0.0874074984620579
0.0632200377324884
0.0824135959605396
0.0639068348644378
0.0841297654574431
0.0637424791526905
0.0853260789373743
0.0621452598515544
0.0843138203439232
0.060376949868533
0.0892783362073446
0.060740774972449
0.0848535318372144
0.0564768095171362
0.0813162023950067
0.0582541381605917
0.0874989823460171
0.0677362091065615
0.0874199105259633
0.0610038181064816
0.07633375093644
0.0646469517172628
0.082308736549552
0.0738839288835977
0.0709600959103952
0.0781857542348488
0.0712275616865475
0.0894392860861024
0.0616828857686343
0.0925025219360923
0.0583862138613298
0.106668995009976
0.0468833129284529
0.104122689024987
0.0544909142189577
0.105539860479799
0.052944205413096
0.103553196789404
0.0599349133197035
0.09231024109087
0.0665667523106378
0.0804188739390673
0.0758902049371823
0.0768454514155778
0.0770481754930569
0.0735645632514165
0.0785261892131796
0.0780801779017865
0.0765128215928691
0.0789756763239857
0.0707755964003379
0.0794791410722395
0.0706464117126263
0.0805753665856341
0.0721899169266531
0.0752758185126328
0.0724674296222404
0.0760810859330067
0.072522046980545
0.078722912676736
0.0706588984257685
0.0758009177889856
0.0721525213620789
0.0744154457496309
0.0711328148869446
0.0774333566394627
0.0706607616664292
0.0757029149604639
0.074047088610322
0.0746998803059522
0.0724791534120684
0.0762507704972198
0.0727684704191623
0.0762831226241366
0.0743716365956309
0.0761749369220613
0.0725788866359756
0.074871387629358
0.0722235152090998
0.0765443331384036
0.0755409654727105
0.0778592724239644
0.0733023388224718
0.077649135927059
0.0742478038259006
0.0761812377918433
0.0731487527061058
0.0754349822437547
0.0744206041677629
0.0768553071564339
0.0753414820925951
0.0775271303393489
0.0761592635387627
0.0782143000165306
0.0733296026908716
0.0748349622838377
0.0738051327526675
0.0765832713505342
0.0730730338016356
0.079166073828819
0.076656716958146
0.0761589345064792
0.0743234124782582
0.0770668072279148
0.0745837565209413
0.074570043408845
0.0746341450748039
0.0771515997747661
0.0735504307677124
0.0769514920384105
0.0754652035400815
0.0760552646704087
0.0729956418680775
0.0743787157731267
0.0751342330501099
0.0756349477433398
0.0760641486781791
0.0787395617360254
0.073218824466565
0.0743942533033961
0.0753324328132926
0.0774007127819394
0.0763871224189383
0.0733331256489445
0.0731620806620426
0.0779409014213606
0.0746190157786554
0.0780108037869068
0.0759636568185281
0.0756738818435473
0.0769150456780935
0.0759154196970398
0.0752056006516239
0.0745929445755008
0.0759776012474709
0.0796685289427296
0.0777530023496185
0.0766614220017812
0.0755346038189239
0.0774863454741897
0.0761727586194477
0.0801694688917846
0.0780292710272155
0.0770687450180232
0.0797818871047622
0.0783470749272706
0.0758435227075603
0.0778541754387256
0.0780593449892703
0.0777664114223952
0.0772953843479708
0.0783342662165011
0.0796894713172944
0.0810869680078702
0.0792052266609412
0.0802951926267687
0.0786286583221075
0.0795228325935834
0.0785138509291562
0.079547213344439
0.0783417705934328
0.0807970382737901
0.0814986947378123
0.0778297035071647
0.0787465290604236
0.0810168789204014
0.0784055377502197
0.0788587398885772
0.0801783267797959
0.0803510487118866
0.0793035110597961
0.0805727333813558
0.081114980863433
0.0796159435041943
0.0816526016505079
0.0794248583465241
0.078218026090603
0.0807995924876524
0.0796649609012254
0.0803185165250206
0.0804471145205331
0.0799893374735626
0.0813232646045317
0.0812407725537239
0.0800213989787872
0.0809307443824993
0.0817115206290538
0.0822183460208517
0.0815282899549071
0.0814441102419543
0.0808671554850835
0.0801799300641599
0.0805963658170924
0.0831252361385489
0.0808102221949859
0.079930273517665
0.0823130811052314
0.0829963427285343
0.0829025673446756
0.0840304492622648
0.0822257238479668
0.0816452450308066
0.0823307070389487
0.0844501067696377
0.0844035417262397
0.083847318700162
0.082342569348943
0.0861958467036383
0.0842933403398515
0.0835221212856805
0.0848586293392346
0.0828769327890011
0.0819002853028814
0.0825002998096832
0.0845577562654023
0.0853191199484832
0.080888040305455
0.0816235320247477
0.0835849049831605
0.0835635264275916
0.0835432639990646
0.083753140445154
0.0816013641407667
0.0815066323186533
0.0830620323357295
0.082247743798808
0.0835190995973178
0.0826664739633699
0.0824468841304944
0.081834252438432
0.0827468194853394
0.0823119970823164
0.0807590993022929
0.0798863881842806
0.0805631999074518
0.080340255724259
0.0804020285359618
0.0786653653460399
0.0777892973296246
0.0812036816859253
0.0796379995981014
0.078516160862156
0.0775800805098136
0.0787624979636919
0.0800128779625386
0.0777246852971434
0.0788098403509901
0.0790940731126429
0.0792637552797403
0.0783073241980056
0.0769364433274644
0.0788294252395143
0.0789381772921352
0.0779460401942744
0.0762926528206454
0.0798181465751966
0.0799132144619749
0.078239064415027
0.0785743722163184
0.0767764788321609
0.077028271085978
0.0804106678080474
0.0796460436979769
0.0775329646931417
0.0779028003063282
0.0764801216192351
0.0763990136482593
0.0766310039284726
0.0780099813025279
0.0760247810715209
0.0774564458876591
0.0769170242799969
0.0764327758340376
0.0791812771794711
0.077097049504882
0.0754551972681119
0.0785297225784251
0.0760690381971476
0.0754531896899346
0.0752070818462973
0.0750028650313729
0.0757344108793563
0.0770160568586662
0.0766587090467764
0.0761477603712233
0.0735536953457029
0.0734552411246314
0.0728597406079584
0.073921107066845
0.0754182761895234
0.0741430261867355
0.0741801436872646
0.0737999673318973
0.0714205861966925
0.075225732843595
0.0757724626789014
0.0742134033240959
0.072758627753798
0.0739343060498415
0.0742828017582531
0.0738300058133854
0.074546262657981
0.0753875392767817
0.0725568590649725
0.0728184837293171
0.0734671015383215
0.0736506243780618
0.0741641356314966
0.0751258899793297
0.0724950080468271
0.0717665768471717
0.0727209010552078
0.0729426609846179
0.0730418335184756
0.0728601514850941
0.0726295861455709
0.0728505336921242
0.0710634212429855
0.0717700028513032
0.0706638432147137
0.0697283900183919
0.06920241433917
0.0713850954302745
0.0728941872641387
0.0703147708419455
0.0715664347950039
0.0734661637102558
0.0714079067852006
0.0711349974639737
0.0719438225250286
0.0701062806502535
0.0689733847967309
0.0701601429785647
0.0676087154225819
0.0698069963989664
0.0699862468603248
0.0682467050761801
0.0685795707798444
0.0678323793024021
0.0695431060811315
0.0697362485140515
0.0673434891281803
0.0691614908400711
0.0684794370955781
0.0677031735292549
0.066680511419335
0.0665047359580735
0.0672790470280073
0.0651319538039789
0.0651691711287086
0.0660826857834846
0.0648427695387483
0.0645376774819421
0.0673993455557404
0.066273397241668
0.0684873653238121
0.0670261662893892
0.0653645025602726
0.064461625156733
0.0630458895550434
0.0653505606485448
0.0624805320488333
0.0625574568808502
0.0632829692835796
0.062483439236974
0.061743784960126
0.0616831732708643
0.0616873479507707
0.0593440995679085
0.0602736494846122
0.0606154405156047
0.0596797877544107
0.0606654082384626
0.0571314368356756
0.0617779527994471
0.0605026311812601
0.0596553785153493
0.0612574083260104
0.0596563578079298
0.0592068347076987
0.0595352920623258
0.0613170838219498
0.0700113086530747
0.0594929240741431
0.0609008110782604
0.0623687877816733
0.0612739670171968
0.05904918953196
0.0593748467403502
0.0597178823973722
0.0567031956910678
0.0585435218143983
0.0610491762601697
0.0574759769324617
0.0580375741165584
0.0591143552985818
0.05880454037905
0.0577672924924287
0.0582896939600035
0.0582405332066925
0.0587335624938515
0.0580911620835783
0.0581892677207969
0.0560018412388012
0.0578081782026462
0.056575129428709
0.0585038170657911
0.0552342369190269
0.0611760213823297
0.0626002222732095
0.0577618292031125
0.0574527452246461
0.0564469572392388
0.0566901068111224
0.0563330951944493
0.057273921005732
0.0556819092254979
0.056601325317654
0.0561995018849819
0.0549069008560002
0.0542713770031307
0.0534126418776528
0.0561354404877092
0.0565016157301764
0.0541275292771887
0.0551228521308419
0.0546781275274144
0.053380219638831
0.0529604180245875
0.0528500133273528
0.0548982269590744
0.056196342384426
0.054850645489699
0.0533091709337443
0.0543962076103652
0.0686926231527439
0.0569838456843271
0.0539148645697185
0.0549737525872644
0.0533900828932588
0.0513469851953686
0.0530827231851716
0.0537732495197803
0.0542234915108188
0.051903261339152
0.0534516908234652
0.0525103289640321
0.0542141624458946
0.0531779718436828
0.0510379287532237
0.0543984955297002
0.0523935100200895
0.0515222146911133
0.0542367611566155
0.0533151009549624
0.0549791312910408
0.0605109030609094
0.0571452786253608
0.0539831792044001
0.0547629433945406
0.0492127544171888
0.0688576216390282
0.0638592887928419
0.0509108436132501
0.0559793420101055
0.0498572259540127
0.0515133998309617
0.0534043347604742
0.052665187127082
0.0496485647484645
0.0581661958315496
0.0533866532204703
0.0567204618431137
0.0522183429611852
0.0514925879829041
0.0517216878148023
0.051897589192174
0.0518129026426866
0.0524985517810542
0.0510001047173902
0.052089957002783
0.0516357567879813
0.0490563251464255
0.0519250647931713
0.0498498456354202
0.0522234187817238
0.059033446404169
0.0518386750548582
0.0531596258436553
0.0529289850244125
0.0505789418051534
0.0542773755479359
0.0691993181577696
0.0517255112112308
0.0523966239546868
0.052166252734597
0.0540508440434448
0.0522722560082124
0.05143771709824
0.0523966643328709
0.0517529781207895
0.0520362719554322
0.0527139230808708
0.0509538464619708
0.0497885773018916
0.0505372917859933
0.0526445305404644
0.0506752394071822
0.0496517007210255
0.0528818991070665
0.0505677256300539
0.0506922206347293
0.0519288744374001
0.0642839486660133
0.0690007552861666
0.0594321052837742
0.0622305584756012
0.0522753947897674
0.0532440490792249
0.0516524374581569
0.0532304348511148
0.0503652172243404
0.0532784625266547
0.0518143932776409
0.0525234338157824
0.0527646418913206
0.0533286188843995
0.0505376365901939
0.0527668380405232
0.0508744417839787
0.055188117484641
0.0521486431967706
0.0531128238819158
0.0502613754391477
0.0519111162760735
0.0490947995423797
0.0568111901655891
0.0558643277524326
0.0521228378228438
0.0449339949647173
0.0652074562296866
0.0775124729074528
0.056236153658249
0.0583650856300622
0.0508707939463241
0.053122216422692
0.051413767020865
0.0541565780683697
0.059963004124096
0.053740950682296
0.0539044309818619
0.0547835996133784
0.0539707850960858
0.0548057082662339
0.0500576166616301
0.0617089986208822
0.0800914310160531
0.06293513771145
0.05797171751149
0.0509447675238569
0.0577530386347459
0.0801370947998601
0.0578880130634786
0.0550785662589394
0.0587006145775833
0.0547340208374649
0.0544252326926456
0.0520539928374086
0.0550153405947131
0.0624348706640004
0.0582393406752565
0.0539696148237115
0.0569207882571779
0.0534697888879558
0.0565933221079178
0.0559822464487529
0.0597010799141789
0.0653192250827152
0.0591907175077437
0.0582663772389598
0.0601318589919918
0.0558421797234989
0.059054655538082
0.0594295915139435
0.0574113663855145
0.0608852017691128
0.0687201073917178
0.0604434715237663
0.0674417223028964
0.0702430809744962
0.0589108675905095
0.0612965224829337
0.0644572874512021
0.0656793305321678
0.0550627648049974
0.0599464235006036
0.0866224433624723
0.0707647109478898
0.077541792460283
0.065947609486418
0.0625077822255994
0.061761945588176
0.062166234600239
0.0574084581180123
0.0714135603974288
0.0683500636519615
0.0607625620620743
0.0602013879140075
0.0636566605443556
0.0742938547024864
0.0670300046707525
0.0627657171651315
0.0633858308351806
0.0610666180746205
0.0732914282773548
0.0748093953262869
0.0591604066562385
0.0886874871380189
0.0838636493745078
0.0831000393069375
0.0752786768640032
0.0627950242474166
0.0874561443561898
0.074575173440214
0.0676100670954099
0.0692176419227768
0.0675215997097271
0.0628240438860885
0.0677495769733062
0.0997336343628881
0.0797557627231087
0.0683940345280077
0.0762967951846851
0.0710656347310151
0.0899045347246872
0.0857119676367405
0.0735392696254184
0.0763029357476276
0.0777994278456686
0.068117417892376
0.0995280937620252
0.0977981562383093
0.0811250265746576
0.10250750091243
0.0916051802181947
0.0942792302765336
0.0889132622335908
0.0820526966936252
0.0925298184925776
0.0992970021106643
0.0886818455452855
0.0774775422392215
0.0919623754447784
0.105747358429788
0.0882316329158051
0.091590117295563
0.090688426881789
0.0805935280974107
0.110901276981314
0.149081512046007
0.122882805819314
0.102189627338278
0.101254244482223
0.117320775813245
0.107615683465252
0.100605250384261
0.104518009485642
0.104366517918891
0.10386699924533
0.105669838589838
0.116386317513029
0.112505922119913
0.11444437211846
0.112877938723899
0.109285312837071
0.128200369080234
0.157442194964158
0.147562363418946
0.126592386908088
0.135366580374464
0.141517764964162
0.130990105075372
0.128436742907465
0.126233894016891
0.134908347523561
0.135684412046547
0.133106710933243
0.131172064642879
0.146358553281423
0.146448896764371
0.15424557905508
0.161645906840004
0.148290739299559
0.140098265226252
0.144690752234304
0.254305053999687
0.191126373227833
0.170041407658015
0.166881908654973
0.169476973012972
0.230293284221964
0.192384978872155
0.17324343819332
0.182115753172232
0.182327047569852
0.187932043559846
0.19903602008147
0.206158988688141
0.217411379266119
0.209485750030203
0.200217906759038
0.217149562591299
0.285310467977288
0.284118351732364
0.25450863779178
0.242159186085798
0.257519532095728
0.266250896673299
0.256783629044487
0.265744291537196
0.257618874615256
0.271179687624287
0.324176284470815
0.298710463950463
0.285021029336096
0.29823708804943
0.3096578665612
0.297769394456896
0.337803845481127
0.354051994158086
0.326030063540926
0.327122349183744
0.334614552454774
0.34094408844911
0.343271838664657
0.373348942198278
0.380793879957076
0.366931173717332
0.371332374107988
0.373285048673414
0.37282085184894
0.382660404268868
0.379321875980275
0.383823831233301
0.397002355331746
0.411040315458579
0.547078411091364
0.446108411605296
0.407467116424621
0.399255171028874
0.398887610466967
0.430005135310113
0.428452618771438
0.451447477528818
0.44335277381397
0.409531868086303
0.412292177591814
0.420134472185766
0.41424573454947
0.419774283333413
0.420666648964777
0.412921354180674
0.427990598516232
0.417691075353326
0.434937171639913
0.490536525250005
0.43274093677572
0.411769069191743
0.420283708463457
0.413417186185593
0.419665091865342
0.408002081126037
0.417534196392986
0.432674187776363
0.413700956159852
0.402948100721196
0.399537372361255
0.423782998380945
0.420878924651728
0.399030109037067
0.396767169559489
0.39132508811002
0.389990694267936
0.37167306234746
0.39664009601761
0.440877634401693
0.398303354496298
0.376599694936503
0.384132029532745
0.377430896986056
0.376438422579007
0.370684911233057
0.374592447971369
0.373024617493974
0.370857532391804
0.368382221030094
0.368062662603047
0.362524711179001
0.365013115061479
0.364670939598866
0.362920127863903
0.367099120785507
0.367668724142756
0.362840027778992
0.359814808874788
0.36027809084537
0.363628898172456
0.35781999401484
0.363108744676802
0.366146290513944
0.358164634566417
0.360736569638432
0.358978050467552
0.354904282911829
0.358374121771304
0.356804077952465
0.356261685973244
0.355970122159831
0.350189087933568
0.351329401590328
0.352164131545132
0.350974600790331
0.346393474684418
0.349090937726819
0.347392048209411
0.343350016649042
0.33968244416521
0.338055396969948
0.378357535457806
0.365958485249106
0.339513439810063
0.332427275062431
0.334382890533039
0.322121467777683
0.32077782262864
0.346658671198954
0.353185033563084
0.317710061066325
0.311439035254448
0.304646560337563
0.320424535379537
0.3156677638324
0.303567041575176
0.297215436848383
0.285938719767746
0.314355426620351
0.346487142966073
0.357970591178111
0.369600498994954
0.311380304114545
0.27352557306157
0.300530663695907
0.313865444009205
0.285998810563995
0.268834997029476
0.274305657126875
0.287228312555334
0.283873674563749
0.265132373368895
0.258019197231409
0.250297167741986
0.268595847182776
0.286451422747322
0.263299605811433
0.272090249393317
0.277365247145114
0.263360852656406
0.266455278643715
0.323409577564858
0.276090180455058
0.245472802754355
0.244896802982903
0.234905887177341
0.247921775691807
0.269043671908567
0.253554044149604
0.245703803881147
0.23404068282035
0.228116530926461
0.231153384714602
0.248400455885819
0.224307289288899
0.23341113097884
0.238286503478637
0.233472007359705
0.220960036963924
0.232271235745628
0.24540022493135
0.259393077687297
0.230050782850122
0.209972096463772
0.24220489840757
0.246622397382075
0.22807021308783
0.223180566283492
0.211078814675571
0.21486133012078
0.225251882124349
0.212403791853893
0.214685623946141
0.218172204085852
0.229469283046471
0.239329221262787
0.266622060798578
0.255449606104445
0.221796025993529
0.206259658586772
0.202609478132836
0.212273592747363
0.205974586375544
0.200331258769802
0.21984843119422
0.215600018335628
0.216086310781767
0.236665616416192
0.230851908551659
0.216052404596669
0.21775766780207
0.212601062771309
0.226323800355969
0.252667457674291
0.269349866348761
0.239338276707072
0.236150930166513
0.244658806402636
0.248616149244532
0.241336551539686
0.250282418407379
0.245005685822563
0.253305865147757
0.262813994632057
0.271296707043934
0.266129168463152
0.274197167382068
0.269104615961582
0.3095337509711
0.308746129510067
0.301027069901378
0.307836132568655
0.338818579774356
0.3317550223494
0.338829138316465
0.325081210774776
0.331146194398055
0.337002086281685
0.339435392016858
0.33511044683788
0.357987528878027
0.370217900402575
0.365946827706847
0.353992434446181
0.369177547327371
0.36135869508405
0.371459112161212
0.39401536374832
0.400031321644471
0.428695250451583
0.429714221102073
0.407665200544078
0.390092393446898
0.395777852710258
0.401311778368362
0.402464800332371
0.39926006484671
0.393578002621951
0.406829483502102
0.423849835350941
0.412313872568653
0.409771015305468
0.413949844666944
0.411842448437265
0.420426179150618
0.418193811093543
0.413631924372853
0.421267065947083
0.432912732848087
0.418913582390128
0.43561196902528
0.491070646508185
0.460837901282037
0.4379405594921
0.444166974614623
0.452559849146617
0.45130656107558
0.449874896716974
0.471129255891957
0.473081238703605
0.464715240809206
0.465403916108759
0.473851182347375
0.469973987028287
0.48932587613018
0.498720614432315
0.495073734453481
0.484107056166574
0.471320875873313
0.514661690499029
0.528096188008697
0.514192327664678
0.505348655909359
0.512003850562813
0.493352306810241
0.502117840126428
0.498139794417293
0.506095299510969
0.503801784677615
0.505613687324659
0.505446806639538
0.500629347415091
0.507834563064692
0.498281043625033
0.501211379687493
0.514768666735342
0.502293583772116
0.499515182949676
0.504444409581066
0.495640680494205
0.496705624297856
0.508751475327942
0.509425408828313
0.505344803651917
0.491272540745968
0.494895958520021
0.515979275948515
0.518556594712046
0.493638737202516
0.488927773884714
0.498430004984987
0.500952434163394
0.488209526616721
0.503338394553241
0.511240477168377
0.513978573480895
0.50408617073873
0.510462486478439
0.509533996001361
0.517743884061209
0.512699848773208
0.521605444921442
0.520493960764106
0.531977336076245
0.534780326121835
0.528619478885559
0.52777432175533
0.539047575636596
0.540683771939046
0.546425762248804
0.535738677590553
0.534050826133785
0.526579326303741
0.525742875812665
0.533691060260992
0.531192313191352
0.506887069546123
0.519702667521485
0.508639222915461
0.520267099055797
0.525383704349303
0.516278836664847
0.507258230325224
0.499814221301755
0.488055161696526
0.491731745269037
0.487307478698669
0.47789798546112
0.47978823167128
0.480282121548812
0.476968623207987
0.472032963355798
0.474805578765171
0.470654347265942
0.469974385377736
0.471212733863295
0.465819302336126
0.466783351719201
0.465572928059438
0.465295783902956
0.458192744199228
0.462150630130114
0.455979785476013
0.460170577975572
0.464767703403907
0.474588248491401
0.469842231337298
0.459313913389187
0.469384095893147
0.459703703960866
0.456155306280949
0.461215226353644
0.464623494128751
0.45277358364975
0.456104992453026
0.459071720612077
0.457879760649339
0.454124090971102
0.457559468325445
0.45647559608192
0.453908928026918
0.450423581521613
0.455295749141182
0.458039882355778
0.453641637857788
0.451818508781761
0.458573695301534
0.45619329004152
0.453479256426028
0.458408430828566
0.450692674594524
0.451980198557072
0.451864596505197
0.452330627256091
0.455022687499595
0.451492443215526
0.453028459412487
0.449780451796376
0.446243452515864
0.447075255452317
0.452128988882294
0.447472599956907
0.447551698395139
0.44756705412062
0.439796599974765
0.44031680074192
0.439360552816375
0.43779208369468
0.430580107987173
0.424492950616801
0.423502989036077
0.42361519390343
0.420711617691358
0.411221491693399
0.412209207573873
0.409476482791915
0.401665589576675
0.401187135781662
0.396697296202508
0.396901248110789
0.391693543143049
0.396791165653221
0.391988804881736
0.389026354865109
0.38670326082701
0.38415922455173
0.38684403946888
0.385068383019523
0.385645797496768
0.391126906108768
0.387392036760293
0.3867561429242
0.386543373547311
0.391444257163416
0.390517752668162
0.393637691676473
0.393326600896926
0.393169018483677
0.393500180110995
0.397942589132888
0.400406907822399
0.40106170461353
0.40058494694214
0.40374503591992
0.405153664290428
0.409107463188885
0.409359352866591
0.409329085210104
0.407082355885393
0.408774219959049
0.41386588519507
0.414525090768133
0.413845653098305
0.414703049858228
0.413330327943207
0.412638491319506
0.411339422701979
0.40946350165784
0.411239895667095
0.411775866326977
0.407573002165434
0.407307976233731
0.4073779332667
0.405436620918224
0.403631022926066
0.402086588872037
0.399063816344517
0.399981105444388
0.399035640915435
0.398209380391423
0.394405099917198
0.392994009523322
0.390135833862888
0.387450092407547
0.389918018766642
0.388001133648283
0.38691228620952
0.388881219661316
0.381883569556407
0.381635893874205
0.38166309202066
0.379487993494514
0.380133713933992
0.377519482102349
0.376164193770117
0.374432599599055
0.372876272147969
0.377040443199595
0.374355260619412
0.369329577852184
0.367026391487137
0.369785025819513
0.369273471139399
0.365964965122194
0.363457441338594
0.361459846429479
0.360339627472272
0.357765014312472
0.35356641618859
0.354492312992508
0.350341479519203
0.347931998501587
0.345166915551202
0.342587306072449
0.340277146480749
0.337768158002927
0.335995776503953
0.33380021745792
0.331087380517515
0.330702590704029
0.332199145995411
0.332003815175602
0.330246727542056
0.33048625328569
0.327636712721401
0.329753620532131
0.327777635620407
0.324191929767999
0.320541699746417
0.318478310771485
0.318200737117592
0.315001553855799
0.309814605401307
0.304741613283642
0.300362669852475
0.295417976765488
0.292948385424413
0.290663996793055
0.287080934003876
0.285710147776768
0.285833531689133
0.286213624427131
0.28832112214848
0.293679455566914
0.295541136920786
0.302589364043025
0.310218771802064
0.317105012434685
0.32588769011287
0.338597812506298
0.34634014287782
0.362755932977321
0.376315855588813
0.393088278744989
0.407787244216443
0.421271043596211
0.43691082946021
0.451601923343901
0.465919391661136
0.48042392686413
0.494452104872885
0.509134779965556
0.523782155721526
0.54273999461687
0.556986096738544
0.568681094488724
0.582092201569628
0.594246580796386
0.609229287677997
0.618386009783836
0.627249388647809
0.637359043346031
0.649321456944049
0.657681989355889
0.669376391132019
0.673049125839507
0.67493069493505
0.682296150564381
0.684155301878377
0.684830267030064
0.688606046942462
0.691243948800022
0.680602953351509
0.692186467023551
0.689027269027335
0.688067713773591
0.686200458871664
0.69163131493648
0.689249757780071
0.68825402860268
0.691616169756275
0.693018698527265
0.68912255071896
0.693732843656974
0.700634098586123
0.705267799939142
0.714491644682244
0.719736488923724
0.719574303305178
0.72795916252727
0.737801539411156
0.747780271991437
0.750362994647483
0.764743432033589
0.773993456652555
0.781954015372313
0.796742138655292
0.808426634365226
0.817107718324236
0.822881374416572
0.831297498673631
0.85180260652725
0.859419678035525
0.863639541636603
0.862464190508213
0.860858810932808
0.870880215082305
0.870599415259348
0.875391701236177
0.872311209111462
0.855425480781266
0.853536136268238
0.862558070258895
0.859899832441876
0.850234561036111
0.850121330024272
0.851954067278352
0.863574720435685
0.855677702031488
0.881648458991664
0.88147889601902
0.882715563136332
0.900683214895916
0.916126183736456
0.933742431576539
0.937615302851245
0.96049587190286
0.971903987072328
0.976559819462464
0.990601866517965
1.00620712848686
1.02211452196349
1.03522849752695
1.06412764938625
1.09069769488309
1.09428896157127
1.08787783954216
1.1116208748766
1.1129888523334
1.12637258800324
1.17009497156832
1.22175064122553
1.2203995809488
1.23367407963523
1.26813346949481
1.31134624449626
1.31990154295174
1.32419988342361
1.34822271111729
1.38447439165347
1.35096828059346
1.37621343211645
1.40539355416952
1.44427689438162
1.45610970007631
1.43249618584888
1.42640763673535
1.47836523115113
1.42215668916352
1.3951245020839
1.4134963336329
1.42325461627298
1.39222836733297
1.42004748148654
1.37867719058161
1.38764492021317
1.41802691942925
1.4270750027956
1.36810638311408
1.36732906527316
1.38817743464982
1.42856531032314
1.40956285775123
1.4091856333118
1.45248602708983
1.41308717033764
1.47201295068918
1.49332680594911
1.49948420863271
1.51330628449581
1.51981749313815
1.62434331243909
1.55388731941986
1.61529396005677
1.59512207968376
1.59180209446692
1.61506107835845
1.61090978381868
1.6234152943452
1.71968352046429
1.61720703125298
1.65338187234146
1.71589226703742
1.64352369151834
1.70206050446444
1.80028240575062
1.70397446743076
1.88211999750489
1.69476877099575
1.63449496787486
1.67881024668099
1.79890998314138
1.67579859028321
1.78979456436872
1.72692282583424
1.67205631752666
1.70540969926433
1.78523448854149
1.70457451531016
1.71356024290205
1.71462765282485
1.77858206727781
1.72282791472243
1.63184611501117
1.67961529266975
1.65769202801158
1.57950606598618
1.6051514442322
1.5274190885858
1.49386733193831
1.44074669946412
1.40059460533596
1.41874251378419
1.3455650323432
1.28571311543477
1.31386114565126
1.21670261977486
1.22396454467654
1.22173632071482
1.2070545276748
1.14694459980084
1.17470896180779
1.16447657181301
1.1292519978987
1.14254878331566
1.13747197147974
1.1234784849574
1.12297782788954
1.09231427167824
1.11517116253055
1.08944785910456
1.0847459717204
1.04294455130969
1.03959956575814
1.00890597937045
1.00170689765297
0.959254698217219
0.93058569912106
0.921721712357251
0.889428780351208
0.840384929945956
0.827302242798971
0.801347449545555
0.773410952918157
0.741455555061489
0.704297830935319
0.67112744373526
0.647192349774622
0.614388541597282
0.592309784400702
0.561592033082993
0.535636896349653
0.519941221489109
0.501738061754507
0.485798448817575
0.477235694840991
0.456955822739437
0.448370741800129
0.436164918242084
0.423001350479611
0.411252432293896
0.411457636972187
0.400236562238009
0.40077231920595
0.389128897588878
0.390556499153323
0.38824189695585
0.384026306744788
0.383610021065956
0.389699917989867
0.389809524117933
0.385778846346117
0.387801690458692
0.390409591079178
0.388361025508421
0.391355606547281
0.398404683497672
0.398831365145739
0.395648082865477
0.39478849304635
0.386411016817099
0.391783536652013
0.388875515950251
0.389493492194336
0.386038480901118
0.38117576073154
0.378299785713289
0.371385624865106
0.370022575503001
0.372016219315647
0.364272588916558
0.369441624050786
0.371774521417182
0.368240919932571
0.372046896374056
0.377297796919296
0.377027489268318
0.380196938304305
0.378394849360492
0.382950902394979
0.380028494576879
0.390136985107361
0.385349550718963
0.392386732619695
0.392355862728412
0.391630855014265
0.393168133810465
0.399565017586286
0.397170835502578
0.402304753084574
0.399723383674324
0.409724697081579
0.398806350272617
0.397779245037486
0.396799693095282
0.404994427086402
0.40193016104636
0.399064596361199
0.406335191677594
0.409327451037206
0.406743813521779
0.416607599874821
0.416822328194412
0.4236320891135
0.425635152931739
0.450432032145422
0.459381871387623
0.468129036481852
0.475551412873558
0.485038490590975
0.489031126209766
0.512835755533681
0.520063376929902
0.526856858078456
0.525173494186904
0.53134484519891
0.528884250856174
0.525705762203137
0.509227033686132
0.521315598621179
0.510352598658086
0.503831056356125
0.493924774353266
0.485912139125939
0.471317634968408
0.471344198911148
0.477154972816981
0.474746034689776
0.466207611438065
0.475028005854265
0.477407122821583
0.482783063043194
0.469425368676666
0.485474021199845
0.485495423242212
0.473694851651093
0.465948094638083
0.466295687419764
0.475426053722167
0.468507075239471
0.46300588043301
0.455957904473805
0.444304407408363
0.45322888060549
0.444458010413711
0.446224366134282
0.434059166537604
0.434425680360384
0.439484862087417
0.431096889484663
0.433242616405738
0.432431919667661
0.428062754874129
0.434361561253392
0.435552454006009
0.423701157228017
0.420512287566764
0.430142742261812
0.427209145742186
0.424439431497982
0.425341717555225
0.408537223534823
0.401981863338185
0.424422064453591
0.415819023505126
0.40580138789835
0.398389107121496
0.415481462778975
0.400419661733811
0.41450263431907
0.402111642860022
0.405974022354042
0.388271974068102
0.385470495679013
0.393711933428274
0.399761789361154
0.384381069639792
0.386904704391119
0.391405222295127
0.386131358182687
0.391265953971009
0.383826025333815
0.380439410061345
0.39271225262291
0.395386322118363
0.388086563364727
0.37516396728829
0.391110625188004
0.3992791257471
0.399083624760351
0.38763452770273
0.407091560066351
0.396527900012046
0.39718447223825
0.395889143612521
0.39985120817522
0.395922164211654
0.409790410839767
0.41246265838067
0.429786441512845
0.409359424677882
0.418036814720781
0.41074674157449
0.433796828128441
0.427775871720916
0.427176847121219
0.438064662953405
0.415976818853344
0.447556539538427
0.468813158318033
0.456264347114696
0.443665067619635
0.448336843557732
0.475604547678584
0.461530095397873
0.481816856375357
0.490920174370107
0.502372594376632
0.506573580775501
0.536229393146922
0.527571540547416
0.542369888889156
0.545727902554795
0.57913994290304
0.586390716514484
0.605194302973121
0.594927387881677
0.627065418315825
0.605470888459473
0.661050085650318
0.635854226245014
0.678762852923121
0.66040109685161
0.675484986730607
0.641850926532586
0.672772435216995
0.647394549992877
0.683411497308691
0.621862462493159
0.631742178439712
0.65248894943823
0.627599572397101
0.596041955992797
0.676073680059451
0.640277873823693
0.627966261893862
0.631069979836693
0.649863734346258
0.597578483299983
0.634411404599811
0.615360382745543
0.622146941153241
0.611407127100757
0.640938423491284
0.657232972103992
0.684716921348507
0.616937023753444
0.615312536008774
0.627180008865016
0.60062929862548
0.608766533917673
0.592700519858013
0.600565146582914
0.650604973442754
0.548929701550616
0.599207306692237
0.615218847975515
0.596752183603888
0.567828589346627
0.610764633821999
0.580428402947654
0.643965811705134
0.573126634763768
0.589430964933008
0.594871818290876
0.617937995403019
0.54754285039318
0.639469085640897
0.665789477400738
0.627184771838182
0.61589816971177
0.590278758896226
0.589972496440766
0.593800533549626
0.617449025009078
0.694698051075558
0.573643112663418
0.613603857529906
0.631846685304897
0.658401089860563
0.607592763893706
0.670719078064313
0.590497565761571
0.634640271043172
0.564454817401844
0.659289637935381
0.616069577455152
0.728450734216369
0.640966245467247
0.714701175000622
0.63179310905848
0.681182627396297
0.680798577573069
0.836113110707656
0.67725573315739
0.878346357796713
0.622883084156669
0.780589633582195
0.709634277261852
0.758528348005909
0.694563201813991
0.832272177265295
0.744377048946931
0.759235328978778
0.742944989747218
0.751113371658649
0.763590387395487
0.86591725757847
0.739941146378441
0.897934576079543
0.813420259072652
0.776668365065983
0.711782914070398
0.809008000917008
0.717672662873008
0.812852481041649
0.740346898585956
0.915134971681127
0.633849014754569
0.917291251357681
0.817857231955749
0.942887237070493
0.618729921978387
0.833090396486974
0.813653380297697
0.914722865582671
0.796063113497981
0.983563032260906
0.893020267457157
0.785800993766027
0.735456173274739
0.860859762610373
0.688643993783858
0.893211980334412
0.672668164213125
1.01630579274321
0.703449058002183
0.997385684638074
0.635329936036703
0.895037236414016
0.505699604214461
0.865817231925862
0.780987749378272
0.812571272629147
0.441555346461385
0.982739754737062
0.517775503421336
5
0.802764006595679
0.985420287328839
0.851748130357134
1.0292083587577
0.692774732013577
0.751916103618118
0.568967045159833
5
0.747200953897741
0.899510457948687
0.971680075049051
5
0.622630518093486
5
1.91610744042762
1.16207771479336
0.310324616066224
1.68761244945479
