3596
4000.36533379555
650.420452594757
1
2
2
0.0384311148587452
0.0349784953718087
0.0334134628316054
0.0362346061073922
0.0403460216206232
0.0338880106960608
0.0403239997763712
0.0360800829617041
0.0383372239536677
0.0366958620125987
0.0303400465757783
0.032737263149367
0.0388088363843082
0.0343980588869516
0.0394727991400722
0.0362326595396406
0.0350054123252508
0.0375962211317503
0.0309551741894685
0.0386024936419751
0.0366736617656133
0.0357155433697807
0.0362671422766388
0.0414901246933925
0.037548879213842
0.0420824637719209
0.0356952415787341
0.0356579009161674
0.0388513220445994
0.0417658031397318
0.030316650089329
0.0293926849556716
0.0390599938051481
0.0335273988689541
0.0369858846246975
0.0354789348083458
0.0354778602350792
0.0338787296942824
0.0327174297406438
0.0417337921133621
0.0386274881174925
0.0359929427366713
0.037713049316223
0.0359844214910652
0.0346474972144923
0.031340304090176
0.0420146035262123
0.036498843452821
0.0320120369425133
0.0397352342691704
0.037534499614518
0.0385627353339804
0.0376619217068068
0.0422546863350348
0.0392728887903369
0.0486668661845455
0.0454715356852074
0.0331080009167
0.0399893243934064
0.0377623349972759
0.0498598645069765
0.0468004458878326
0.0424969217262561
0.0300200314365271
0.0360157344243521
0.0457283020387969
0.0433584877111856
0.0367789305159157
0.0426573907337792
0.0329350337795491
0.0359566776608708
0.0332510138414865
0.0500196478706836
0.0392322590743295
0.0450292838765262
0.0386211806844265
0.0365266370194026
0.0354216111040568
0.0309383900782836
0.0371687783516082
0.0547808465682475
0.0361620048801852
0.0332543180953658
0.0263962897242118
0.0475480421089083
0.0492943191727911
0.0343729907923251
0.0270938126431908
0.0591153814322712
0.0457601191858681
0.0383077894099061
0.0298063085286975
0.0346128325132163
0.0283848875665472
0.0406424738380265
0.0275297141922428
0.0349730673178981
0.0336878999684784
0.0276429205962422
0.033114464365354
0.03355422863572
0.0562627896568506
0.0651122857690365
0.0426679853017567
0.0577718802501216
0.055707365258258
0.0331868118544249
0.0733727815484241
0.0645823292073381
0.0393362203771549
0.0398518571048877
0.0293973196290675
0.0412657404673499
0.0337030702418828
0.0346705625562317
0.0527148807588233
0.0687611479196426
0.0482694834422898
0.0416233743632839
0.0306694394505556
0.0254326742411474
0.0345279797203845
0.078983657745439
0.0397166322664022
0.0465115489424454
0.0380518279041216
0.0282389779811745
0.0496490763224515
0.0743121468554087
0.0422243638402101
0.0298251840174838
0.0373971345402874
0.0299693262070599
0.0374592960684342
0.0667386632633423
0.0534790277653405
0.0357031553355769
0.026647696428398
0.0393331289179471
0.0761399300565351
0.0493083412266857
0.0432618536525747
0.024571104359216
0.0402342012442086
0.0769317742891121
0.0442602840167187
0.0259514578774632
0.0476976429195011
0.0511684996912192
0.0393703862507214
0.0333190091401821
0.0264279446132637
0.0413934853054066
0.0363604018921962
0.0101113797503987
0.0386075294058461
0.0925279253871676
0.0630562950455795
0.0821813248791522
0.059545105374719
0.0395300467087529
0.0434629974164678
0.0355194653569937
0.034178637130007
0.0370598052924738
0.0296464380723829
0.0427916072362882
0.0620925941579532
0.0323844741228388
0.0385676755173019
0.0651646585604257
0.0386125054799401
0.0202680921719986
0.072748207475852
0.0545409832780944
0.030223934690236
0.0629207670312107
0.0530401593643713
0.0285322724454014
0.0474078683992589
0.061610572391612
0.044784115708175
0.0342322457967931
0.0289566645300553
0.0352481843709314
0.0572385042080656
0.0493748897725998
0.0400732245861343
0.0341730293045128
0.0253030041720312
0.0363077480608887
0.0766772232281556
0.0699157507336956
0.0419670109815676
0.0338522261752859
0.0157622037531192
0.0395147792013849
0.0801466016237408
0.0390339589460842
0.0333544636968705
0.0313586376254518
0.0310139607495671
0.0350383075877084
0.0360151647637595
0.0274889475850521
0.0210771983031587
0.0573124832800016
0.0637253439376647
0.0333150428744581
0.0308770945000976
0.0288420083384672
0.0248103793941675
0.0630716621125832
0.0680953224502338
0.0377316424546688
0.0392827157130249
0.0295609265239857
0.0522534802006513
0.0574904543904203
0.0420491284139035
0.0270562958464084
0.0338641981990399
0.0310999351949102
0.0350989690311985
0.0374947047221237
0.0348234440695791
0.034079558620061
0.0319948039970576
0.0267721418262858
0.0337398113588218
0.0385937007560755
0.0438091360762602
0.036312228110911
0.0348191358338509
0.0243299439258599
0.0432087213781283
0.0558540220607262
0.0395691324975966
0.0312173595457381
0.0333481805237391
0.0285251604693347
0.0304437145130567
0.0297366138679909
0.0423035042266015
0.0199827973211047
0.029236305451399
0.0543190834472325
0.0533533310439149
0.0309646045597231
0.0295769756396112
0.0400906435704288
0.0573258533639688
0.03403078488787
0.0348973391294181
0.0356021664786472
0.0284510767225407
0.0255917605002879
0.0556960230086961
0.0440390248411483
0.0354529020826352
0.0415892633447068
0.0410980024194932
0.0357079845594808
0.0239258960161808
0.0142679891199901
0.0837929446122207
0.0489905846976317
0.0226327403782821
0.0904478070454297
0.0623611699904281
0.047617183863522
0.0360714311183153
-0.0248116596092221
0.0930643091320278
0.0980690008538683
0.0426022382383146
0.0467960529340239
0.0441737742067755
0.0352153960458486
0.039423351243445
0.0371424129213895
0.0437703392729479
0.0574434216116928
0.0871209288911954
0.0724328053307994
0.0330247255676147
0.0458233156368319
0.0639739291620301
0.0392238578207505
0.0399787044334653
0.0314239668958895
0.0313569767813085
0.0441139228434806
0.0500047307683986
0.0512044283319858
0.0391836369649178
0.0416980072216572
0.0563799023342832
0.0491732587788358
0.0332845073625529
0.0415089048244103
0.0486964563996754
0.0353143543422665
0.0312356116945015
0.0353512742883964
0.0465073850203224
0.0292286619783988
0.0188703617848252
0.0789755877855903
0.0547081957423583
0.0374971325142144
0.0581341719930312
0.0415948669978965
0.0349443921354122
0.0333999612247643
0.0347151959284727
0.035202793817258
0.0300543637627875
0.0196380852881559
0.0549680164960427
0.0473008641097397
0.0304804800898729
0.0308689470086341
0.0277828182250957
0.0306053994770497
0.0358191861625573
0.0273626675994567
0.0352877158072907
0.0341098863045173
0.0225691327266599
0.0438879644778108
0.0526437398654871
0.0187392387127446
0.0500361913484662
0.0731188846264245
0.0389455913934725
0.040092063054425
0.0288170535826058
0.0398271817976153
0.0366816018701351
0.0301504922486467
0.0330188496142766
0.0327448414720581
0.0489822023832995
0.0450049764282997
0.0268378150744304
0.0336639784071476
0.0962979515099296
0.087768605015767
0.0536082659147613
0.037617015812858
0.0200586705154793
0.0554270524816796
0.0708348944073605
0.0547064004872512
0.0671972186701791
0.0401407813270318
0.0419181155541616
0.0383966167901713
0.034963914747259
0.0302134623362521
0.0383484738393921
0.0419131932413078
0.0330349377867902
0.0409868422171546
0.0391324845444321
0.0276160633821136
0.0345417522395315
0.06727456965754
0.0570777159366115
0.0368681170293002
0.0379298920719904
0.0289624180744575
0.0466996342234251
0.067701458894389
0.0771174805634701
0.0734273093398746
0.0561588300683707
0.0807961990657211
0.0619745227166505
0.0517909799711871
0.036201320283042
0.040567209489187
0.047774625549624
0.0493460320361569
0.0456410422510835
0.0407863544594166
0.0478505611098324
0.0428642063169797
0.0433043528496199
0.0410385423682446
0.0380485697855261
0.0608004386096694
0.0577074803520661
0.0463495043476211
0.0404898871237417
0.0344383709584445
0.0913084539266617
0.100907663865085
0.0601850192188813
0.0562658643188746
0.0549728790510624
0.0459140282194304
0.055085181179115
0.0484890807985778
0.0567486219329787
0.0482212498374887
0.0748963788109085
0.0816985107130306
0.0684588996096466
0.0682201796193341
0.0428753928366061
0.075499920873809
0.0516371504669941
0.0551652162180596
0.086022590631464
0.0748955128592078
0.0463397890684184
0.0719183421359917
0.08372637252567
0.063543823867975
0.0854524349120103
0.0661723374285118
0.0629476263955553
0.0602433270182175
0.0594306862302351
0.0649683110867799
0.0695602866266328
0.0720545253021775
0.0800285791937456
0.0798833508401491
0.0725343404811131
0.0680806366586435
0.0872633781781271
0.0733647173637129
0.0759639465184696
0.0880937933040491
0.0729815850943547
0.0786397692264265
0.0690954744008973
0.0813240277002871
0.0962083493619502
0.083377721945943
0.105479100892845
0.078403380385626
0.0811700458733937
0.0781628545095703
0.0900334070478842
0.0746077856771986
0.0872162271716059
0.0772318886192876
0.093393183985421
0.0808180540178871
0.0826508562911891
0.0877402437713003
0.0810600190547215
0.0805158806059028
0.0831824527229665
0.0842153033040054
0.0908943351811005
0.100779472333587
0.0899235668190059
0.117962446586229
0.123242357181482
0.111569359110004
0.122750281091073
0.107046104712627
0.106939418353697
0.111450241736775
0.108625894027851
0.107818463867564
0.118644861076176
0.0973980322511051
0.119625219105434
0.105504196635456
0.106128016126333
0.109687010915994
0.112084174089632
0.112161043491577
0.130015830512588
0.106870762760096
0.114726419522444
0.123208205092874
0.121037115720565
0.107650128490971
0.135852059925326
0.129699979038666
0.139053083668165
0.122907131205331
0.132035647058846
0.127247403653326
0.138320537637787
0.138553787991774
0.130436795465605
0.127284082908128
0.14074351146185
0.134762560161947
0.152961877143726
0.149472074897967
0.135605915857277
0.141570291855985
0.144355504373658
0.145117383774628
0.146789821261089
0.139527172913359
0.154147492255344
0.150193320674164
0.154786604581509
0.163711873839279
0.16273940817919
0.155393248125123
0.178218787784432
0.166250288902787
0.157489347050245
0.159778847449643
0.173349119555623
0.168764584084782
0.170489584533309
0.166831144568122
0.179021954387153
0.164104619049186
0.179349637584499
0.173750938618815
0.166466934939886
0.177210531071259
0.197792700934275
0.179531691201902
0.186507936530883
0.176424995139753
0.196821344119356
0.183065680522392
0.200643310006602
0.204243557980356
0.198222126866193
0.197358000837659
0.212107169810722
0.201192274062911
0.193649710814599
0.195062464044107
0.211407773947028
0.197355259808915
0.213904660548185
0.187626675992474
0.222849676591583
0.202775254346634
0.20917940570527
0.212582468571229
0.221905938853704
0.214805383694651
0.222859709846682
0.216673820253272
0.224075110927082
0.219181742775572
0.227945274149273
0.226038707045007
0.232714703267277
0.219256653965167
0.236885166662399
0.239028595496285
0.225841023482872
0.230394974390019
0.240376445232713
0.225253312848371
0.238450509346885
0.236660644397008
0.252514963481964
0.232226717605889
0.242803919343329
0.235512419767869
0.240147170978174
0.24219132280354
0.245708331195999
0.244412708596699
0.256630069926902
0.242251935605238
0.252112265626753
0.256449288702137
0.258638058329628
0.258787546733481
0.25823031709444
0.264687573297889
0.270954355917642
0.259754073881737
0.28443299535357
0.259898945195504
0.266790379780547
0.261953231646678
0.275094621166335
0.276033398346945
0.274704961395667
0.283984959418316
0.274876268099555
0.267194039238017
0.278860298503499
0.269083465324918
0.288635452171358
0.271787008324139
0.289280626917429
0.284597877998217
0.291762427379516
0.281990221766557
0.293779896302168
0.290409126184519
0.284433079810854
0.286267908565999
0.304297618417978
0.28525878026446
0.302465575222644
0.296186904415495
0.313498057556389
0.283035931383248
0.296973988111585
0.295898231030787
0.312078073740691
0.299930005866843
0.317197771416252
0.311679290739272
0.3226788342183
0.304651624900236
0.297308448745405
0.303072617721941
0.314085379126683
0.312104757524953
0.327684503507942
0.312235500016942
0.317173074268002
0.314543142498759
0.320317384175537
0.295465609833247
0.319884854095999
0.307592689585727
0.325144974735673
0.317602129887862
0.331938595492427
0.308169556240066
0.331541641882926
0.312128577858062
0.31890949241928
0.313310198351859
0.328224844940637
0.323455513309953
0.32737100801244
0.314182545317668
0.317892133878315
0.319981219160036
0.336714387849328
0.336693822358948
0.351977886627309
0.331835459590329
0.334083760361965
0.322983273139758
0.35193075450599
0.333120853152883
0.336001402893722
0.324820556937054
0.356976848887107
0.340883539257536
0.324110641424858
0.328301037399828
0.358197179217914
0.326141041071914
0.347607208285408
0.342389568406189
0.335634456015054
0.331802770648485
0.354545360605422
0.333687578755684
0.334128501304957
0.339513590048135
0.345792922525882
0.338746196733764
0.348173175401817
0.334008449462641
0.363617733851458
0.337993385077775
0.335394740389673
0.331750503638361
0.355057924033122
0.332833700134187
0.360276019038733
0.348290665789775
0.352085627138719
0.349141945286498
0.36469677918483
0.3480144019743
0.34699932936798
0.334489329779629
0.348212093486232
0.335366654221073
0.342345795427153
0.335391261817057
0.357456249633645
0.334042623321716
0.346690117987402
0.334614825476789
0.352542036549259
0.349213200547135
0.347387573132395
0.336735664191748
0.350972313791406
0.346034639294292
0.362262046974866
0.341719454879151
0.349235910091642
0.34000585122712
0.35322491326658
0.340652390819735
0.350988028908156
0.346009017822413
0.355331280220891
0.346021005690717
0.352138997765558
0.329320378413848
0.354345565653513
0.328688390680501
0.344257026334196
0.328615971131547
0.348029466723016
0.328915641959947
0.363113020712099
0.33675423309891
0.350907576609128
0.334263749742591
0.339417672549723
0.33051392206231
0.339044123999069
0.33933549714788
0.34569558061095
0.329668999233617
0.341914009746825
0.335462273045906
0.346796849604515
0.334266191980126
0.341404738511578
0.321940048176928
0.347235049934597
0.324452874556964
0.331920977308949
0.313480102805989
0.333610433989689
0.327037735670721
0.327239379662428
0.329090358380306
0.33672911718331
0.319368842707886
0.339364874844845
0.314196796414147
0.34103469402732
0.324260283443358
0.329025925589917
0.31861419474612
0.322855619252773
0.311075203768037
0.323737752907545
0.314216240869848
0.34503444993278
0.318724426467816
0.325535091731746
0.32265624321472
0.313271092335249
0.318136953740291
0.319479630903776
0.318687051032977
0.322002105204557
0.308691154028814
0.317099317918678
0.314096690818091
0.313074340795975
0.307192569895916
0.317501422436587
0.315340731918965
0.317387965906338
0.303439148615385
0.315801151648562
0.308506795119676
0.311929291923128
0.295608046329424
0.306934687226862
0.301619251177751
0.306970044286443
0.293929980464576
0.313831181662385
0.30209117363487
0.310050468428355
0.29491573198097
0.314465636976025
0.291250529897168
0.301945646899809
0.295617698490019
0.303745652989772
0.289671256484502
0.294755481844381
0.295367863112644
0.291583970936498
0.292096458934574
0.299948707276304
0.287061865262787
0.295590356505592
0.281634572739599
0.288582347675253
0.282650217976905
0.296704844135542
0.280907493056274
0.289733174563662
0.273667780429532
0.283876684667457
0.272487617644413
0.280677680134329
0.273877748934437
0.282688871717571
0.283004780852438
0.273002493812012
0.272455135664049
0.278353084700823
0.271311449054009
0.282750113311117
0.257902299145959
0.27600742132375
0.266245467600427
0.273929402999085
0.258497209916808
0.261555794224277
0.259294879959375
0.264232042329134
0.256353421031873
0.261167166687335
0.255675743388897
0.261443483410709
0.257723705729473
0.257250141688114
0.26052718662101
0.255633786048705
0.245964484734764
0.254739686846532
0.249110152277902
0.248281578625801
0.238098204229979
0.254075394892
0.239210976242333
0.247565165182794
0.244045800734393
0.243535827890524
0.236753241033888
0.244062898972704
0.23868332888843
0.246173094381783
0.233492249914066
0.236427990328475
0.232989278515571
0.236215478817705
0.22683766104731
0.236516174802201
0.229668593117457
0.227505082081516
0.232524735021236
0.230217387714495
0.229171644687387
0.225119373896281
0.216333144497191
0.230885512112327
0.217302305013322
0.212971067594893
0.22513015812176
0.22203077276723
0.211186903846264
0.215878882201363
0.20876368553492
0.213641106185101
0.205487737030298
0.20804194231941
0.207556802860441
0.212414721369863
0.199196388921186
0.20937990923186
0.200837431083813
0.207842814173046
0.197573755451742
0.207859287619942
0.197454027528514
0.198565154650469
0.195467099261812
0.194623715470608
0.19752432785713
0.194036879074812
0.189784444436477
0.194180421894556
0.184002928945786
0.193015389664435
0.186373242139741
0.197447132766192
0.182031323796271
0.189590053830745
0.176015979813253
0.185437378181637
0.177459896188305
0.185047107941472
0.179025902938549
0.183521075190082
0.16845448462301
0.177803924621921
0.173803311984254
0.182579114909913
0.17384233052688
0.173094781966266
0.170357210043961
0.174938952972695
0.166585386148298
0.171002310513335
0.162039731185551
0.167640942644522
0.1659728457931
0.159529352061051
0.155573518008904
0.164889511982803
0.150746520481884
0.167015200103349
0.155428181884741
0.157897804010087
0.163003207627179
0.155820524189742
0.149783125246161
0.161099625860104
0.149098760859603
0.155602681524444
0.146363353099949
0.150481904415858
0.14627271591722
0.143671736865869
0.14682284894463
0.145107306968771
0.145402396627715
0.143368536832475
0.147089650472265
0.140089427805149
0.135320445517266
0.139845293693341
0.134432323087707
0.144122744961068
0.139462990082855
0.140525728901222
0.128548463955624
0.135466326961652
0.129457122536624
0.128971831182262
0.134026822417008
0.133704938417332
0.125736407699375
0.13167564686348
0.127998533947264
0.126721150265166
0.12578891728021
0.130801990396114
0.130156936607163
0.130073976756962
0.126402561532676
0.12807236264777
0.124927311267195
0.12247866807816
0.125118227711086
0.124702933977138
0.117023819775841
0.120845586617972
0.120181748693758
0.121553083548483
0.116870371685462
0.117881427110526
0.119299655111143
0.118157279102387
0.111571590263029
0.119405456643431
0.111380023604769
0.112611878853104
0.111223878891871
0.113900274358688
0.109259948870803
0.111197704099767
0.111557866689933
0.116338800446614
0.105552803210048
0.103786762942007
0.107343123571488
0.112746737108995
0.10163562063664
0.108073038476216
0.105077544319913
0.105160201766284
0.09999367448525
0.107201947511771
0.101212577516497
0.101457299770763
0.102490200957622
0.106698296094483
0.0982905624128335
0.10158027355259
0.0971369458642221
0.0930387931207703
0.0937143799396569
0.0987644254171148
0.0885133260366975
0.0974131837610915
0.0964365367926164
0.097258113100285
0.0911231004168259
0.0939449997435324
0.091102828735074
0.0974264722146063
0.0901367011672388
0.0923635482952471
0.0941275573435132
0.0936877214357979
0.086760106918728
0.0948470211503876
0.0899448663638622
0.0915253511399321
0.0903982475083303
0.0919231046993599
0.0781107897331123
0.0854887142205706
0.0856460966329432
0.0909479903682461
0.0802353142088619
0.0889660121345752
0.0844230109997649
0.0890171209331641
0.0839576157137207
0.0832033306838267
0.0836041189139497
0.0863979421240027
0.0828104932110769
0.0822229448143762
0.0792345262313729
0.082652269379455
0.0808481983606943
0.0801242978943251
0.0780210305981199
0.0781452370947909
0.0747708538875312
0.0762630162498263
0.0775553229594135
0.0791089389276387
0.0728579728880629
0.0766491449845049
0.0760367976133893
0.0770275517082874
0.0730263824153189
0.0748449640706161
0.0744187375514462
0.0786009181930278
0.0722152601407292
0.0748988749623294
0.0711092040124948
0.0775110455573487
0.0685337069163919
0.0748642878688746
0.0684083546081408
0.0713998656903117
0.0667250044275495
0.0733075922849468
0.068390981886295
0.0762087416214553
0.0671096931800454
0.0723410946311404
0.0695744025198919
0.072510041923262
0.0619787058577206
0.0678435666277354
0.0689679698322447
0.0767619660473599
0.0653682606413104
0.067662812467893
0.0679574927604173
0.0675403701558849
0.0669096853096271
0.0659072542889007
0.0647032554974218
0.0659064191751181
0.0659963853046726
0.0739069204857873
0.0700996744328223
0.0686570945801059
0.0711876424295287
0.0703613051848077
0.062474152535987
0.0670623176534342
0.0686282107731856
0.0719592941963136
0.0670442394088972
0.0707291780461257
0.0653845316587124
0.0676295122158476
0.0686333576831669
0.0736867070522032
0.0716775955824439
0.072249350930772
0.0739101795960947
0.0748830898497303
0.0706769023446812
0.0671380076321999
0.0727845216368749
0.074068342282916
0.072892100218475
0.0726988885014899
0.0707626157561942
0.0727028563833373
0.0706087803008406
0.0772797237867437
0.0695299890363258
0.0783894463976586
0.0746773927744709
0.0737972938988353
0.0792639147821426
0.0740609056681626
0.079976642371466
0.0808522662450581
0.0813619555126303
0.0775503296942564
0.079780244860072
0.0848596562404311
0.077572866572641
0.0784563068740219
0.0797925729714506
0.087811663611437
0.0836623626880112
0.0865347006451637
0.0822918046468247
0.0872900171792687
0.0796500856368543
0.0826723509507201
0.0862608721819841
0.088643126423599
0.0887595278147195
0.0937692698397481
0.0932522351305954
0.091070511202466
0.0936047032045527
0.0978580305391683
0.089392118592429
0.0943537131889224
0.0924156991622666
0.0991310973394578
0.0933565064268868
0.0954505434062625
0.101319087665802
0.105341345051925
0.0943225004661071
0.102728226379896
0.099083333716054
0.101535251436626
0.0944441603163839
0.105605189457167
0.101392358725196
0.104387411830615
0.100571317670055
0.101706097202248
0.0984825025334546
0.103538216709487
0.0972598750018502
0.100263807766416
0.0935897542356217
0.0999550764742798
0.0942020610215403
0.0985481638700674
0.0984525509867367
0.0956590863484305
0.0958930433103576
0.099009582534992
0.0970360561625583
0.0957741080341631
0.0942604430806773
0.0998600905128313
0.0952595063761964
0.0999098761841692
0.0967329837901448
0.0981636533093394
0.0949914880044208
0.102244548310797
0.0909527269122452
0.0974558391785759
0.0927069743747126
0.0941440592171485
0.0958312207120043
0.0980320320955986
0.09279518726465
0.0947422335367788
0.0909457160498334
0.099309462291685
0.0880326623400771
0.100227406770882
0.0934992442144195
0.0981046691211988
0.0950930945798953
0.0978373812088723
0.0958710705548973
0.100746234197997
0.0900378701299525
0.0970091049612515
0.0965014726373729
0.0967765609397506
0.096002614538354
0.101004615311165
0.0955852114035898
0.094723396707014
0.0908245174547627
0.0946605712725657
0.0915890388848938
0.0953339212327007
0.0898012088359585
0.0931228628038887
0.0888989955179711
0.0911359938190733
0.0928224727652742
0.0919185143660025
0.0855705581432065
0.0904650827236739
0.0862451350374866
0.0863120498051564
0.0813900176954815
0.0868987835879097
0.083237060558518
0.0848544440139824
0.0848857289475147
0.0826431813689771
0.0770452954303244
0.0808276636092321
0.0790700787532425
0.0787910047060398
0.0768374498537913
0.0796555242049558
0.0692925501761226
0.0744586452324811
0.0713070030314924
0.0766754314126272
0.0738042154259842
0.0723990363125647
0.0642988257936524
0.0731822852544543
0.0653522440877749
0.0735517914023826
0.0655322108890567
0.0667024720071171
0.0618484794476019
0.0722673202623045
0.0648960935968782
0.06771487196378
0.0636915597578434
0.0668532348798215
0.0576346981943179
0.0666351770254743
0.0618032676462526
0.0624952163488604
0.0633056203205538
0.0673029790954432
0.0623813862606956
0.0606692471119237
0.0615802428326321
0.0656432893289151
0.0626815417863106
0.0605191568143842
0.0561725890970131
0.063466600907717
0.0589265505445907
0.0602531599875941
0.0548451366960185
0.0588696729738764
0.0546864083770173
0.0598934542982771
0.0558086385745783
0.0573523269555246
0.0553818141652286
0.0548376566646589
0.0534520035839493
0.0574328725146988
0.054066634646028
0.0548361190428656
0.0571502548198309
0.0565884499501181
0.0517500270816878
0.051353325570859
0.0513731860508886
0.0583918687875488
0.0499369024229831
0.054873778626189
0.0526899497722257
0.05608273038326
0.0502674787119087
0.0536252995888151
0.0505191908237954
0.053820310146581
0.0501655440910722
0.0480877594837044
0.0468463810834294
0.0506128075994112
0.0506802831941719
0.0511788816310666
0.0480777275974728
0.0465909331132827
0.0467952145720409
0.0499967739410657
0.0468192761909647
0.0518681942918412
0.0491185008734807
0.0510765938929339
0.0455653122622545
0.0478018534482414
0.041277555492634
0.0519021284027167
0.04882761679542
0.05070886193249
0.0430657954847199
0.0499732030581631
0.0480738345477352
0.0496802198759604
0.0410643120686182
0.0496630545791062
0.0451768441281201
0.0518198837894481
0.0439110110756702
0.0468422177949525
0.0429154839641227
0.0483996578543455
0.0446160511727249
0.0519607748417019
0.0441495834414077
0.0480579432212019
0.0461257910338531
0.0499849732281092
0.0433631957352552
0.049865877829248
0.0432621923073329
0.0483956474108153
0.0494567314725176
0.0475490844703629
0.0447789693927317
0.0405478892420283
0.0465798311269188
0.0442624977082066
0.0384544722399227
0.0443300246355865
0.0448663786810027
0.0478171307336127
0.0460418019297364
0.0453952869604644
0.0427884117569375
0.0441019677960223
0.0408025354174138
0.0417692350280974
0.0408379099346899
0.0422776400657547
0.0415333783426441
0.044475188407107
0.0425450538620027
0.0432130095413502
0.0384365096129455
0.0427173786724892
0.038552198440986
0.0458691872051612
0.0408585303551202
0.0423411076695637
0.0401077029483463
0.0430802374673013
0.0380300812161123
0.0443816130944548
0.0438560667308933
0.0438435769988888
0.0386183265016645
0.0418150021124911
0.0422049007235594
0.0434405747807992
0.0394698183588492
0.041594635394033
0.0377927206542538
0.0424038743824199
0.0443314391084573
0.0453055058082801
0.0409919804228752
0.0461368592265423
0.0447001200073308
0.0435252732007232
0.0399563849556794
0.042628017157094
0.0386538215656868
0.0463756004368569
0.0432196492054119
0.0434055661006336
0.0392881765646518
0.0437599833082709
0.038397665502537
0.0402973110987674
0.0369275115328875
0.0434762083831025
0.039166293044523
0.0406819358463271
0.0413603916991146
0.0415703877266583
0.0411432522568735
0.0419114562046408
0.0401560245972411
0.044787673840379
0.0404636283151356
0.0387303983072002
0.0364038134794276
0.037061770399677
0.0373488958484933
0.0406823778936386
0.0362434542686927
0.0368398369687781
0.0331079019509345
0.0378656735950894
0.0343465565098257
0.0357241256162129
0.034720518244006
0.038435066552475
0.0335617006099353
0.0366360473907224
0.0377202033770255
0.0371005293964884
0.0347652220098247
0.0366877498295297
0.034206037462325
0.0370808614828417
0.0347999227406712
0.0362395105681553
0.0324187650691949
0.0380584004246718
0.034233346291921
0.0377150600424906
0.0316484180749903
0.0336306512273798
0.0349025148960534
0.0356663297765792
0.0359623179536767
0.0385969376123315
0.0346985986412899
0.0353255748857218
0.0333748544901665
0.0360614273147821
0.0340195648321903
0.0386172943953933
0.0350538849181645
0.0381899743758539
0.0354917655546918
0.0336274172049463
0.0343493991182758
0.0387523253963271
0.0292965524054443
0.0363064172641802
0.0360650533972807
0.0346871235643564
0.0305024320131625
0.0342894700873171
0.0319983985758548
0.0350950220307941
0.0287733254071457
0.0310255868459466
0.0301279909363557
0.0321705304393358
0.0319156273492624
0.0321281877538976
0.0319850633593148
0.0349693361734426
0.0335152714964388
0.0348688258006328
0.0296014085364139
0.0294915450072372
0.0286112017861118
0.0309098761255439
0.0291831942900187
0.030548518764991
0.0302803159013285
0.0304032587143104
0.0267137295919553
0.0297432984069927
0.0276746944215748
0.0318725158037117
0.0245283876739984
0.0268234026509419
0.0264288564869138
0.028398096918691
0.0265964263400704
0.0284495227227828
0.026494157184342
0.0317435812581308
0.0280530379315318
0.0305030832708621
0.026225864743734
0.0282694818895098
0.0241228923571773
0.031907032951909
0.0307232241041273
0.0281813736261794
0.0270894632782792
0.0334895184645487
0.0268226571956294
0.0297546367274323
0.028536987203838
0.0316884370107659
0.027240836151874
0.02990158057803
0.0257139120190216
0.0261548015214483
0.0280570045974445
0.0306810073543686
0.0239958078839829
0.0285715198920635
0.0261870254504949
0.0312421292048816
0.0276076156920919
0.0291707958192608
0.0253526350270919
0.0268619957408176
0.0258746378015698
0.0276130516859914
0.0280469082840943
0.0275202316206134
0.0265900696350064
0.0284985724958721
0.0254109136456637
0.0260076133023648
0.0233778175572263
0.0281884411966293
0.0231675674427282
0.0253496202082797
0.025930607481181
0.0284031054900017
0.0232916454011737
0.0262227931547372
0.0228954513709023
0.0250999548789163
0.0217791696118695
0.0245118594086863
0.0237730304322899
0.0253912505189042
0.0212306870682527
0.0252482590412559
0.0222796902242829
0.0257763797108001
0.0237363602288457
0.0256702967976012
0.0221782962138551
0.0236355051842828
0.0206614405881069
0.0270182901738783
0.0234898916696777
0.0254325429772744
0.0211098520569954
0.0258754693910649
0.0230912392536777
0.0291706172911076
0.021069753589714
0.0259145959324892
0.0252438421624731
0.0234579777624054
0.0236850637504086
0.0290773912622429
0.0217197061029798
0.0234163725691943
0.0223427224675733
0.0251774243751514
0.0232349491664283
0.0271671654988315
0.0239365806633037
0.0250081709593964
0.024499425242246
0.0249297735694101
0.0239550223344738
0.0265482747674058
0.0240692669444951
0.0261278558911315
0.0223009909721256
0.0247757105812869
0.0210608305649599
0.0253853534174764
0.0233423424115694
0.0269458855333408
0.0227987716760584
0.0265668331112935
0.0208372626391644
0.0206664816916581
0.0195897485729531
0.0247623222761209
0.0240264281746138
0.0255161905925297
0.0218603916641754
0.0212711433296918
0.0197130939375311
0.0243273822779704
0.0215783721981337
0.0221038617795875
0.0202440888421891
0.0230054821433574
0.0204942563141007
0.0224338731305091
0.0201328872268824
0.0229222139841352
0.0213426294196958
0.0235720662539921
0.0192139476615074
0.0200360669368371
0.0211474496627545
0.0228981080332737
0.0194673739488615
0.0234732377652099
0.0181685044927581
0.0242477918857405
0.0194424590077915
0.0218393025026844
0.0205145493813604
0.0224785663426957
0.0225129254513611
0.0217149690182067
0.0199623327546241
0.0238185245314813
0.0214844192537941
0.0219286667952411
0.0187184501863668
0.0259268457148008
0.0228175943367252
0.0233514284911872
0.0208549625108436
0.0218878948193908
0.019823757194026
0.023297835673946
0.0193693177547123
0.0239002673173299
0.020085791277369
0.022956192283178
0.0205518165461744
0.0238236200801865
0.0165034069232274
0.0236634149376201
0.0192393976989454
0.0230213109050433
0.020293945313195
0.0233849631111417
0.0212042898496891
0.0236505792657217
0.0210365172534756
0.0202686608986838
0.0189433976334225
0.0228286678319094
0.0178771306319882
0.0187399011120068
0.0162583366252609
0.0221895303556341
0.0174010198019767
0.0203736176172963
0.0168874026599895
0.0228494417572595
0.0151775523139676
0.0180515972510636
0.0158460969620575
0.0225601745005831
0.0176928463455355
0.0227143216951318
0.0198043763026683
0.0201101678493666
0.0173253707453735
0.0203541386969419
0.0187779670725569
0.0207316134553108
0.0178461486748975
0.0211868688109144
0.0174597186534499
0.0191407246565989
0.0186079418147394
0.0193129478495794
0.0157494344111306
0.0215131577514667
0.0173415595458109
0.0193912320897473
0.0164619066200856
0.0215762004566367
0.0167565793447746
0.0217465983222709
0.0167901218048998
0.0219027664396354
0.0149698829510282
0.0180514991772423
0.0166229310201548
0.0212756512810059
0.0158442823494183
0.0216550682958647
0.0193037292268129
0.0213439260519656
0.0184462310240051
0.0213333285170165
0.0158745019837192
0.0210287945879933
0.0178236829545163
0.0185447951523801
0.0171912787276681
0.0213969423325051
0.015653641563484
0.0186508344013466
0.0182768844558785
0.0197740666215633
0.0175395843544024
0.0202213688036498
0.0158363122593065
0.0186804934627412
0.014034297824985
0.0170913539215568
0.0131089060850284
0.0192542678653042
0.0152833147050801
0.0197467518313357
0.0168207848164448
0.0169968705868397
0.0123898250667231
0.0181167992265941
0.0134278878673756
0.0198767406465732
0.014206005299954
0.0189207589878025
0.0148090112110252
0.019759447192433
0.0135774159768276
0.0179030256037387
0.0140821098421028
0.0189984408347951
0.0134667100111605
0.0164153995484459
0.0136880843975517
0.019469761929459
0.0148063818533927
0.0202690419673245
0.0144721583734629
0.0155135296256705
0.0129506725140744
0.0194265454958429
0.0143050300245724
0.0185543113762492
0.015098960195628
0.0176361466070351
0.0116766189638938
0.0195705306951258
0.0149160316046953
0.0214213004764822
0.0144016544066524
0.0181235607191114
0.0105287190823111
0.018991730634678
0.01203125051566
0.0197319430387693
0.0123322388376004
0.0185009866693054
0.011122569546613
0.0137874372098595
0.00430350829099229
0.00989247491311436
0.00245696608295688
0.0136068465213692
0.00964375263498216
0.0173804442815508
-0.00296543539891648
0.0104606501497298
0.00520716601210737
0.011848789788818
-0.00048330803100132
0.0198215463143302
0.000512646274919838
0.0105582537178028
0.00504990033909987
0.0152129082389531
-0.00382952303677992
0.0145862265349241
0.00334001671358057
0.0207520904930694
0.00222919723749529
0.0255117714357904
0.0112224033165354
0.0245089373023829
0.00210963279261404
0.024504250586127
-0.000790025923006062
0.0195622311935874
-0.00291530761371388
0.0221278964341219
-0.0048672046381702
0.021941627753184
-0.00390275554837611
0.0226408395742212
-0.00390493820880208
0.0252354849433951
-0.00520560381605517
0.023303480431817
-0.00952527299178174
0.0236380800205958
-0.00822301400286439
0.0261167657040849
0.000960842547689221
0.0283664674339262
-0.00348019689713017
0.020350567797096
-0.0032790579852856
0.0225820691581116
0.00708295337706744
0.0168558379213562
0.00999519830520276
0.0130368023568666
0.021971202617709
0.00458677946025551
0.0274213428940569
-0.00483243373850575
0.042441887798838
-0.0147648869095981
0.0449596005772646
-0.0104118161137819
0.0457188051972745
-0.0116787744181196
0.0436574068932977
-0.00563431009992324
0.0322740271237859
0.00234255422220015
0.0225482294302795
0.0124992887611966
0.0154453130847149
0.0150235894610892
0.0116071345041389
0.0166772632440502
0.0153770642985445
0.0146794999113584
0.0200937863849994
0.0111960740454402
0.0201172683558701
0.00627561259452326
0.0188963066185136
0.008082045140084
0.0158542497924792
0.0121903313394213
0.0143544326738523
0.0115975356774854
0.0158394926939262
0.0119404601447288
0.0161011050721483
0.0111806615103093
0.0165086828620073
0.00942431869175139
0.0159170316164213
0.0107344298716526
0.0158023187337224
0.011280410222331
0.0138236528684574
0.00978290424513551
0.0139440413336604
0.0129248822792223
0.0176166980327146
0.0135464543915232
0.0158589288562258
0.0108994381572152
0.0124601521835308
0.010569766819769
0.0126930019599739
0.0103502346368144
0.0163020628527622
0.0140134094606987
0.0168763527919922
0.0107864987047639
0.0137844083531283
0.0126753708245336
0.0148101348513372
0.0131899932720165
0.0155016176153838
0.0139490276077234
0.0155739812550179
0.0137371279030547
0.0137549473456214
0.0122187873781982
0.0138029341580528
0.0113409382471944
0.017526590194036
0.0116750445385432
0.0180178357648833
0.0165353557703001
0.0146723870238816
0.0119359428975233
0.0152255329391085
0.0117054785083942
0.011268891052144
0.0115820676353574
0.0149159884971349
0.0114740323758561
0.0149999106161583
0.0130452847733082
0.0132464158741656
0.0116514676928537
0.0116180743242209
0.0130991039990789
0.0131816105444943
0.0140655350197683
0.0146468306800579
0.0121216501248794
0.0134753659081537
0.0129196549628919
0.014459853089951
0.0127814846424953
0.0137614914426909
0.0110384525281819
0.0147879404573133
0.0115297693469745
0.0128162440046696
0.0113226544382558
0.0121541247290088
0.0116937758710379
0.0131750975913598
0.0114336132393771
0.0123627644700523
0.0124690701637074
0.0161448144424807
0.0124979853487632
0.0125785606716254
0.0109500528861339
0.013040022062953
0.0125450400112329
0.0157032740044554
0.0112475757356102
0.0137611723017969
0.0149694964582304
0.0144685894191016
0.012884157453576
0.0145423373437943
0.0133141951829951
0.0135528685164626
0.0131116808155341
0.0143175656970075
0.0140639677458388
0.0158239652492691
0.0143845948881376
0.0147885513501811
0.0127837866335385
0.0132536993094137
0.0137892907892776
0.0137288315143387
0.0124964941742367
0.014020768276671
0.0130636524799984
0.013869794537312
0.0125798664869685
0.0142722758848594
0.0129696634634158
0.0133762782986172
0.0130648631494235
0.014586104409336
0.012035162045906
0.0148387576261753
0.0136869763887295
0.0108222458496158
0.0125129840017755
0.0137134651994523
0.0112837812922889
0.0129715940135334
0.0112541737195832
0.0132613928934012
0.0163103059339474
0.0134163925454638
0.0119512988185487
0.0133474215930926
0.0118355509700527
0.0116110042373377
0.0130351536282995
0.012706998141803
0.0142777845967562
0.0134844981071053
0.0124131023798282
0.0105704224868963
0.0116064017632726
0.0152252299633968
0.0134835869368959
0.0135361283597133
0.0133563483590934
0.0154766808963581
0.0140307953456115
0.013455482769976
0.0155545356320958
0.0133236862549213
0.0114885861929915
0.0121791256837585
0.0149736499353344
0.012539806749894
0.0114996559748183
0.0156007503249028
0.01218054476635
0.0130056839527315
0.0136376820061784
0.012190647008249
0.012539438964624
0.013306038895751
0.01342149870551
0.014646577743812
0.0135959955946365
0.0145802090860559
0.0156120612349163
0.0140485654920726
0.0122382498428012
0.0129448237764036
0.0126439261305621
0.0110913791576923
0.0126981654424383
0.012777286970057
0.0120323494498744
0.0131425676879171
0.0142835115837652
0.0132237527000827
0.0126380348388431
0.0127858565545011
0.0135595792416669
0.0113987658930915
0.0117061561369193
0.0110097703745068
0.0125348951359806
0.012881885313165
0.0116364418046208
0.0128808321560992
0.0122302985679343
0.0123147967618556
0.0115474982365627
0.0119636070605398
0.0124509461059938
0.0106613628376788
0.0123441312029321
0.0120880565042759
0.0131671875050817
0.0101707622816048
0.00817846981117345
0.012997303711696
0.0132245229644275
0.0113529965750788
0.0119825554478912
0.0124947923840276
0.0120639824746458
0.0122357394873425
0.0128117383596875
0.0118856299510576
0.0100345630640386
0.0131435525486108
0.0137304313207985
0.0109838743308302
0.0122570261730058
0.0130500514999948
0.0125457331248665
0.0112574848887752
0.0121247938307904
0.0119644479146761
0.0119549722636896
0.0124981775814563
0.0130838827758136
0.0138068867469954
0.013380558729284
0.0114010460786245
0.0128850523047026
0.013371773709739
0.0116925653340427
0.0124381622537209
0.0116246640546698
0.0106372377014815
0.0116927755058855
0.0126957527254991
0.0112990703201036
0.0107601539310698
0.0117325019839689
0.0107290803458598
0.0107282528497131
0.0132442038205974
0.0105895083317141
0.0114226326151735
0.0136661545623209
0.00953327160516628
0.0131255434015039
0.0127094172338823
0.0110890344369624
0.0121909938127472
0.0117632717860639
0.0103751397580385
0.0105865370269146
0.0116170414332853
0.0117689494788243
0.010622756769144
0.013169595848268
0.0126352289583549
0.0121222041655558
0.0117349242809991
0.0133433861568006
0.0104828274677768
0.00948562142711886
0.0101694599363648
0.0115623148292544
0.0120934001821734
0.0127441596455701
0.0118573143720817
0.0131977115417202
0.012934368024873
0.0106764079601453
0.00920753421083283
0.0103666491756548
0.00983404752454613
0.0100275346926452
0.0114083631922828
0.0114421195290916
0.0106974381717755
0.0114554076227935
0.0120381772417296
0.0121888590323852
0.0110114947554652
0.011203699801309
0.0115252728061911
0.0105228958084452
0.00962874583425329
0.0132224714159218
0.0123131328949195
0.0114115364931386
0.0105368671098028
0.0116100398971024
0.0122525701217482
0.0125243344460995
0.0108396574856804
0.0114770310303036
0.0116992849545872
0.0103324145776806
0.0097947798583187
0.0109375285828361
0.0109111432619568
0.0101239469722303
0.0104950120302668
0.00892490001699419
0.011127415121987
0.010037654231285
0.0149460457033821
0.0114360393382606
0.0135804428782986
0.0129106249723463
0.0104952677011726
0.0100200271324058
0.00829504290446132
0.0126112990708513
0.00929511272196314
0.0086688941870152
0.00900917809330439
0.0100897044775547
0.0110682408917231
0.0106167666569604
0.0110433456515743
0.00890288692459179
0.00867938898090677
0.0104650031160095
0.0084875232565615
0.00999693809815387
0.00815889596805329
0.0103373952913457
0.00955780257207562
0.00779292606501754
0.0106868420277156
0.0114898305227846
0.00949768948063496
0.0076229447667152
0.0102604099608608
0.0191685017230393
0.0104171715746567
0.0127766135961082
0.0125575098373169
0.0135680516442871
0.0113354208663878
0.0122986824819989
0.0096604770408845
0.00997440034403422
0.0110808812101064
0.0124168695868574
0.010517227056619
0.00942857410918961
0.0102147578774411
0.0114290338546414
0.0114212026754073
0.0120071186642693
0.00935018151876982
0.00910702806491897
0.00831350351506887
0.0101457261370773
0.0102691997348109
0.0100225215125182
0.00823186528843659
0.0110366852810599
0.00805113100197179
0.0138085388332579
0.0132609389542432
0.0118856444566148
0.0108576083150466
0.00858546089314619
0.00881071115829973
0.0107719823071185
0.0116220045931205
0.00760984915527431
0.0101637814300987
0.0106980288783569
0.00808470267732337
0.00977977474038416
0.00884129632101116
0.0102721713806182
0.0104164153152171
0.00847819993750248
0.00989189399614816
0.0113254974385795
0.00884355985990728
0.00791323675693358
0.00876880813996604
0.0101906000679032
0.0105015475551456
0.0113173347254573
0.0108038106898073
0.0118649378310224
0.0262129379136374
0.0115413588693861
0.00929530323121471
0.00889886140852047
0.0085962425553012
0.00833426196082813
0.00966787284473547
0.010149795745988
0.00968110205384058
0.00824232809996908
0.0093936562108032
0.00940827075759011
0.0108306521143956
0.01025802248344
0.00852149638559146
0.00943477835495504
0.00961198108150221
0.00862070628048473
0.00979050560743141
0.0084974653399799
0.0111309444878851
0.0181160680422807
0.0132067896231265
0.0102958496579687
0.0123116291260178
0.00298450338034302
0.0256502042405136
0.0207930892423495
0.00779960267801655
0.0135645980066626
0.0071417930313874
0.00812405202276864
0.00844663621211101
0.01047890066364
0.0067043862477616
0.0157716715736394
0.00887183367881112
0.0140812803146883
0.0074308618881545
0.00963292473161001
0.00989384851202923
0.00973624488300393
0.00783268768512133
0.00979672254586042
0.00880033605524901
0.00891868179860222
0.00668576800858283
0.0089879175182576
0.0103594829810996
0.00863269713972037
0.00857446429552302
0.0156522638800041
0.00852790039123523
0.00881476491639304
0.00824457976996378
0.00894473587986244
0.0114072527529808
0.0265834648935323
0.00757525005732429
0.0120690434198821
0.00852167592724618
0.00816861017183324
0.00953469110442152
0.00977556240111995
0.00875353144191758
0.00926186487215613
0.00861306837050003
0.0117435814209217
0.0087153358943612
0.00677357708134433
0.0070046538080404
0.00877330558878358
0.00662297293280559
0.00711810577785044
0.0101117215310413
0.00708665918958364
0.008000957451342
0.00858470941063001
0.0226451637533818
0.0277677604553507
0.0151957353742531
0.0200975755795769
0.011078236366341
0.0119534743455959
0.00721388657481934
0.011836804434693
0.00621993709520158
0.0118879143923867
0.00860108573120842
0.00968527665397798
0.0103383200397571
0.0126317125317417
0.00674332620191047
0.0104734592704705
0.00708274919033182
0.0107171921094112
0.00675916092482372
0.0111815738696253
0.00778914140525717
0.0112649464783111
0.00422571398062107
0.0109442591219382
0.0126574334819401
0.0130979018276873
0.00115933944202044
0.0225737684546103
0.0348469872090128
0.0117824275879709
0.0162530129323366
0.00722738854946989
0.0101271745880669
0.00654674240527452
0.00951235543314162
0.0144256668258626
0.0113608843593188
0.00811167250743417
0.00943792283386377
0.0106160276034676
0.0105572653986616
0.00583563182316379
0.0163979751373372
0.0349540673173628
0.0174042439777098
0.0135520604729712
0.00658196970745061
0.00983240075772601
0.0352969190127074
0.0123374789991658
0.00944603699662142
0.0122223619335892
0.0094693372075521
0.00962441369065115
0.007678303775348
0.010151247029413
0.0153701341460731
0.0136569712078714
0.00736266720305579
0.0115402869859724
0.00716511016101846
0.0106895124871687
0.0101338283437359
0.0162308083181686
0.0191972925436111
0.0100410661738713
0.0128542743263065
0.0144762913288295
0.0075150818576703
0.0111024430915503
0.010237179492641
0.00881459883899257
0.0113025429279001
0.0209232501295673
0.0119829217644902
0.0194900282739719
0.0223155420785012
0.00894245621077239
0.0102946912771287
0.0167791512615888
0.0183848955382656
0.00746535814933065
0.00743736207266243
0.0353848062917556
0.0181485001465022
0.0291734251153405
0.0109738132896169
0.011184828634979
0.00875295317451106
0.00984397588502839
0.00262494518501503
0.0201195434622852
0.0135285796599339
0.00767571448356378
0.00819975735133095
0.0131018591832559
0.0220813553075675
0.0121475857680672
0.0116338976699183
0.00959094017142338
0.00744233135247985
0.0197919195074746
0.0188654206109595
0.000542556537382619
0.0314254633331513
0.030048499925382
0.0271128018842628
0.0207174532951128
0.00521701014145308
0.035143705586124
0.0181183554565428
0.0120263667455352
0.0110414776294296
0.0103892185491509
0.00697072859037957
0.00564285666982424
0.0413481398566083
0.0205220369635928
0.00969190829663163
0.015895019599518
0.00755842431172817
0.0320291816390268
0.0252322598398459
0.0119593899920431
0.0127678862315308
0.015682247489892
0.00135737427866658
0.031889898624877
0.034032880124451
0.0139088375388148
0.0345241286496096
0.0231902738324974
0.0283815249879113
0.018449493557604
0.0136866933559517
0.0209852453916292
0.0303179226365
0.0168805808087091
0.00699498714437915
0.0181742156413287
0.035395609037828
0.0127547413073279
0.0168948560009046
0.0136427257682847
0.00436440244725492
0.0306908706243722
0.0653108775295906
0.0394247291737288
0.0207115276149055
0.017733929474823
0.0347096460833425
0.0220694147275096
0.0127493195140475
0.0156934775702635
0.0139981916676135
0.0147136825677036
0.0134731432330155
0.0219578896345276
0.0181405901479136
0.0177449849915489
0.0146771870840318
0.00949599255333603
0.0324810730929293
0.0587211322745005
0.0509971768537771
0.024433396404035
0.0343298402491816
0.0369889039167369
0.024648000058304
0.0201577624620974
0.0162292284054707
0.0231083566507945
0.023920682209517
0.0190638911954573
0.0164281511269704
0.033084525435134
0.0301361023286081
0.0323506551429037
0.0426292063238565
0.0241390475304002
0.0184234262929499
0.0136075038176975
0.123818752359478
0.0565546735473589
0.0333334940334806
0.0294848749205157
0.0253923544600506
0.0871539621545366
0.0428380711290907
0.0256892600542955
0.0293440498889407
0.0259952109027818
0.0285657611088142
0.0334854772091524
0.0385701046967571
0.0442721169846813
0.0329221053939905
0.0220323296788738
0.0294124431219773
0.0911912718034144
0.0836966167540429
0.0584927004612559
0.0419117600656577
0.0547087330937461
0.0554120902427396
0.0415344672776859
0.0414065722659401
0.0356422283906055
0.0412752955218864
0.085826445210095
0.0539141671096773
0.044610825963971
0.048053229268716
0.0584119679993284
0.0430577349784025
0.0711875270143812
0.0803797451706324
0.0553296659852554
0.052640637078419
0.0500996428563962
0.0502068265535009
0.0464664364818797
0.073942811839287
0.0721159835419461
0.0582414094726305
0.0579803544306381
0.0586346554828061
0.056490569655175
0.0587500410763036
0.0581689180407113
0.0541216793441963
0.0692612369809393
0.0840984039820849
0.167079900187724
0.0986329750063225
0.0689242838389328
0.0652996504016754
0.0599298926217506
0.0837518100034779
0.0757027485454601
0.0885727110980307
0.0893548589791949
0.0603359681003592
0.0621635345268665
0.063493849097932
0.057608789795503
0.0588622932860135
0.0593856537600979
0.0569105690871503
0.0739276985922822
0.0580088903215585
0.0746597822672737
0.122349167403863
0.0750604955922905
0.0578231011003537
0.0581752023970439
0.0565890186602286
0.0579713379335253
0.05275239243938
0.0566559587767845
0.0686771492883657
0.0582136255921806
0.053349218443134
0.0530105409812304
0.0677293210664888
0.0739141702944023
0.0554974894914876
0.0574726005544564
0.0554578984778351
0.0590068009573739
0.0477655656559452
0.0500619468886364
0.0896346251265727
0.0662455690241129
0.053629903475192
0.0562813552496642
0.0534071681456765
0.0594333589512671
0.0523434438873822
0.0554716050129372
0.0545242079751574
0.0534366878010979
0.0555787982699162
0.0531839194757084
0.0501988335718259
0.0528926110559007
0.0561562576196134
0.053968853753804
0.0546202379588227
0.056940944615762
0.0518130423299301
0.0502505531069568
0.0517889076002915
0.0534589868558285
0.0518039072126518
0.0586937611571392
0.0545060808242709
0.0493315932744925
0.0529209530796997
0.0561917029067607
0.0541165628012587
0.053344581552244
0.0527078963266763
0.0509514422211175
0.0481477750097724
0.0495577246909475
0.0510165788596844
0.0505037666013707
0.0503355602685166
0.0512261277094419
0.0503532400205155
0.0491107106736623
0.0512533279996265
0.0517480790418209
0.0418332768805662
0.0756759333110583
0.0788776390639211
0.0548614855236486
0.0473978471889209
0.0499806771185385
0.043109585943162
0.0394511347256862
0.0701041138569782
0.07446245519913
0.0454965504946311
0.0474968846555103
0.0422983666095927
0.0487626860542881
0.048033159044088
0.0433299432635413
0.0414174485210574
0.0339871443452698
0.0562272454305892
0.0898337042187762
0.0881904832903654
0.114563003280749
0.0665357758790475
0.0363833142227855
0.0542030643172883
0.0671020420408268
0.0461623702538254
0.0360653426591875
0.0414167216256547
0.0550346720415387
0.0500702658146666
0.0383477047160567
0.0371356737032524
0.0303174893452951
0.0469400129126967
0.0648695598136985
0.0443793334451603
0.0546247645363275
0.0647487973342608
0.0453711744709426
0.0629504596125346
0.114563820415003
0.0678315186593322
0.0410144142488726
0.0391366959327211
0.0329489894672662
0.0485882114399001
0.0670139846362862
0.052218249200267
0.0476006371495384
0.0352600532871728
0.0300808582011967
0.0354698431245135
0.0531775736741208
0.0378004561591392
0.0433355534854277
0.0544574342048035
0.0466232245881792
0.0362440075525106
0.052139608906287
0.0616555143302193
0.0771908866926993
0.0479266472300389
0.028344199848189
0.0522499972202651
0.06332837367167
0.0466528772250155
0.0452756091771511
0.0327902828613173
0.0355964107524736
0.0487921088447193
0.0373589940107059
0.0394394473539182
0.0451678822341307
0.0534840260171967
0.0697069314892348
0.0855769416056427
0.0735089734157768
0.0455689568839048
0.0301084650545578
0.0293611263260801
0.0363460318353483
0.0294838658275971
0.0232671211979178
0.0371574636963587
0.0384163123198235
0.0353537234033117
0.0519781512935642
0.043810514197089
0.0321180042040943
0.0331009820382897
0.0273257248753013
0.0357863190524337
0.0583970049864709
0.0692171598259461
0.0443216331693104
0.0394948463097182
0.0442571609515242
0.0416208873866959
0.0345131422937415
0.0370746347505534
0.0318014514494399
0.0342821755553454
0.0418250338617913
0.0456464230405469
0.0367086572634068
0.040889210548062
0.0333414440975689
0.0659347505946847
0.0621218266729339
0.050733426866747
0.0492577847199967
0.0750500556973492
0.0718345752447142
0.0678603078095269
0.0498182966499872
0.0529434855493614
0.0524152450275972
0.0513976697525651
0.0466179250498685
0.0617280844058244
0.0719520004733637
0.0643876760466117
0.0534593291730077
0.0589974969483708
0.0507359956340452
0.0623677978723651
0.0707578682896687
0.0777557358340945
0.0881456340147162
0.0992952668838152
0.0831014568174183
0.0640958937080603
0.0633211791653029
0.063932300060355
0.0665243247167368
0.0623556026147043
0.0564031221245089
0.0663212447704167
0.076923824123853
0.0674486900235178
0.0613425254738978
0.0629503073411315
0.0595803592362271
0.0626561053226072
0.0644654574005065
0.0661806802489611
0.0630699150628842
0.069164711928402
0.0609525614594714
0.0732979901081354
0.109421343173284
0.0915411856159686
0.0671872215403398
0.0725916582928619
0.0768280176906335
0.0706618466101473
0.0697565757211666
0.0829534667926397
0.0860354119061377
0.0784365346957153
0.0740283318752916
0.0775739767346375
0.0716901140062051
0.0906842786111063
0.0874700804289908
0.0815390802409818
0.0739448761086829
0.0685514621563172
0.0945613682542441
0.107479284856643
0.0986698079698047
0.0877697006326038
0.0924618984025587
0.0772524654524371
0.0828061325680316
0.0774027972987752
0.0835094628966109
0.0830885077482076
0.0849755794703651
0.0797746253726561
0.0789617153427358
0.0816527719771473
0.0746114087254448
0.0811248295814405
0.0908887579042125
0.0842450902908352
0.0762530993433395
0.0799409068982512
0.0768301855303081
0.07749274547547
0.0892329888421842
0.0883515954106404
0.0861482542030783
0.0789570055793807
0.0843154988349328
0.0958918241022583
0.0910923434776016
0.0765325036999646
0.0752627308102033
0.0740584087681742
0.0769664017161947
0.0729585388024345
0.0784174992955725
0.0850613986809378
0.089700582802739
0.074704426850982
0.0808307027877294
0.0751544282430578
0.0797736057509127
0.0776346461134206
0.0820421263556749
0.0783606743803147
0.0874921696539366
0.0842593157895882
0.0794653247641691
0.0813723334602137
0.0882898943576791
0.0892106474339945
0.0922011779949065
0.0810032246488348
0.0800332416427071
0.0757264776862211
0.078559385388531
0.0824098742777286
0.0812624433509808
0.0707812110057457
0.0798166212602791
0.0688058978787358
0.0829563692807463
0.0874741626004645
0.0846067201595779
0.0774956389977938
0.0759354782765153
0.067749979913934
0.0701420090124908
0.0702659189657653
0.0674787266661372
0.0671861958295054
0.0671477669488195
0.0654363561129376
0.063287207604846
0.0642990785193623
0.0651355778549685
0.0630446958695609
0.0663044710729552
0.0656978679260544
0.065872517143554
0.0622577675289805
0.0646249869901424
0.0628764476384379
0.0658756400959633
0.0623819106647068
0.0643141464706838
0.0683372008937338
0.072939112294554
0.0712590323413015
0.0664788860067042
0.0696387796673973
0.0643905220808045
0.0633474752952671
0.0613016634891794
0.0666909061375557
0.0606864150037929
0.0630316383340638
0.0622901157126205
0.062093187830489
0.0600903874713676
0.0615086183391648
0.064244205462693
0.0624939416409842
0.0602430418557311
0.0641953439764908
0.06308388276499
0.0632283743436002
0.0630437376612915
0.0645009294330252
0.0684759290788506
0.0646124440557751
0.0677542528627357
0.0638112234411303
0.0633155683764841
0.0653854769880638
0.0682793484776535
0.0686029335188507
0.065197336153843
0.0620991894709373
0.0622295708039771
0.0613236852208321
0.063078761172931
0.0614448277196772
0.0611366865388436
0.0629321707852688
0.0622217268619829
0.0618930324121207
0.0604869306707478
0.0586023622154262
0.0613581906737484
0.0600662600751764
0.0562718829759435
0.0566041990567101
0.0590539146459014
0.056502920138284
0.0558873899838204
0.0575709977528526
0.0555264064628487
0.0525958082457522
0.0526952470892196
0.0519115242079285
0.0535556225467909
0.0526506057994302
0.0529672383789029
0.0525998893485089
0.0538589068522695
0.0511752734909377
0.051959197873331
0.0515679841801683
0.0512365609223223
0.0512502475703273
0.0525349095501044
0.0513161792200314
0.0537093890376413
0.0517183792311961
0.0520967971376589
0.0519527245904026
0.0543937776105107
0.0507588272543101
0.0541715871894097
0.0546405336208739
0.0547496021972669
0.0538185620309509
0.0563545427178386
0.0543437340303012
0.0544721289094897
0.0562794632163875
0.0589921288358175
0.0578548975409153
0.0585029084491488
0.0565597404597737
0.0584591705166558
0.0600307712514549
0.0583000019302534
0.0583186952709263
0.0554524612212268
0.0549527816042783
0.0576226526106595
0.0571716385047925
0.0561984998951404
0.0592683366328095
0.0585823917663897
0.0553742625290195
0.0560759843333648
0.0558461266032177
0.0569153340944065
0.0566014715317752
0.0555376032401459
0.054983420044993
0.0552065518633383
0.0543063740073918
0.0550978481416706
0.0559380108470995
0.0562314090116439
0.0543905357395248
0.0529348323783249
0.0539105604795238
0.0548371404231564
0.0530313923654243
0.0531585929069847
0.0536612880321527
0.0527027693548211
0.0526249582030308
0.0530334205628913
0.0513663278522623
0.0518513617171285
0.0527993309796987
0.0536924682255604
0.051897740056361
0.0527438449113905
0.0525595142262967
0.0508865519712402
0.0487849041722377
0.0518307656962992
0.0509754406657916
0.0501029366216081
0.0515546617815086
0.0506936872320396
0.0503902563661648
0.0500481435082884
0.0498001499739133
0.0506057652169062
0.0488673452036136
0.0487386039875075
0.0497642123840286
0.047924974823158
0.0468302796696638
0.0477868534218757
0.0468533201446858
0.0470333795019896
0.0459244721475793
0.0464218744312897
0.0461678003149932
0.0467266901407046
0.0470133427585581
0.0469961074435128
0.0460483062819848
0.0473066885599499
0.0472679358624826
0.047050888863732
0.047061516758229
0.0479066904794633
0.0458123310891329
0.0457108394614761
0.0451179081819765
0.0458252792946884
0.0447741480015228
0.0434234139685406
0.045168979189206
0.0449044821949612
0.0437167905335077
0.0445268811135678
0.043283233734331
0.0429809777154813
0.0443236213957309
0.047338856674028
0.0469968791902273
0.049919464135084
0.0516094741341103
0.0529107337275475
0.0547936646433915
0.0582618112186147
0.0599952074753271
0.0621348601702475
0.0658350118624045
0.0704679977518174
0.0731183250387914
0.0771225127817679
0.0794056910571106
0.0818057589701974
0.0827581311824872
0.0858880697644088
0.0912929744249352
0.093113555198507
0.0943665381549675
0.0986499295457352
0.101017574483127
0.103249858437547
0.104115171842001
0.106787130492266
0.109307318124825
0.110431815937164
0.112833644538494
0.115754953662551
0.115068552153476
0.11678426114948
0.118050969983724
0.118335265106861
0.119345948399972
0.118633709551016
0.118485893928057
0.11855306283265
0.116895741138081
0.117611680547124
0.116913497574607
0.117053754723542
0.118188273923642
0.119973810426725
0.119113196451131
0.118753868360701
0.120078146485929
0.120221620968503
0.121319974460981
0.121933597922961
0.122929885580506
0.124859406171523
0.125717245357975
0.127081179354502
0.127103698110262
0.130937628462733
0.13175446467709
0.131706222589006
0.132663850819392
0.137199592458149
0.139056760987191
0.138678404168762
0.142711065110643
0.146260557687115
0.14540143717028
0.148036645839111
0.15217254686881
0.154214697782977
0.154899393800127
0.158198589995855
0.158295203537529
0.158573027478125
0.160587842815089
0.160894329228534
0.15933953209701
0.160570579837824
0.161809843846447
0.160680410412773
0.157555974037707
0.158051042292524
0.159238663488193
0.156935872554334
0.155722777294277
0.15785920066157
0.158719852250833
0.15869308656576
0.162017511813762
0.165272471104803
0.166831339777986
0.171599135322464
0.176313760428988
0.176993925548523
0.177670679852005
0.184259733701772
0.189648799279077
0.194345985422341
0.193159655689277
0.199471950087741
0.204143718816089
0.205007926647778
0.206427173953141
0.214448050540014
0.219215175392974
0.218176573574989
0.222128124583817
0.229544504465505
0.23226009235915
0.237080604116393
0.241441871216995
0.243548771136074
0.245169326088274
0.252838266129717
0.25343108305475
0.258240850487729
0.26003072091724
0.265983406609012
0.264476140362047
0.269497584196926
0.270323283433552
0.269699220955885
0.267539003658443
0.26756285676337
0.273379094232571
0.272865189250218
0.267050679403055
0.269780889224007
0.264470409081623
0.262761829445622
0.264446731518505
0.258044288384751
0.253889284652443
0.252008291507171
0.254127805051213
0.256717941371329
0.2496472713885
0.251782635308714
0.252318552674946
0.254655967981378
0.253875758015749
0.257584232378408
0.25577228568326
0.25508234820835
0.26253080924374
0.265778817874625
0.262944265601271
0.262538317360122
0.26783960167534
0.26818788270032
0.268012922907353
0.272418948888298
0.274946439390306
0.276195939234857
0.274938816263465
0.277674428843063
0.275056312758128
0.276907031558082
0.276806889207636
0.27625625481391
0.272899725352223
0.271387008898143
0.271148245743391
0.269760941180103
0.264747557323874
0.26518479848451
0.263869735731163
0.261010724864535
0.257577276115751
0.257867953417556
0.254214581098335
0.251291978217985
0.249969577750992
0.245061582338531
0.239685457293484
0.241146057576135
0.234076765639599
0.228365588999289
0.219789187312071
0.221746762011012
0.215342356642306
0.204569348975041
0.194080173331537
0.189851894408861
0.180124467341579
0.176251813635336
0.165159866723094
0.153221541287674
0.149129761239423
0.138326567416543
0.128974149871103
0.121010145198043
0.112294787923408
0.106776679181667
0.100729453975751
0.0965565989720222
0.0937335811834157
0.0910805212662577
0.0883284765964636
0.0849784707481596
0.0841516114802524
0.0828476477848972
0.0776703377153149
0.0767254292196706
0.0775340113273497
0.0744043622301751
0.0689215155952746
0.0714833562695603
0.0667259377830201
0.0650230111390494
0.0635901613178412
0.0607013980321256
0.0609489340591006
0.0556989725801964
0.0548944552405635
0.0525030514695532
0.0493841158687617
0.0461632976713591
0.0454307909422389
0.040470558764779
0.0373032356915607
0.0354020105799261
0.0312637613122629
0.0286744154699418
0.0258064184335411
0.0254696431943373
0.0215779138490998
0.0226456697447089
0.0221819162309571
0.0185090064534105
0.0172458327156272
0.0167777847816718
0.0177922459533834
0.0169983399660808
0.0140156142017035
0.0139106862658159
0.0126093332117297
0.0118976980788482
0.0125897976872032
0.0135407263894752
0.011667430168295
0.0141621884768864
0.0108161710605728
0.012111966184419
0.0114707319076335
0.0124035867086529
0.0108445243162446
0.0110819930000468
0.0120138705139384
0.0151477222725362
0.0152947558363542
0.0142868687102684
0.0115452553412195
0.0162325957709438
0.0161580448184946
0.0151508247153978
0.0183447557238538
0.0169470428965858
0.0148371643061091
0.0152384270616137
0.0161191021149712
0.0154091409576185
0.0148934301105253
0.0167244621317399
0.0148418946271008
0.0104226832952276
0.0122972986539233
0.0135091982100911
0.0104529833195331
0.0109335519134367
0.0124849866872874
0.0124170862376924
0.01044330532143
0.0114345588876724
0.0125302046981278
0.0134059543928465
0.0128909499319856
0.0163792631456064
0.0121829557131478
0.013929647327234
0.0133945010980038
0.0181166996124738
0.0154318042101586
0.0150024981843742
0.0178316310284236
0.0194526375154941
0.0196332681648301
0.0146462263620611
0.0166523310616282
0.0174479610405175
0.0189467092276187
0.0235189654203793
0.0164789294207695
0.0214346302562888
0.0204792227416766
0.0225839015124467
0.0221576045994169
0.0251534605650391
0.0261538569761169
0.0268224679936609
0.02116658214258
0.0259574111166659
0.0269118496038523
0.0246480203744464
0.0262111782968668
0.0278286437656447
0.0279450915102539
0.0295058859805782
0.0328740015885725
0.0310645405623369
0.0338821791575488
0.0364899355704409
0.034541258639874
0.0378053441266078
0.0365272478408468
0.0380217026219906
0.0413330775282764
0.0359778327663948
0.0397503864245617
0.0390739607646028
0.0326653510980083
0.0305184903955441
0.0267042068891578
0.0308607057880437
0.0281968269688173
0.0335165225393436
0.0319360358558028
0.0246307501539834
0.0282684568020689
0.0327481464490542
0.0299344477600805
0.0294056978976544
0.0277790467350097
0.0280676150413099
0.0326474160973863
0.0317563316955939
0.0266025504578212
0.0308792439535843
0.02954806700433
0.0278636434265159
0.025814971974228
0.0200073021623829
0.0261139895288049
0.0253764058674232
0.0262656219179324
0.0263689781633958
0.0218375839123532
0.0275454826597571
0.0244287109576538
0.0141141927209298
0.0179440260671285
0.0192169796935219
0.0208913050947457
0.0219219190234714
0.0220327144772014
0.019803555302441
0.0152934081387447
0.0220942583158791
0.0219569126557149
0.017101710152555
0.0229674908424572
0.0152613043387267
0.014874303392091
0.026997651978841
0.0217092214828144
0.0113124173029228
0.0120567377208427
0.0177557722578286
0.0127577671575243
0.0165000250563247
0.0161401953964839
0.015995509155679
0.0176083423970954
0.0124493205633618
0.0132544362454327
0.0116525346768431
0.00665683727842247
0.0144473634629256
0.0189152913758646
0.00976591746558589
0.0102971758982943
0.0151186662700852
0.0104020039465491
0.0122278297594832
0.0173988132999456
0.0150336383648038
0.0109212291556396
0.00591504473122065
0.0155356759169707
0.0170406513424035
0.00581387288101971
0.0206025387464045
0.019972565185619
0.0123327600363616
0.0150175644404864
0.0205285731723123
0.0161620939323122
0.0156571097279729
0.0202660032762282
0.0186397607280676
0.0193355824615168
0.02028320323658
0.0216042478965582
0.0250064537119389
0.018676743685509
0.0190471138608982
0.0196023357292067
0.0137912629160814
0.0267337584092776
0.0282562877138349
0.022034158024204
0.0185195995866661
0.0301795977875131
0.0180184334886921
0.0243553882157974
0.0360042363156563
0.0422647149099171
0.032258292628132
0.0370071815903176
0.0442910842441024
0.037665202752977
0.0326249448965588
0.0390947747361522
0.047415926032626
0.0412084875419095
0.0527599597480684
0.0513833097514592
0.0401953539096466
0.0330519572164105
0.0466820871168416
0.0500304674602843
0.0466098263316523
0.0510116866129756
0.0620912394977895
0.05146260809844
0.038503472319072
0.0384400718535553
0.0497320894830852
0.0362351891285643
0.0412814090581959
0.0291219911478892
0.0312680067998355
0.0267695434383578
0.0300371039600112
0.0409166649749909
0.023326983014885
0.0339987835377514
0.0455105638665118
0.0240241602348035
0.0312343041333212
0.0392652210979049
0.0453935658564495
0.0293203146515067
0.032917191051385
0.0394165872948159
0.0327448779176808
0.0273121953923554
0.0412202599315944
0.0397561369588588
0.0218186220664339
0.0375134064062676
0.0293878143141497
0.0164873661642101
0.0286944254693445
0.0220525710585877
0.0260390524542856
0.0158332971998572
0.0365565994326524
0.0232429265697766
0.0192316747326882
0.0230089313984996
0.0332164014738614
0.0281773125593036
0.0418501906717922
0.0422874711688176
0.0259115570021401
0.0245680476225784
0.0447836517402594
0.0288564901916273
0.0503510338765119
0.0212868726609905
0.0364165447607323
0.0220320063784052
0.0166766836198675
0.0276914818639345
0.0343535421560142
0.038867476983785
0.0204073505786337
0.043566586886119
0.0400732636319888
0.0233696743702248
0.0269406732249514
0.0289822822534664
0.0377904099382635
-0.010560199442962
0.0343645399815644
0.0303112383776564
0.0568332056947863
0.052812737484801
0.0322286739916705
0.039313631533361
0.0693878280966357
0.0202536228006925
0.0214689458073558
0.036983138925601
0.0532463394227343
0.0363594286896548
0.0488366025030909
0.0254636416926118
0.00892703342242154
0.0479428173572183
0.0476417941224126
0.0276847439436525
0.0667240273711893
0.0421461426823457
0.0303190280673036
0.0629329066157939
0.0747547706905168
0.0334023760387553
0.0329987805311049
0.0625225485855276
0.0490527226934187
0.0655767600487271
0.0731609974522372
0.0301174770906421
0.0417546085850963
0.0427650632530022
0.076563359283974
0.0470963742342817
0.0576168193061346
0.0312605179659377
0.0764768199439183
0.012675893547311
0.0744192710675873
0.0207648678799981
0.0443367073915558
0.00986092933919708
0.104002579339273
0.0406586857566741
-0.00860372767570138
0.0130291207354402
0.0451067515826122
0.0628537912030054
0.044648646441221
0.0767956543273515
0.0385090953527871
0.0157444089670051
0.0863893389838862
0.0783485221183
0.0637412267004071
-0.0519753842646846
0.045457919067294
-0.0590380441621269
0.0417730320840877
-0.0355189424726508
0.0442182713043655
-0.246903557468158
-0.057434536460709
0.0355719912304455
-0.0218437269231634
0.023522329566539
0.07619428206561
-0.00849407973688931
0.0480753507658294
0.0109996905190113
-0.00968053702879752
0.116557048977524
0.00779312642113367
-0.0551102095498916
0.0187688337200593
-0.0710373960767159
-0.0248141780974969
0.17573673312836
0.282574970951806
-0.201818502985695
0.178444784230034
