3596
4000.36533379555
650.420452594757
1
2
2
0.0396171212229215
0.0375768427885219
0.0412225086559123
0.0362482835332207
0.0437029861247873
0.0294584113690623
0.0422502484073486
0.0373725232587769
0.039542793163601
0.0415336242141048
0.0420598141496173
0.0366522126248779
0.041056643234314
0.0343973802686853
0.0364425219613964
0.0383133533198291
0.0378375879264103
0.0354254145772422
0.0383070119770473
0.0366988314338358
0.0350074255786293
0.0394275499905149
0.0428458975956226
0.0456181880134825
0.0441377374526943
0.0410177558775671
0.0433841356191606
0.0407809743004353
0.0419771091347363
0.0390221619400491
0.0362427073142406
0.0326698323422428
0.044174549593674
0.0361138248365364
0.0383515424906034
0.0351149217932801
0.0380477460689824
0.0350154571650181
0.0415586928493495
0.0411999049623263
0.0383273590178028
0.0374883815824099
0.0490302437912412
0.0391620596958227
0.0405594131404504
0.0381057974835063
0.0396264336526127
0.0387111214054538
0.0377751178011151
0.0447088282642099
0.0417103954144393
0.0404279962978189
0.0437733132784653
0.0452983866444008
0.0460304835186586
0.0502640045199814
0.0516488525082539
0.0311512172458941
0.037455650524186
0.0378648546563935
0.0515047838414761
0.055056537353274
0.0419545935363584
0.0333481574950074
0.0370731536329916
0.0348179084029415
0.04554271943512
0.0424482899349089
0.0416573725878078
0.0325082981394587
0.0428708827377791
0.0398399089864734
0.0595621538290125
0.040206687812051
0.0496126858041569
0.0403626623045949
0.0397303740062826
0.0345591619367734
0.0330218458519948
0.0371451223297219
0.0622706741799216
0.0399868909441489
0.0420227275016798
0.0289737202098933
0.0436505160314835
0.0433399649683742
0.0391974403087002
0.0332065523558132
0.062954456778464
0.0438895406624983
0.0466037153675818
0.0307161446952917
0.0437412064905493
0.0267244499844492
0.0465660521639991
0.035257681841702
0.0353715407323547
0.0305288443869858
0.0318307403822773
0.03192187992221
0.0439543005911795
0.0506051022536474
0.0797773126241054
0.0458918279334309
0.0582565534106457
0.0631080714067524
0.0323943460785801
0.0703622548121955
0.065465303446741
0.0399295785755851
0.0415322074411322
0.033500016886277
0.0473377024546847
0.036665932485394
0.0399226953670508
0.0504473300968697
0.0771228608739287
0.0450793881818472
0.0490002464249796
0.0343621938320891
0.0333929686709225
0.0329548017062376
0.0855176972439675
0.0359212070252753
0.0544147043136244
0.0436376457804211
0.0335578085907173
0.0486352067833445
0.0747643164596917
0.0431607977872742
0.0336944521391888
0.0338713858360891
0.0318212312631
0.0291575159828756
0.0656573036904692
0.0563749607385127
0.0429211712259894
0.0249877156059304
0.0378600252881527
0.0813390825093779
0.059171304617721
0.0446258982962005
0.0247624128696751
0.0387713754150742
0.0828966240005427
0.0488644119500376
0.032515112848005
0.0506025696304284
0.0594778297465523
0.0362592986250795
0.0333229607658051
0.0290086405748579
0.05655424823305
0.0346956740144627
0.0173764808730401
0.0394522830425232
0.103290079641342
0.0622130789331231
0.088443690331039
0.063246668434871
0.0396125265621905
0.0492776775605539
0.0293939385831012
0.0389298061848015
0.038116311478882
0.0356289464810898
0.0439792334118011
0.0582681619945788
0.0421823344972839
0.0403572704135607
0.069075271691658
0.0433667390883347
0.0263085166982913
0.0740539187899607
0.071643298683964
0.0234112603168044
0.0665586411286375
0.0592660779727456
0.0305169804868502
0.0442429057238792
0.0651468569579984
0.0479778205388678
0.0419631797252524
0.0348813133723864
0.0427821582197023
0.0570070662841879
0.0489121425132634
0.0360350904469849
0.037424870959852
0.0203616446312507
0.0387582904230574
0.084400170348507
0.0730400031684229
0.0531435760989637
0.0426433574280185
0.0234847359603126
0.046087227768664
0.0855188032862983
0.0444222066017242
0.0333717348045744
0.0347967454474421
0.0331190603830658
0.035323544129621
0.0399919901278381
0.0284504003312947
0.0229571470253885
0.0655464515634802
0.0669523164837526
0.0341744169978828
0.0358315753450783
0.028492643197186
0.0276818074553279
0.0704066013973368
0.0750275297450887
0.0410889263517755
0.0440942781607628
0.0271237285770061
0.054632666778672
0.0634270866508705
0.0421406972612881
0.0332164921458212
0.0322172010332578
0.033559921679413
0.0374863555209678
0.0330233887675481
0.0343158294517304
0.0356749111748023
0.0388146514560742
0.0359790793814681
0.0310996468246908
0.0436033068578513
0.0423510166245626
0.0380744103370059
0.0389813401632342
0.0305772272116034
0.0409067190889605
0.0596102860432161
0.0410279978907993
0.0351774557131472
0.037459585443103
0.0306529964879289
0.0370688141032726
0.0369335038652901
0.0422473624366577
0.029796572323863
0.0327254654971285
0.0584937897774491
0.063320297191851
0.0286613096702161
0.0313228110773321
0.04332865220078
0.0588101757775943
0.0315785849630604
0.0413151470999312
0.0335559086998902
0.0301993311503065
0.0235431532422003
0.0578701519670606
0.0469174257189824
0.0345646602751316
0.0461993351363944
0.0488435200894099
0.0380360616111473
0.0227462561584971
0.0212116027880881
0.0867727285136103
0.0576341517751502
0.0229629095633347
0.094320306071502
0.0741525293981234
0.0524817575064206
0.0380311312613195
-0.00232931453108614
0.101971677108004
0.102305775035732
0.0457413180337972
0.0457206105486993
0.0469904754247008
0.0400568223764898
0.0333421175269005
0.0426035940330584
0.0443649073456608
0.0709120498776643
0.0930273228184785
0.0776797156499988
0.033315317861392
0.0503631850969643
0.0703153379915174
0.0369360663902747
0.041675045612963
0.038373847708618
0.0432137067463704
0.0518853142405343
0.0568202536748566
0.0544125427319038
0.0413808778655681
0.0466709804500751
0.0598123994712272
0.0545225344925661
0.0415020816009835
0.0474554463322347
0.0450592304152093
0.0356643632208673
0.0344888148821834
0.0384143663725748
0.0398143914344929
0.0329301284643206
0.0274443293808758
0.0760220103826997
0.0625796834421385
0.0395942686580334
0.0636751826738333
0.0467522124126776
0.0348064470190464
0.038251531253273
0.0336817316373362
0.03127979929988
0.0323255850645316
0.0254084838711833
0.0556299805460868
0.0586939525295715
0.0317391061087514
0.0388758769892562
0.0314374357064066
0.0343208672327664
0.0308044870846188
0.0370486631557343
0.0341797892511323
0.0322491267124608
0.0242685356989453
0.0475920624019296
0.0588679263931693
0.027936102847454
0.0534096684556419
0.0795022959644808
0.0400266750527639
0.0396978059425291
0.0341734362023258
0.0435351460655405
0.0410087544118804
0.0348147581336675
0.0344280933827382
0.0377064199716116
0.0555145656827184
0.0482727224254174
0.0281954731458255
0.0400089700998845
0.0993374060983473
0.0900262040174012
0.060668198857803
0.0430445771750732
0.024430927199213
0.0472965212123047
0.0800725115352662
0.0587439685790025
0.0693769036707749
0.0414336715189524
0.0382671229244546
0.0428226089366305
0.0338289825117392
0.0364658342151297
0.0348246942305914
0.0424070207179861
0.0327915094164024
0.0422551429995193
0.0385920354371862
0.0314525918001648
0.0315689773619071
0.0685937588923577
0.0605549569529753
0.0426795461469243
0.0421638310756707
0.0313685376872419
0.0472216358610108
0.0768905561047921
0.0694912127517722
0.0796389494046108
0.058303358925572
0.0875102186719631
0.0643007218519896
0.046502905951306
0.037475755006541
0.0434140800745736
0.0450865089898305
0.0467383893900599
0.0492388605322351
0.0474311680665541
0.0536127001440993
0.0522530125938813
0.0444919744105851
0.0393993738464942
0.0436940754778626
0.0615602526727408
0.0597266012832692
0.046940176084063
0.0433144492642012
0.0344999904662947
0.0907421673561725
0.105236302596772
0.0676866160431067
0.0528319154229641
0.0572601627653219
0.0507349185309012
0.0535360474920049
0.0511457241165197
0.0543953912134614
0.056249071196763
0.080022281672654
0.0813231636953755
0.0700121892915895
0.07483797270213
0.0495399282169609
0.0715564160823577
0.0618350133942919
0.0612349222446734
0.0917989881869327
0.0711451275045084
0.046574847352227
0.0781418659419266
0.0868122582826402
0.0659996644599383
0.0873861048077958
0.0722318496275971
0.057492099366905
0.0676206850868931
0.069349793913589
0.0649770787172988
0.07072325767476
0.0736489905681732
0.0753705996684968
0.0778209254444407
0.0718717412039589
0.0723911710271088
0.0831129031190661
0.0762612023195154
0.0787364943668473
0.0852446112528988
0.0739255343789568
0.0806573758274893
0.0729295668681782
0.0846412588514118
0.104214039889653
0.084562968297679
0.102724755306027
0.0779550854331255
0.0801633573367734
0.0829582824515872
0.0867052669282845
0.0799423144935398
0.0735663989384667
0.0848298003289615
0.0891649061122782
0.0848357457769965
0.0851294978521606
0.0888501512575686
0.08910975902553
0.0924408351025498
0.0865685878558199
0.0872812969370982
0.0985340241864503
0.0927306736667971
0.0925585798188554
0.11145674337082
0.120549643584543
0.121501600235833
0.136201189339469
0.112891581660436
0.104712554300724
0.110134448799844
0.108405682010969
0.1006168432009
0.121758800083986
0.106582537529499
0.115499704930699
0.112544996259478
0.110022686963574
0.106457660884314
0.118160142252657
0.118771897851033
0.128583259585898
0.114542928948607
0.121491571981794
0.12270905449794
0.123060371176652
0.125740784359462
0.144921297456493
0.132011787813292
0.13706724583456
0.132067743038905
0.140539010019258
0.116247553771481
0.13621479424968
0.129772646090818
0.133443667685466
0.127235511191856
0.137739502721065
0.142233084953268
0.155039924988316
0.138810579154971
0.152123284093813
0.15656439615425
0.137970660580186
0.14624509768238
0.142672148534924
0.147581810351753
0.161066593610028
0.168413779572848
0.163990222134763
0.160908793078458
0.149974955164313
0.157803328394114
0.178428925359016
0.171845285043312
0.165455297635827
0.164976067658239
0.172533772901283
0.166121358230688
0.170797486553163
0.158482479599839
0.170658032560952
0.162676481784111
0.17322778263129
0.170868269502839
0.173006098868621
0.181427651053743
0.195672667309602
0.191970568906958
0.1952957752898
0.185114607009286
0.186438592018804
0.177684467958948
0.197221958650341
0.195901798490202
0.19281378420813
0.201545459705122
0.20476940370209
0.194153366099175
0.197487611678628
0.210007021025156
0.203372428489577
0.199285093646862
0.21551861820538
0.211690730514652
0.21356632860896
0.210583158472609
0.211217028690623
0.208188876651621
0.214917794804851
0.225283693700645
0.22400563427889
0.225964210673158
0.22996655222413
0.219667816254811
0.220808558589307
0.22922678100588
0.231349651167532
0.23075786915911
0.234447824953143
0.231054600351292
0.243338425124985
0.247492960215123
0.230435843428563
0.221987347690998
0.256495026381931
0.231695456655267
0.242737053710667
0.229810854104138
0.229892762162506
0.25105193971846
0.23888866884461
0.23297202261941
0.255341477049277
0.255019121070857
0.269672719264343
0.257745121220712
0.24473338816226
0.267404846632166
0.269691030252695
0.260367517669377
0.256536353244045
0.269969256944176
0.269531338134755
0.258411859549897
0.270513823164437
0.270511748734386
0.276965935010949
0.266392756357622
0.277348111730038
0.278398243034904
0.288927027626104
0.287348690112931
0.2850245957919
0.284186459675402
0.285163743458236
0.281275629139499
0.298470116851308
0.278178223268574
0.299255682696275
0.298995827174634
0.287406051677002
0.285129454151135
0.283972085861748
0.292154914125068
0.305480509370407
0.27526555106253
0.299557522016258
0.285593510185479
0.300457338484737
0.297552344278406
0.303420803220714
0.297368074843239
0.314746107197831
0.298309173639755
0.312884634116536
0.304065474398583
0.31449150161284
0.303733056785166
0.329534719147828
0.304615744175994
0.31593753954609
0.32361941923794
0.32989394321608
0.307940258433408
0.325705888395486
0.315845721595661
0.326244512693518
0.323656101502056
0.310080358210226
0.299639756951218
0.311315954896314
0.315723018142587
0.331023676626463
0.320901193549983
0.324143866254722
0.330445829442517
0.32118249170201
0.310755766130272
0.331136277858632
0.315718717623934
0.33560070059252
0.319705326820405
0.316653875469486
0.317733138997614
0.328125998883082
0.339629376504544
0.320951862504378
0.334999079452946
0.339076005382381
0.324147014937855
0.344939256056271
0.335569598054379
0.338542009918583
0.325084953837262
0.33730201294435
0.331039585652468
0.351522286085718
0.329170317461818
0.347218503419527
0.336518026758749
0.346382176128717
0.328447688371474
0.336464629883935
0.346208069344498
0.344358226736844
0.328210581488196
0.351233795784075
0.330688428154945
0.349863652418811
0.347131422527013
0.352290624175053
0.349179432326164
0.359859718230667
0.335362674237942
0.344854804379689
0.336870719240499
0.342997261380518
0.342802896412131
0.369387207975807
0.333437785511645
0.348266837624588
0.347172492849193
0.355748398052389
0.349621581783966
0.358257116502087
0.34123140359073
0.339809738720127
0.33859781567552
0.348827782047377
0.348132379480453
0.345435117724423
0.332458949083085
0.353343317698861
0.337275828489672
0.347843743908274
0.333838770119083
0.355228217176523
0.360636005940081
0.346949402613535
0.333934302020502
0.346320470135487
0.342824690500305
0.348326478238493
0.345399714480135
0.348032315245822
0.330839558424081
0.350986712975516
0.342286693802482
0.354054752385424
0.346365372566182
0.34006018487673
0.346063548398717
0.353917213419382
0.35267929291425
0.356913993411321
0.334320029336146
0.351396227909535
0.342572827725436
0.349470883200879
0.338734229572396
0.357368811734395
0.334604720363775
0.342753563258726
0.333716182993652
0.344454063551739
0.33638541680417
0.335584530733618
0.326973525376126
0.343194039472623
0.329735809584645
0.351088056837832
0.33821633369343
0.338284571897246
0.32362765719104
0.346215468045534
0.320139953740047
0.330333553379136
0.330804566897603
0.33214850913577
0.319601725971873
0.337576637836535
0.328905214279625
0.345387001829576
0.331577198224771
0.324724454783096
0.323291503398723
0.329142398378146
0.326740376245508
0.338588550545401
0.320886666275709
0.334071130132024
0.319506849256604
0.326426599699307
0.325800192722594
0.32749668581502
0.317036051850743
0.33261170850276
0.316322487981187
0.322127296030539
0.307744945067561
0.316677510240533
0.317992232277094
0.319295907637959
0.313548716588166
0.312554841075603
0.307859504764002
0.321192280098021
0.315947995560882
0.306913165018967
0.309591376160352
0.316346944933128
0.302203361627195
0.30778067927598
0.305658256310197
0.31601507468985
0.300328612739738
0.313862456482626
0.297130301192648
0.307686723635818
0.297298440414179
0.296420344088553
0.296967852746068
0.309941040164614
0.298155235070419
0.305312405114553
0.297906501472925
0.308181512263805
0.297229552713374
0.294988098165852
0.288135811676188
0.296821273177001
0.290797943311152
0.284659264313458
0.28812653032796
0.295489441714993
0.287244652248033
0.291858838637271
0.278464154525571
0.290002311628714
0.27506243465099
0.285962186240556
0.284508050043235
0.270958398194503
0.276871590653339
0.283575045754563
0.274588879991194
0.268651629126328
0.27526313655684
0.274261972406736
0.275953863387619
0.271480671427636
0.274013650437102
0.270131751057167
0.258780707140221
0.267889531705913
0.264663828513267
0.261021291453345
0.257921344224668
0.26133545153021
0.259180385665404
0.261504081556929
0.259698725937464
0.246271475418433
0.251850558767679
0.254926766605868
0.250594826208826
0.26030322572787
0.246364481311316
0.255304632776602
0.249301935472772
0.24806919827906
0.244794215276845
0.246169260817542
0.243768278042713
0.241917829172719
0.231115311796427
0.24420741181484
0.237230643318085
0.249819472753786
0.237253196572495
0.232872170819754
0.23623839763799
0.238261105904854
0.227408278103845
0.237630437663555
0.230129340474177
0.238580746733523
0.225527757560095
0.226543964824658
0.226407171789942
0.226734312833298
0.21665133012207
0.221449629582272
0.2147259949631
0.228883521913826
0.224339470195093
0.221469117777171
0.220841275078856
0.216530690876969
0.207988781934815
0.222704997372419
0.202282722835291
0.214845488372906
0.204745811364607
0.205431777137614
0.204755253074451
0.206488498661387
0.19886453160847
0.202269171844344
0.205480249902018
0.205481081692971
0.201263840827891
0.191638375433795
0.192528763412238
0.199138301598604
0.191182761007933
0.192584811420158
0.187422656034347
0.196391162210381
0.18269937638487
0.193431484190348
0.185977579589857
0.188499040081836
0.185483729638489
0.188351465967976
0.16959800227523
0.18162083550938
0.1795661895425
0.178176639489578
0.174267395822737
0.18260333256822
0.168215483746019
0.171626338152065
0.173808919463061
0.176416180016406
0.174235551098932
0.167465575424348
0.173419542323607
0.171992283604302
0.160753103049023
0.167737603327497
0.165279500887827
0.168760182627529
0.169333424276544
0.165595289632396
0.156924633004136
0.165208930979808
0.157845526747051
0.157887614997345
0.147505299153576
0.159192770145006
0.151278840960591
0.152872628252979
0.152578275146169
0.156977815217153
0.146691811480977
0.152734412860758
0.142804598348353
0.149845946093043
0.146056669636569
0.14908498128987
0.143107088226489
0.147545670736053
0.142584431781255
0.144735868411179
0.144105149598344
0.140681154641991
0.133971138963232
0.130129859481092
0.13475003666991
0.137682292616134
0.135068512339477
0.137337486788398
0.131990985312074
0.136840911739985
0.130737915150488
0.130523607493699
0.129823190598539
0.128824653892944
0.128449630749261
0.126100883847442
0.120067314904231
0.129533004523205
0.120299638785868
0.119021891498147
0.120002300019581
0.121742174351018
0.115392319238011
0.118556030970712
0.117917228550778
0.12060637806229
0.115677636565962
0.116086151258226
0.121325145871188
0.117938118233681
0.115690490273895
0.118735920867451
0.114368963817076
0.111559260059895
0.110194436873025
0.118268025955864
0.11231403185506
0.114651538399398
0.108071089640492
0.114132790309866
0.107898650701655
0.109762494040592
0.108865466857243
0.108664472301705
0.104614825865442
0.10769591628697
0.105043576782987
0.107453281861925
0.104013324585534
0.104561921355578
0.0999032734525397
0.10108986494409
0.0993909507187059
0.107696843738642
0.0964864015765711
0.0969407059981444
0.0958582850942603
0.101471956933743
0.0954136726408464
0.0976030102684738
0.0919843188473811
0.0970871151129492
0.0908534037024475
0.100006232357284
0.0939939717449945
0.0939828178720095
0.0940119786752085
0.0975602645849401
0.0890201010179794
0.0932369497093164
0.0886474104099104
0.0876060631682812
0.0866974106507916
0.0871655577527684
0.0885366211108506
0.0897410154370875
0.0845916053767599
0.090859817372244
0.0804274923359867
0.085141476724533
0.0888952017146823
0.0876639540126051
0.080355786045832
0.0879668178822976
0.0851449655332966
0.0859190229392936
0.0842570485101113
0.0844335951488017
0.0807921653872199
0.0831690440220642
0.0801926330969472
0.0833734873947565
0.077222274181111
0.0794215926915231
0.0802857042655384
0.0806975100976939
0.0754275133767601
0.0786508799232052
0.0762446502061771
0.0758508292859908
0.0720645557898859
0.0767816061187025
0.07615450797243
0.0810270486939977
0.0731521100697891
0.0759678123078759
0.076822615104103
0.0720450422676744
0.0752697881761347
0.0710483671844191
0.0717497558983437
0.0760762907590644
0.0685668066648974
0.0748999489025798
0.0724017963762311
0.0726114479256012
0.0687734177612476
0.072073669658239
0.0674249628301684
0.0719541493915828
0.0656632430088246
0.0682005917050895
0.0681540539818073
0.0689457160757955
0.0636057924906802
0.0670230365303907
0.0663986445353036
0.0700156410570164
0.0639189896055406
0.0671301815938646
0.064385474896736
0.0657305029414418
0.0621243579430256
0.0666412864168345
0.0589128540695506
0.0661592693201676
0.0625191324774606
0.0657035985185053
0.065717407302426
0.0675796587015696
0.0606430896412778
0.0669553393396301
0.0629192084586284
0.0697500576213606
0.0593253976495896
0.0641869636242589
0.0630799804333802
0.0629926793801537
0.0603909922067687
0.0653993376643732
0.0610358785246391
0.0584789855539929
0.06039302146934
0.0636620416518369
0.0612536319218109
0.0651539515116126
0.061004853873936
0.0694104014924872
0.0627261581941904
0.0665713948813271
0.063839081428469
0.063837791460297
0.0641725119905892
0.0641510652197647
0.0604027661427448
0.0661123529081575
0.0614757836155309
0.0674329200198571
0.0618681342185814
0.0723828823511104
0.0630836042919837
0.0700441755377734
0.0643565562481459
0.0683362933781038
0.0647887189802236
0.0650619666583816
0.0651786157120007
0.0733906583650901
0.0673939670577136
0.0700300693075251
0.0683871980977467
0.0728757295433554
0.0679282794584503
0.0657532038747819
0.0703206515349256
0.06851881481258
0.0724422069919234
0.0751151951566371
0.0755780346334398
0.0714798115388536
0.0755384401050513
0.0717051088889383
0.0726342426287662
0.0731586147590126
0.0721554342000263
0.0759036179142995
0.0723833239714179
0.0786563217997988
0.0769325690815
0.0792251429494513
0.0783352630064792
0.082964332939555
0.0768606773153871
0.0799632638780515
0.0776259280512777
0.080364543361546
0.0860147113948687
0.0896442283394296
0.0859063580505347
0.0883236988889733
0.0886369358888792
0.093009416016199
0.0894967096419561
0.0919547657093241
0.0874240024363742
0.0976898210385575
0.0851853837973767
0.0925829702230792
0.0887045841117902
0.100821807902155
0.091515457077415
0.0977884553698282
0.0936394449985003
0.0935266469854261
0.0889170473689566
0.0964794826540844
0.0983581008789517
0.0954674761616556
0.0910363578824707
0.0965059311194325
0.0936198019281387
0.101358579672232
0.0908499747209628
0.0942140452418686
0.0909836405474042
0.0924383067696509
0.0892589554096228
0.0962966909327904
0.0923268869858
0.0905834361356993
0.0855880003388283
0.0952674062303622
0.0894820245552253
0.0922278409153213
0.0837925841223684
0.0894505941661521
0.0905980339991754
0.0915012692728768
0.0909416976633942
0.0913439765260803
0.0868554193801831
0.0923626995871144
0.0826827576670684
0.0935254950291513
0.0879186916371267
0.0935133391065953
0.0869682144481334
0.0916800547891012
0.0860091407710645
0.0869628001785734
0.086154046823729
0.0904278438453905
0.0869394554651745
0.0944634650002296
0.0830822342318338
0.0907303868148452
0.0894629067974588
0.0886424894658828
0.0906934785996974
0.0903765501463955
0.0848675766219571
0.0868820721502993
0.0864918836228056
0.0916773408065997
0.0862505140978812
0.0937141913720634
0.0880323530311806
0.0865963833610443
0.0816854012390432
0.090158175988112
0.0863657562644034
0.084997534427108
0.0852212785649232
0.0832605519355695
0.0789372261943299
0.084556933665136
0.0855318123563246
0.0858712537752623
0.0810498370464979
0.0798148789379121
0.0766804392885671
0.0795980298955432
0.0732505241596964
0.0777933619559325
0.0734374551664299
0.0818483653597972
0.0731131967236963
0.0770936780477872
0.0694759483517305
0.0732368967272198
0.0707558595430376
0.070315339849629
0.0687997801042877
0.0742540445631186
0.0654302392863549
0.0694121055675277
0.0657080005916992
0.0713695104766928
0.0634168608861453
0.067459585381585
0.0609625256918664
0.0655943936252249
0.0583481883525594
0.0678657832408124
0.0567461451925487
0.0611410506732847
0.0570579745749576
0.0651039083131727
0.0574078418616525
0.0561184249894378
0.0586228257765374
0.0609457376422957
0.0550821361889872
0.0606274453648825
0.0566788719930207
0.0614156318596484
0.0570197426016215
0.0567341816328416
0.0577690841462488
0.0538677935559393
0.0538733790637974
0.0600493451930475
0.0539908528036206
0.054177460522217
0.0480961821682893
0.0577484713827017
0.0548154120968974
0.0572488354216728
0.0528061999663635
0.0533392149937145
0.0479326130537529
0.0587610943334553
0.0492648422319513
0.0541163253972021
0.0445276455891643
0.0499095748054357
0.0483394929267083
0.0525909690939486
0.0498163969054763
0.0496969257673182
0.0507383480007115
0.0550942429293741
0.0471794584440242
0.0501535626358136
0.0470056470170035
0.0500801655586528
0.0466823913175851
0.0479837179019877
0.0476683429388121
0.0541730491856954
0.0475553504349616
0.0490077424115302
0.045973890439522
0.0458195851486471
0.043092143170475
0.046599099385916
0.0437218190192893
0.0450938605849737
0.0442157023715002
0.0474008913414339
0.0423461798310052
0.041913574245137
0.0375376197550947
0.0496191167785962
0.0451059751898933
0.0450674947550976
0.0420406892807489
0.0485097911539886
0.0399464586951207
0.0445290726698324
0.0401692840920274
0.0449514959324752
0.0413112699391659
0.0450266718465332
0.0412818982652173
0.0440396517551105
0.0456737200931291
0.0421217601203809
0.04301605359345
0.0428886533691313
0.0430742664164626
0.0501991841607999
0.0442235284596206
0.0465777091019656
0.0371800023648223
0.0424794649761009
0.0419941541458382
0.0458639969053969
0.0401298362221333
0.0445013840161482
0.0421054161830546
0.0436480823732122
0.040546656983138
0.0462686207487781
0.0368108892520971
0.0432738043788441
0.0414931498685997
0.0421283585753365
0.0411212308131495
0.0378082750498418
0.0405259062236971
0.0387251563501808
0.0377452894661197
0.0410677198593978
0.0426265452113929
0.040624769806134
0.042460036362761
0.0433101764137784
0.0386360470350084
0.0403599316240363
0.0384294823353727
0.038039463882888
0.0401303474801891
0.0369205268658389
0.0392224559265065
0.0416717924592568
0.033420532128687
0.0378845382362274
0.0356682260068423
0.0402998541359267
0.0345281751013057
0.0423914616158675
0.037775301466181
0.0385301925134656
0.0363914259724432
0.0418227139961175
0.0366950059713465
0.0395681163136272
0.0360324000551178
0.0398154269247959
0.037186004848781
0.0406107046166295
0.037096241400301
0.0397619680935417
0.0354705583151905
0.0405945595562299
0.0335330609113925
0.0391125551586951
0.0379342885447354
0.040752977858342
0.0337545251411404
0.0445926940886325
0.0433057375030462
0.0388601001937588
0.0356265452780997
0.0398004971430458
0.0377442200276077
0.0423464231418659
0.0380535227514313
0.0417142784015875
0.0374225785087154
0.0391397952568437
0.0352675976964942
0.0397260485195828
0.0382134271189908
0.0409453986642358
0.0357748941282133
0.035271303591102
0.0397878519940042
0.0368634182840291
0.035960601084359
0.0364277066775894
0.0360874941150941
0.0394315766781545
0.037665416225676
0.0350810412327918
0.033969556142205
0.034299316797302
0.0318652842340899
0.0373027556441777
0.0329758536037707
0.0343955348776054
0.031599667097842
0.0377648982405498
0.0323823234653861
0.0342734870900924
0.0309563292727542
0.0373699441272301
0.0320822888903877
0.0332653426143254
0.0338928035599869
0.0338736703566681
0.0329068411937698
0.0321313446175764
0.0296429147806767
0.0359137586844505
0.0341833190985507
0.0324602062076908
0.0307714291425394
0.0345664958253006
0.0319247026950854
0.0321434678041196
0.0293106465591959
0.0294432298701166
0.0286490382741919
0.0333809216275709
0.031002125959941
0.0341335101354571
0.0299159617467167
0.0340606906778776
0.0299621505852178
0.0319250331418867
0.0316547540054033
0.0344272444956414
0.0309021383036749
0.037056297954088
0.0330666152053742
0.0334084131488365
0.0323599366711117
0.0356793381630521
0.0321186225602496
0.03399579666538
0.0343623718639863
0.0341341633089093
0.0296363563608428
0.0310875998758382
0.0312118658840093
0.0321011520521356
0.0272668184181628
0.029328497055639
0.0288062406726992
0.030582506500244
0.0286344404212975
0.0297961310774142
0.0285183922591001
0.0314018466642438
0.0296328149797442
0.0314646939038287
0.0285253101453718
0.0293626514310573
0.0244746239761132
0.0278227032851712
0.0265700002826981
0.0282652456415984
0.0239237394641228
0.0302987322386623
0.0251127920939395
0.0294559058777195
0.0254823070009244
0.0302588476872261
0.0249487858095594
0.0243229338570824
0.0223121441989786
0.0254804472911922
0.0245603061900003
0.02735043365741
0.0271922288195848
0.0291297060711226
0.0271804932319999
0.0264718329970724
0.0242264886281034
0.0291375769233731
0.0204445753236662
0.0310484038854366
0.0271581256564603
0.0260869038895356
0.0295994342230381
0.0310836196508518
0.0246991299565601
0.026513039913622
0.0246290169990652
0.0272450631444736
0.0253561392517483
0.0275298693571458
0.0247790734361252
0.0291734492022371
0.024349717657456
0.0287931101709914
0.0235696643732012
0.0270225664341004
0.0240967325935564
0.0288946829194228
0.022675042562188
0.0263176033493047
0.0236625611374605
0.0264879390973191
0.0245883500499388
0.0281195563422297
0.0251796689080427
0.0280168125401355
0.0248936288883301
0.0256598222299703
0.0212024905428237
0.0239604860837553
0.0212302329922754
0.0256691475243602
0.0209789778637956
0.0275712284085814
0.0217547146133183
0.0229293036750643
0.0226644339164309
0.0260130281718434
0.0211711928483867
0.0234047300391011
0.0205287920503989
0.0260007040267322
0.0212798488380632
0.0213288162319671
0.0232156549805383
0.0239973034504972
0.0233470082381565
0.0244093701089904
0.0214142694125966
0.0257569127620275
0.0212215963811802
0.0244215731992899
0.0227524513336325
0.0226660759052207
0.020912090395748
0.0245555496322785
0.0197113342911786
0.0225078066362704
0.0221893998434921
0.0256536805132178
0.0223377675292506
0.0240622608996622
0.0242553010084252
0.0240577289220802
0.0205164283779294
0.0250286071007361
0.0223445117024946
0.024184013944924
0.020995194165151
0.0239570314121582
0.0211197750164891
0.0256290856760465
0.0248931101954639
0.0246099636154906
0.0205848490421387
0.0236717557573682
0.0229237482774896
0.024947087152047
0.020915662459375
0.0250176658411853
0.019268977162747
0.0238094985192093
0.0207438698971576
0.023884998408686
0.0228334705342147
0.0263749609341612
0.022884049784029
0.0235348564696505
0.0201780005830167
0.0225624730550257
0.0224997912755831
0.0241635182942925
0.0201417398714822
0.022657914534452
0.0190374948857861
0.0190203848173994
0.0209905841961042
0.0231515576189997
0.0188626836419444
0.0220798995008677
0.0180251249579944
0.0235897343127549
0.0185363309887295
0.0227633801872567
0.0193143051282209
0.0230467179901309
0.0201493451988576
0.0218937939443186
0.0176950398518521
0.0203921344570032
0.0212328464849083
0.0205928924855393
0.0182448786186031
0.0228297508268911
0.019996903900343
0.0218364008009886
0.0193889370139414
0.0216032451046551
0.0174134267178089
0.0221777182082178
0.0198830970294858
0.0215685187922558
0.0193303352175831
0.022590214959721
0.0187130526093656
0.0237940027586765
0.0190799884234693
0.0253239425611306
0.0206676529093795
0.0229238174697713
0.0177277489685216
0.0227498155691056
0.0183836406416996
0.0215122992697248
0.0163817766943221
0.0220709850925154
0.0177097641044648
0.0234917357980071
0.0192698105150134
0.0207132769658794
0.016837926142577
0.0225948025150661
0.020116857719577
0.0237182729543311
0.0200221299908023
0.0236913526604975
0.0167620384261561
0.0207146630564461
0.0220981657153317
0.0219185255034916
0.0175982833702158
0.0220102121017486
0.0178145307100587
0.0178467936514297
0.0172904153314453
0.0202435231105874
0.017035025477778
0.0200302089236808
0.0160246232953269
0.0207402048396379
0.0155704194310436
0.0165571579271617
0.017046583729801
0.0205895394328011
0.0134867823574534
0.0201789714235034
0.0164360185964223
0.0189345253473113
0.018106980927712
0.0185248570624054
0.0148534083768282
0.0192312022895884
0.0160965677203084
0.0225174441354679
0.0141548296882709
0.0191023293864874
0.0172705611387445
0.0199223012808184
0.0150827605885085
0.0214695575598289
0.0170017216375376
0.0190121099636468
0.0150526854372093
0.0224542958082427
0.0166763800364319
0.0206260388018056
0.0191626498403071
0.0200367526926098
0.0144823479839897
0.0191946243077269
0.015874528268583
0.0200440546663495
0.0169553254191587
0.0213899158301667
0.0162632037318429
0.0195093360505862
0.0170797806969772
0.0216408320419395
0.0163414466783423
0.0211373070358803
0.0161636725369305
0.0189982095820545
0.0157107773083649
0.022263416821242
0.0156676918965299
0.016654345186146
0.0161161464523114
0.0191306733367675
0.0168962928969779
0.0178656066671343
0.0160524222847969
0.0183095911513447
0.0130093102067599
0.0167047940462118
0.0146162657471139
0.0185673315915974
0.0132418463703228
0.0184964632042139
0.0152895926350965
0.0169173474844483
0.0144769067452417
0.0182317656432839
0.0120293693440169
0.017095638864969
0.0156840896154463
0.0183045599428265
0.0124582024065303
0.0185319790469282
0.0127497228169334
0.0149969765323021
0.0124997455478804
0.0182893058806532
0.0137149749216891
0.0162007896429035
0.0128478928516515
0.018908273490242
0.013055995719484
0.020988713388674
0.0157029872285106
0.0186162525234922
0.0119267521087879
0.0181004661747886
0.0136615300492895
0.0192073084361439
0.0146638995217031
0.0167789076049178
0.0109735679031919
0.0192404102655585
0.0152952281070451
0.0202052003185493
0.0132508968867698
0.0190449568725517
0.00844267931563754
0.0204738351510069
0.00835681259774326
0.020141313883693
0.0111891252134191
0.0179708202425797
0.00839171144935398
0.013070433109721
0.00304294018124335
0.0128023209764473
0.000697945053825509
0.017761939814371
0.00779606855259639
0.0171080515224812
-0.00398884760631565
0.0114747193493042
0.00815029180677875
0.0165039824424601
-0.00413248703943583
0.0183696233042622
-0.00142544275528859
0.00974651236828728
0.0030652874126764
0.0137623729699088
-0.00134599256622022
0.0179628088834832
-0.000363572390212597
0.0217589756490065
0.00516984827207602
0.0266064819636342
0.0100360311197605
0.0249674671037317
0.0022110605702627
0.0209111271163303
-0.00373756450725627
0.0206251071200125
-0.00545649947966138
0.0238155876369974
-0.00518263183555019
0.0246400032656339
-0.00510617530627238
0.0237037999521173
-0.00727096160851852
0.0249030831588125
-0.00699691849839537
0.0278268706473228
-0.0133203145003153
0.0242150455277469
-0.00995712685062042
0.0290379136202397
-0.00740332245045129
0.0301071115943248
-0.00916997773046993
0.0263065679450613
-0.00697886216951593
0.0295270769738391
0.000934744652464361
0.0235612853951955
0.00880751780663609
0.0170998951257856
0.0153569643465249
0.00835040020244746
0.0242574547055353
0.000295652186043815
0.0366826370267135
-0.0120686277074647
0.0433554756352224
-0.00940225756146501
0.0463150520952498
-0.0126961186499939
0.0452540948377664
-0.00780780507781498
0.0360789484454177
0.000176393906904291
0.025479566499672
0.0111425073976156
0.0180649132624795
0.0157168204891199
0.0145715146674822
0.0163059252608908
0.0154512721666238
0.013531338257776
0.0181161793690942
0.0105156577973096
0.0180212460004606
0.0087225220645682
0.0201616197045705
0.0109873350479808
0.015845714917784
0.0109112267436114
0.0156661881073461
0.0115970663523402
0.0158472553501051
0.00964561339453117
0.0164145672369925
0.00987905568301595
0.0143425768565563
0.00929985600941058
0.0175268782631257
0.0122144405477463
0.015935612904472
0.0115860222119535
0.0136553157588284
0.00950780014983483
0.0125421666396966
0.0121625371254049
0.0146683022650638
0.0117077829764671
0.0144643558449799
0.0110324252857497
0.0135881407048902
0.0105783990728099
0.0128706512151511
0.0115291256606619
0.0157733658248324
0.0140843177647128
0.0167465480336088
0.0107684077012015
0.0143679599155675
0.0131194844240587
0.0154582858580629
0.0117388258007625
0.0151922209113807
0.0133706706908211
0.0149001094205825
0.0134377931263623
0.0154212688596315
0.011872112988102
0.0130188532959875
0.0115748296222407
0.0157971500563181
0.0112379500844403
0.0166027894869945
0.0154688416159408
0.0158951696546949
0.0123077425578249
0.0144656154124743
0.0121864013699151
0.0124396472334761
0.0106686869408986
0.014952148912169
0.0118008111463068
0.0138774249266693
0.0127102829044389
0.0143823503634522
0.010429391027054
0.0117365030371417
0.0112648764413063
0.0146214275253542
0.0131636887531967
0.0152889990057501
0.0108844492228951
0.0134512222957895
0.0125904714598731
0.0140083851534133
0.01174260330781
0.0121894545392868
0.0099711473328999
0.0136399601429211
0.0117040888689171
0.0134957845584206
0.011578942803209
0.0108033227878231
0.012475497565024
0.0106618371502331
0.00988293236404605
0.0121747117057047
0.0128871491887805
0.015845612850429
0.0133894488753106
0.0130229458681348
0.0120930266690554
0.012578158540185
0.0118383902076635
0.0154914695908328
0.0117585283325028
0.013489617339225
0.0155676085980573
0.0136684980830546
0.00980381202768012
0.0152411763072534
0.0144903084679547
0.0145828281991119
0.0130541006749949
0.014288246607259
0.0125074228945053
0.015576439407122
0.0155257161337197
0.0153671980873264
0.0127121804488023
0.0121787648840694
0.0130796998731489
0.0130602360021266
0.0129722262619801
0.0158658514916416
0.0125854515251487
0.013388115799985
0.014246881623335
0.0132448066384226
0.0100159084712229
0.0127513801418582
0.0122378493454201
0.0123978710216919
0.0122518912693926
0.0128686453255984
0.0129105766315827
0.0136501197664886
0.0122170042194384
0.0129737993610526
0.0115681596914352
0.0121211644478078
0.0110712188780367
0.0124407921854243
0.0134466521955279
0.0111627391872748
0.0105845402137174
0.0142351742388987
0.0122425488808147
0.0106383280269117
0.01361076814669
0.0122720964546414
0.0130420838711652
0.0122824301329164
0.0110278481539742
0.0108866094562021
0.011541636436021
0.0134777076786028
0.012657940547151
0.0128110508397084
0.0114679757687896
0.0146942954505746
0.0137250857819176
0.011928897119824
0.0116312248006706
0.0125101926751796
0.011797354177813
0.0124351866466353
0.0137838781730288
0.01424422037624
0.0104710164825881
0.0135855792557751
0.0125136789596496
0.0120266636281372
0.0130038867500098
0.0138303628774565
0.0141916995759684
0.0146952573210038
0.0137396439280884
0.0138557186019883
0.0129559699125035
0.0110907527672171
0.0129504494377297
0.0118914449448093
0.0123165072220928
0.0122361170654505
0.0110869211434356
0.0119193876376685
0.0124401998955582
0.0130783012888451
0.0124297370544533
0.01422818136541
0.0130678395560147
0.0108126722024103
0.0116434481303081
0.0126108652010497
0.0125848252941122
0.011557344838421
0.0136663384494251
0.0123216833414052
0.0114978236057113
0.00928671987968557
0.010673168003342
0.0123998451821028
0.0109683624071485
0.0117447375525532
0.0118812654496815
0.0121401855911486
0.0118449859334602
0.0103514801524272
0.0121326631389372
0.0127646936735082
0.0130619928610695
0.0103528233823435
0.0123947917312736
0.0118010640400775
0.0116020944837538
0.0102944360697536
0.011607552405606
0.0130357034393365
0.0131134921331138
0.0104907303609991
0.0141510419019752
0.0118836077816447
0.0120652825163237
0.0136737911541782
0.0136923504859139
0.009904201284709
0.0113211504850725
0.0104985769425238
0.010978196325013
0.0129997450288845
0.0130038860859562
0.010406614649844
0.0118200768145415
0.012379142870804
0.0117093166668588
0.0128127563390402
0.0128704118290766
0.011052980056095
0.0127572421332001
0.0135486346872372
0.0104644457030856
0.0106082088378211
0.0114560072453352
0.01158194756297
0.0113127859523182
0.0118882116046115
0.0112188130198966
0.0123921314965271
0.0119719007500737
0.0108941295202547
0.0112023515186583
0.0107518160869413
0.0126991671091888
0.0106295248382171
0.0103584181921109
0.00861196611347809
0.0117888708397784
0.012639415833597
0.0111566128595245
0.0107239061534439
0.0128658270880046
0.00984578716546056
0.0101390510922106
0.0124318747860621
0.0123070125624312
0.0115547224547865
0.0133379914138505
0.0114938165100593
0.0118919576631389
0.0122305869374503
0.0119479351771887
0.00938260898984807
0.00993851804126087
0.0112656014428535
0.0119655024131742
0.012105542062607
0.0115724465775187
0.0128236064382103
0.0117290626204865
0.0122057254163082
0.0117642220004386
0.00943623611035468
0.0100376895484733
0.0108405872617292
0.0111113469443239
0.010092751397138
0.0115413337886613
0.0123578427886396
0.0137622584565497
0.00990309134847688
0.0107873389246394
0.0122620648688328
0.00869891026354778
0.0101451830872318
0.0105676678199345
0.010666260283627
0.0121153770489078
0.0119750960983726
0.0127082574064395
0.0119814205039631
0.0114052796387262
0.0110010643486782
0.0133669332602701
0.0112902427269938
0.0111942153189335
0.0110553935175911
0.0114078228249827
0.0107300378999976
0.010789229194999
0.0114068986035484
0.00937749051230772
0.00927453703473523
0.0114329275076275
0.0113097589311523
0.00994636635350376
0.0124070271320042
0.010871153092021
0.0147803394106354
0.0113344494985596
0.00983952519191285
0.0124090950723818
0.00993946053294414
0.0118468715141018
0.0100188165486659
0.0102954807258239
0.00972865280291819
0.0112935510368953
0.0110557043329629
0.00888314527075084
0.011370790732221
0.010735260753483
0.00871901642348519
0.0109035178152954
0.0103919117850267
0.0088999946868071
0.00697024148709813
0.0116981930128807
0.00957123426576345
0.00885081737566015
0.0104641503662011
0.0106038522343548
0.00876134874042295
0.0106395286362475
0.0111473152234354
0.0205761040855856
0.0114582546617251
0.0128047378220629
0.0122916447592298
0.0136112383546688
0.00911849474166898
0.0132024304834968
0.0109910512301813
0.00968017305676511
0.0102612077307642
0.011906268977078
0.0087806319957529
0.009261178470735
0.00913881621168421
0.0116787147540811
0.0111233652499629
0.0119273144449377
0.0107375232093084
0.0110289971015187
0.0092995009214359
0.0110367503332858
0.00978693724397893
0.0114087190631781
0.00639450543422051
0.0103931941076341
0.00878999209490926
0.0162270331540906
0.0149984348704145
0.0112668138127332
0.00918662474438026
0.00995959546400322
0.00913637535556212
0.0101559846099233
0.00936435727358301
0.00871667611751672
0.0107536003873592
0.0112256413599913
0.00958305187294065
0.00964297705180317
0.00902850672866635
0.00846277180096809
0.0103042416384124
0.0109282002684306
0.00798544792674307
0.00926279375453982
0.00822695779808103
0.00820053628786505
0.00889110501708935
0.0103607917363115
0.0102639915767236
0.0101460863533535
0.0104149153506937
0.00931774103415567
0.0274223199546703
0.0118845339369541
0.00965228049626774
0.0092826678674006
0.00983865884328975
0.00823660266570671
0.00841298207571984
0.00730955499930759
0.0116300299203772
0.00940849342870976
0.00863185594231176
0.00657392821048565
0.00882812715041961
0.00979239342308343
0.00931410167460019
0.00913465006693403
0.00982809298569239
0.00942960681127878
0.0103734708008018
0.0112858997166402
0.0105069153797405
0.0186387556298114
0.0146103720888766
0.0101391747546744
0.0138046914705091
0.00265034548860697
0.0290783497828142
0.0211556021113915
0.00714710984236678
0.0142750990566368
0.0080039246127834
0.0101787493667778
0.00913283472230531
0.010359437811068
0.00547700092090866
0.0183110096408664
0.00879428043612916
0.0155593524853417
0.00940433830910169
0.0115809223500598
0.0102255438211874
0.011164676540182
0.00685481768339027
0.00865672088973486
0.00918272348309033
0.00823324271346667
0.00701284311842365
0.00776760151278229
0.00866447590656422
0.00855861648789549
0.00828767761209379
0.0168657690201978
0.0087909086073938
0.00998105640065526
0.0105492081437597
0.00921148920624548
0.00839000513170027
0.0299763814566393
0.00593374160886342
0.011518202735836
0.00907178991991547
0.0108785942954115
0.00858275850187854
0.0100476864432716
0.00942032855430202
0.00995831079946813
0.00742009686313566
0.0110162049431184
0.00921679845326073
0.00664852331867375
0.00607690697532618
0.0106468194866061
0.00784118422660752
0.00735650475463
0.011186341460078
0.00769333046287147
0.0100522725889834
0.00804596037330903
0.0214179761921955
0.0277696608294374
0.0158150526210144
0.0215671704985728
0.00969728031672613
0.0118638874682199
0.00723986257010828
0.0118211206178873
0.00605775473002597
0.0136552775529837
0.00750764475282125
0.0106722961215936
0.00793465612865172
0.0108989704605877
0.00540802014634596
0.0119406440182718
0.00525120247975044
0.0121046261015496
0.0067972128493296
0.0129413926223627
0.00735792917970682
0.012668792665605
0.00161804775598575
0.0136512203471838
0.0129311332144924
0.0148248695350775
0.00111033320790659
0.0248645790582163
0.0364843599098315
0.0103137264447733
0.0179736283517227
0.00764475488963426
0.0105215620186995
0.00725245088630348
0.00908057402758984
0.0154234299676337
0.0103948373924508
0.00786811946942593
0.0113755574414986
0.00950274501329668
0.00896465210392803
0.00511483620660355
0.0150838097810247
0.0381680529436921
0.0184553308950984
0.0132727616809907
0.0061898279081313
0.0091312760272831
0.037323454221612
0.0121546613347938
0.0100502768097099
0.0126227052562398
0.00968213847188531
0.00936551894827621
0.00797479159962321
0.0108507658152176
0.0133139286705176
0.0122420052721985
0.00784295898154017
0.0115864362707678
0.00586725201725201
0.0119991922495897
0.00831408888351378
0.0153716569686832
0.0190172563409833
0.0111977376021059
0.0127161831260409
0.0136307234599645
0.00751645362021976
0.0111228131846092
0.0103066150310065
0.00983288297131232
0.0114480686116885
0.0220370191338409
0.0103267294560943
0.019693813364575
0.0227530258744979
0.00960328709532483
0.0106767718765009
0.0160443037865064
0.0176841054592176
0.00809114425687844
0.00546063816280648
0.0406760077721088
0.0184543980087432
0.0319226381379343
0.0111147962680379
0.0142793624067263
0.00795232709804896
0.0123429848556051
0.00174443938044799
0.022990445654729
0.0124211420616704
0.0084208127243801
0.00831290171713636
0.0119967141139282
0.0234628580935526
0.0131320839577108
0.0105209279065367
0.00955100183501347
0.00812661121814885
0.0207060750321137
0.0202840508016203
-0.000468179746462778
0.0336590357221411
0.0305686052373603
0.0269745329812214
0.020184328424655
0.00449328585884507
0.0387673285544148
0.0170022908448519
0.0136014066334232
0.0113057287526714
0.0102524332032609
0.00724879298658307
0.00563420196697172
0.0410700679129877
0.0195450838449427
0.00788018231611331
0.0181730247265954
0.00843227304299405
0.0329107628040284
0.0255136685163256
0.0123759545996561
0.0112329098403079
0.0148683300860085
0.000141476696871243
0.0359267779041579
0.0345363620742521
0.0142575850218278
0.0395926394228871
0.0220548023591989
0.0300636965177917
0.0184378771958584
0.0154739683113161
0.0205319208957995
0.0301048335890183
0.0157769790736704
0.00455716690112561
0.0185545972798376
0.0408897031237811
0.0110913714242358
0.0169498165229465
0.0137018686897824
0.00374308640288824
0.031866731631445
0.0700987384708191
0.040023077046649
0.0203710078591164
0.0147474178461821
0.0351326219684252
0.0193772610929976
0.0137578832636611
0.0161507142530263
0.0120128847351555
0.0118381716760395
0.0117760692517206
0.0232623408912664
0.0161398514174218
0.0170921513681826
0.0164124792878997
0.0085181668887466
0.0332636401723694
0.0543318088759679
0.0527921306514204
0.0217708836510481
0.0385336962009385
0.0366324594926093
0.0252337385766714
0.0222966389623372
0.0169400322327043
0.0229751912650955
0.0193796471802894
0.0177306345480429
0.0151976688297367
0.0327511641520984
0.0304378828854795
0.0301028272324502
0.0457216426623371
0.020631532218125
0.0200955913374757
0.00970113760085423
0.138811570295857
0.0547338180180674
0.0356716049805334
0.0293822101821163
0.0185517210514172
0.089416317467483
0.043609876281593
0.0241742527020734
0.024996814905864
0.0228868393472697
0.0241412742628843
0.0334790804169692
0.034521061174936
0.0400413460014615
0.0328158278331987
0.0196781479087894
0.0292626899541372
0.0944745527337795
0.0793293670945891
0.0583684906096313
0.036722896497975
0.0494372037228455
0.0500523423503343
0.0347672154738853
0.0380004748321166
0.0321037250692299
0.0304779632602702
0.0807896565280878
0.0464206871859722
0.0409508147383946
0.0370397763001344
0.0560286664860351
0.0367353129692255
0.0729363793099767
0.0800059467872979
0.0494247867909774
0.0453451649770007
0.0433376810429813
0.0445546554663905
0.0397497297116807
0.0683307963685466
0.0627379874071074
0.0509946759383365
0.0517246359889595
0.0508846910851324
0.0504586334630763
0.049744527305481
0.053244040057818
0.0491654753039022
0.062715675763958
0.0630789844607143
0.148293816289798
0.0850462493815071
0.0567782899882652
0.0610835329455106
0.0531956022252962
0.0760123030971965
0.0655233399369936
0.0810936213785545
0.0868261256100607
0.0532777538861089
0.0545492467768729
0.0557272104242837
0.0555404713597734
0.0519143201165726
0.0556663101332983
0.0459389632844666
0.0640911219364018
0.056464667705807
0.0582561920015476
0.115565872631784
0.0662073175800091
0.0546264972153444
0.0537665496189095
0.0496542565968031
0.0492005548775883
0.0459100333196949
0.0505070094553011
0.0654418277767604
0.0511472348449196
0.0508721779409182
0.0440158551063635
0.0602564487483111
0.074572898640931
0.051169996180417
0.0542918074931008
0.0479796237213198
0.0524817188480274
0.0412590182480462
0.0390991899450694
0.0936838636393689
0.0586033901058077
0.0479455510870633
0.0521135244881813
0.048189245375776
0.0518756219496047
0.0449675996782491
0.049772281323374
0.0519132330953036
0.0476893776544953
0.0512251873411156
0.0478307270642708
0.0470270094448084
0.0501731823044341
0.0511141433501119
0.0489795644480191
0.0521944067404704
0.0523200097021176
0.046118253697446
0.0481357147027206
0.0483400636406149
0.0488316209816693
0.0483612843604115
0.0532709307392382
0.0519734424301569
0.0484082549885952
0.050643336159439
0.0507022317638676
0.0471209532536359
0.0486226909726244
0.0473229385882823
0.0484472921672987
0.0462728316309288
0.0465043994167573
0.0446644041769582
0.0455581096633819
0.0455655003050329
0.0443730171908718
0.0476818503268953
0.0499051445007111
0.0448038176266038
0.0466062545565736
0.0391179399493948
0.0742657377670362
0.0742223979980923
0.0472351918909142
0.042324693627519
0.0437920295867304
0.0415690925599501
0.0336595352331892
0.0629537973857122
0.072070381537925
0.0438068562492563
0.0403477750981009
0.0343322322837846
0.0456766736150367
0.0456417258962706
0.040678598208661
0.041809291162272
0.0305551930972111
0.0517323414602409
0.087136286792479
0.0750827613790121
0.118284179555638
0.0637676106204919
0.0345134981187877
0.0471701724239173
0.0686059759730225
0.0411175282556107
0.0323552949690252
0.0367891183003944
0.0508775523489273
0.0477745907115907
0.035389509787177
0.0324813003225062
0.0259668126613427
0.0382101984234484
0.0597355617671091
0.0436482302631544
0.0498243325941475
0.0632336621383042
0.0444565560803243
0.0521786111774911
0.105695333242479
0.0677661255081892
0.037287717961566
0.0382097791632828
0.0333304821797603
0.04067139861922
0.0675905980998587
0.0481324872936062
0.0421478921960385
0.0328075701273844
0.0270134725332626
0.0374883145961143
0.0488227322195625
0.0331030081934189
0.0348286440055095
0.0537282638977054
0.0410376791355972
0.0320667884119939
0.0482644828390798
0.0609746055787839
0.0777647630967904
0.044797385731113
0.0276277883108213
0.0504388984278548
0.0656935829338598
0.0442342382542013
0.0389738540743379
0.0269855981156162
0.0322071438962114
0.0474867443684982
0.0349599068285233
0.0359626654176482
0.0437529076769596
0.0511220215971827
0.0718837274340451
0.0866334626832512
0.0735746962233541
0.0429480549468216
0.02637217389179
0.0266709037642411
0.0325113314609169
0.028007128704023
0.0207253069651587
0.0334213098310073
0.039987817993033
0.0320294771048342
0.0548278127513973
0.040478930344894
0.0279560585236543
0.0279080145637331
0.0235041384982674
0.0349512441799642
0.0606823756989021
0.0685439611706868
0.0414407821391528
0.0309766868609395
0.0428875055819345
0.0385695206467846
0.0314475632816854
0.0346530645638629
0.0310251319751741
0.0321782573967415
0.0400122356353527
0.0400321330898246
0.03396285582842
0.0359905232130117
0.0310247570767905
0.0598517304824355
0.0622559286352428
0.0457399435715756
0.0486074571121247
0.0709158284107139
0.0719732432895748
0.0649050991698321
0.0484429122540203
0.0512447133253762
0.0461018414568547
0.0473005297615231
0.0420079639061497
0.0535849414707085
0.0679288790242053
0.0576640434120278
0.0514660388027083
0.0566719866745341
0.0481266580632304
0.0568764042747678
0.0696264706952137
0.0730956503424039
0.0829125506268565
0.0986180833862767
0.0767663020654027
0.0631288861201577
0.0592427687601965
0.0591527657725697
0.0618162152822426
0.0603072799998116
0.0540878734835527
0.059676229520643
0.076868511284081
0.0666563246372918
0.0575793198514199
0.056904720430007
0.0554171437501964
0.0601782906443652
0.0614059021171903
0.0584476437705449
0.0571504827815048
0.0632261699247033
0.0557685268777878
0.0648508210617219
0.109156882943627
0.0887764027443299
0.0620620026621591
0.069544887509076
0.073275544156493
0.0681513598925769
0.0624148788683809
0.0766288197032368
0.0818703827626551
0.0725812073749311
0.0711515465376952
0.0729397104442634
0.0672817505929809
0.0861098241635476
0.0879635891784945
0.077476694018502
0.0710723718739134
0.0663641997424518
0.0850407034464611
0.110183037152989
0.0953795311867489
0.0850114361873762
0.0850607689775855
0.0726161757785602
0.0776064011572974
0.0744395427274656
0.0764196330211107
0.074096224263443
0.0775110564184161
0.0746884758294085
0.0713728878223831
0.072416554082731
0.06812961756378
0.0729881843413843
0.0833962118725706
0.0773992084958861
0.0733077941322002
0.0763320019868203
0.0701850987408542
0.0714948258065946
0.0839182026165496
0.0847245678312077
0.0822439006916488
0.0748816000911974
0.080065129289966
0.0908979337381563
0.0873536302638214
0.0725016458394168
0.0686779907142337
0.0690317589305161
0.0707251428281808
0.0664363552346102
0.0726229362845737
0.0791863171785421
0.0796110263994423
0.0680656630475295
0.0732743740505458
0.0689460247422454
0.07312394300303
0.069424723704689
0.0725560291663864
0.0712196583049585
0.0781696489390609
0.0781158948564938
0.0715996091167025
0.0724295308776011
0.0805527478855163
0.081794697890818
0.0847374682913251
0.0743693693272725
0.0726704182349066
0.0686466762740947
0.0717568609722509
0.077101323304432
0.0724414170881861
0.0633770608261358
0.0728095584730509
0.0628501669257919
0.0767381041461918
0.0840281733767669
0.0797702818201711
0.0723505198743196
0.0705922761307579
0.0616168177662843
0.0632657882153447
0.0625332264684574
0.0611183089493803
0.0624864548310506
0.0641516802993206
0.0600498114032699
0.0608989769507928
0.0599799632022666
0.0591466780589001
0.0577754470185632
0.0592150014799844
0.0578361854577402
0.0586464667480819
0.0577078385312309
0.0583992217300144
0.055175673387
0.0573283219283228
0.054854893505493
0.0587444152029729
0.0637137248185825
0.0702421428821195
0.0652303504292207
0.0598335880540555
0.065003783277992
0.059599158272067
0.0577953804414426
0.0569677930045177
0.0585962624195936
0.054573312038911
0.0545388731677352
0.0548192871912483
0.0559776044302665
0.0543505684033561
0.0559030086208233
0.0562818854584545
0.0552781033478314
0.053267212090824
0.055712855402601
0.0565175426606859
0.0573614308479375
0.0571322109570297
0.0570503607650408
0.0612682639514479
0.0569308225439707
0.0593330941375087
0.0579208737247114
0.0575852752049508
0.059170648938629
0.0601116961801113
0.058647938215795
0.0563759835781467
0.054356542652215
0.0539549058078716
0.0545004406704536
0.0555136236641372
0.0547224349812497
0.0549119946675357
0.0555909983979065
0.0525728596452272
0.053869332262448
0.0537417859995874
0.051338794089639
0.0527308927680852
0.051465069027241
0.0498750284220835
0.0509559874940245
0.0522668944012738
0.0504551869695308
0.0494924442547052
0.0498223288055021
0.047828570252837
0.0453534880508994
0.0482572432506415
0.0462338214041582
0.0472021582000977
0.0479455270409197
0.0487037858322369
0.0469544897224978
0.0482252008637874
0.0461330501516934
0.043400172597262
0.0442706016707954
0.0458168885423512
0.0431988255323445
0.0449669642934888
0.0437935513036823
0.0456571090782987
0.0452851964842024
0.0464141552314271
0.0455055684807081
0.0462928102179421
0.0449281640828097
0.0476358875090897
0.0486269270966387
0.0502472834217866
0.0488476847046064
0.0508655096714985
0.0494382077941685
0.0484977047273802
0.0497269257920466
0.0501737728308302
0.0500665126716044
0.0516535750177778
0.0485693806779687
0.0510517102164552
0.0531478970974268
0.0522630907587017
0.0499836058003734
0.0491228477439106
0.0500026176541593
0.0502831568708778
0.0511395516499252
0.0504932016755887
0.0502532630547654
0.0506132021049048
0.0494908370142017
0.0501621030043833
0.0493788113435242
0.0502841817678848
0.0508167478804214
0.0503745519811326
0.0490811743354952
0.0493809010929715
0.0499150729677424
0.0488355629121561
0.0490903272895162
0.0494884176058605
0.0467824393777754
0.047357042280535
0.0476824386644348
0.0476117102157629
0.0475152907380526
0.0471927806882242
0.0475880933379193
0.0474835032062191
0.0460010590919454
0.0480499962760276
0.0457690462391321
0.0458736198454461
0.0462203399816733
0.0467018238371885
0.0457701396345814
0.0464577099346649
0.0467977407195865
0.0458596376050712
0.0441902213724311
0.0458057873046597
0.0451494705236599
0.0442339930180309
0.0455784632681389
0.0453960312942777
0.0444548845195181
0.0430845930471713
0.0436881455898473
0.0426414934146086
0.0414218478798279
0.0432302998598605
0.0437921238264193
0.0424756421718534
0.0424146340063235
0.0420776904028126
0.0404495346838569
0.0423816168053993
0.0415323756009982
0.0404572918776599
0.0407020242615905
0.0417468019118407
0.041704573485369
0.0417167833715701
0.0411253711011527
0.0431179194855609
0.043682368185402
0.0422158607022962
0.0422457151541597
0.0420150884800458
0.0414111982530312
0.0413454082279426
0.0400389071658988
0.0420519645117816
0.0404879275567152
0.0387980143989161
0.0404053166764962
0.0403216152359966
0.0400620721470912
0.0412074819369969
0.0398729871304086
0.0374784498167248
0.0397904439899259
0.0423652794791989
0.0423034223313307
0.0450762684402655
0.0476990072135246
0.0481111162112411
0.0482695104920966
0.0526910673675547
0.054046837273001
0.056539967765651
0.0595116019997735
0.0638721982228477
0.0678377890909195
0.0710976245943207
0.0719778068512434
0.0748457095280051
0.0763095744287642
0.0805410559938694
0.0846212609557261
0.0853621958571541
0.0874981811627
0.0932303629439981
0.0949484182806033
0.0976696125329588
0.100489344771305
0.104428347829611
0.106510041830931
0.108732922304857
0.109780583458889
0.11225477704501
0.113992806255037
0.115677898183348
0.118084582137086
0.116953421414878
0.117148439669453
0.116838454651306
0.117165421944146
0.116648147191169
0.116006216014381
0.117055220106506
0.115265919418371
0.116118988358557
0.116452199794742
0.117655196068685
0.116426032170084
0.115185095492303
0.115739075488604
0.11752879364262
0.116477730714045
0.11650403255422
0.117778194016863
0.116847820122109
0.118067827325085
0.121102783426431
0.120494589980465
0.122413705602555
0.124577050701042
0.123791118843752
0.126273065520586
0.128630421014265
0.1307617347769
0.13345888923848
0.133551063583978
0.136479132081597
0.137227088174255
0.139826836721104
0.144442315497034
0.145031870872728
0.145251421521664
0.148119467447701
0.149236130041239
0.149169498159662
0.148945935406502
0.151445519858767
0.151083649515317
0.150018397117373
0.153414336682092
0.15282389243947
0.150593930933876
0.149068886450063
0.149660691927774
0.15158388845379
0.151112085872437
0.152523369616753
0.151471665166483
0.151896915243281
0.155760833157764
0.159493094453783
0.161680010195602
0.163019950128906
0.167125537366972
0.16986242011506
0.171792065445501
0.175918067843515
0.179283473843106
0.183664570529169
0.184368065165156
0.188749985920704
0.192158526212531
0.19586845042304
0.197916393323504
0.20352324551101
0.205842419756205
0.208891770617851
0.216218946421174
0.220647166756452
0.223153432121296
0.230919501481247
0.235191518752481
0.238787883877389
0.241581158091861
0.247852993144516
0.249613928547684
0.25318986074242
0.256117036964558
0.257971039912979
0.253753940264722
0.258395399992268
0.260793346077277
0.261294856486153
0.255945601028173
0.255016673602797
0.258487045925013
0.258649669574249
0.252429250939869
0.254477185081699
0.250728947651466
0.246340439637191
0.244176193830338
0.241804442302367
0.241300026347525
0.240300655462503
0.240038094930885
0.239877571393443
0.238254655985178
0.240894222040877
0.238945509373391
0.242207568113138
0.247480104053381
0.246279592294388
0.246544259080473
0.250079544264551
0.254104927126347
0.256771516333286
0.257491585381876
0.261354801133316
0.262731551325984
0.265212383659987
0.265007394267003
0.264017219135027
0.268168488083591
0.269603895983642
0.266715843361616
0.274028822182154
0.275014065808421
0.274832056919679
0.270594934630359
0.273637802329516
0.270837606734029
0.270783162014143
0.270452175879945
0.269852965793054
0.267489613336232
0.26660595817573
0.266873073434023
0.262817368733113
0.261505943312713
0.258953475069583
0.254146189364353
0.252832976214507
0.251779508550682
0.251179396710461
0.243911715758642
0.235898127385441
0.232854051849705
0.226626063539451
0.218924793206466
0.219041584857972
0.208591787071305
0.202800129151274
0.195162462676077
0.190504521191295
0.175456777295781
0.170021238717591
0.162511900180196
0.146200849477659
0.142394906305915
0.131903743717601
0.12199394426079
0.113246161576159
0.104791986351375
0.098057371708484
0.0946958516075595
0.0909987598728532
0.0839022869348641
0.0806837712773166
0.0808585185346595
0.0788777598233907
0.0753473463515827
0.0747284380725975
0.0714009393354534
0.0656053226152271
0.0655234086441987
0.0619190487197373
0.0600245707357579
0.0584074474242833
0.0518176680626947
0.0521484573902405
0.0488987875280005
0.045231598964932
0.0453060943262769
0.040914465406079
0.0372063930698926
0.0358348449826666
0.0321106063683694
0.026706145828675
0.024769649379996
0.0233439872268579
0.0205501667113525
0.0158234731080157
0.0145131814300186
0.0118514258688301
0.0099624037851727
0.0119478362804306
0.00480292891309692
0.00444072079226285
0.00855358837022558
0.00466615272715398
0.00241276493734357
0.00345799526504054
0.00274034852860682
0.00369857849833665
9.37544444292308E-05
0.00171271404186307
0.000843500585778598
0.000843787169952723
0.00121342906823654
0.0035571889614675
0.00169557481123579
0.00247440215761015
0.00321395391823648
0.00391819195552233
3.31368244706108E-05
0.00298354310328728
0.00120470991051218
0.00444268232653611
0.00282594997678803
0.00234265249808438
0.00455763108458373
0.00476172905264636
0.00364599581433034
0.00665934549647596
0.00536500696339049
0.00745956820389182
0.0100213909800318
0.00940119056241663
0.00659591531753001
0.00770147217307222
0.00543626685672942
0.00645195248839385
0.00827378821757715
0.00820036327240658
0.00754904379115407
0.00456175357272677
0.00634538070118794
0.0079564078883409
0.00520384431932694
0.00240636223465675
0.00484520503151682
0.00843083135570231
0.00699539690740582
0.0037170983008194
0.00533361668819218
0.00987066870601178
0.00747443965950046
0.00723995370674192
0.00543326404857112
0.00895238376653595
0.00690131430906435
0.00926986185363497
0.00720823684744954
0.00851287003927905
0.0102284866983938
0.0127707751611165
0.0112974515786912
0.00906435019601313
0.0104665281888782
0.0109465670267264
0.0100372370484153
0.0148149840779036
0.00902748389603486
0.0129590688310037
0.01217273340348
0.012001042956077
0.013572610854996
0.0152077180455862
0.0137341280318744
0.0170783411698275
0.0158924861646269
0.0170254364743546
0.0176367944394105
0.0170914284958804
0.01303714011975
0.0189863941055456
0.0183598287127769
0.0154257334253157
0.0201881243955953
0.0204767889097694
0.027346119553489
0.0247525422188558
0.0235896377793076
0.0279149869820962
0.024807568286056
0.0252275818484435
0.0271642182886435
0.0213205540782489
0.0247384741504114
0.0262517184538502
0.0215346787563513
0.0221310971747952
0.0170571226143655
0.017034733907615
0.0174217122132231
0.0164386238650039
0.0187491388438059
0.0143382670589821
0.015780114566948
0.0236106122043106
0.0194540324028639
0.0177783905964313
0.0173630986079958
0.0217702638365829
0.0208394872851829
0.020221100550938
0.0151983924637083
0.0190155471629902
0.0134476086157558
0.0158171225641143
0.0119219489690865
0.0113181876156499
0.0217606238233433
0.02043252953772
0.0125840749755772
0.014434473091563
0.0118156133555569
0.0199593722744298
0.0115284235532385
0.00981642112935645
0.012450397203635
0.0102006726545121
0.0112873738189012
0.0165108711181393
0.0188128204277946
0.00982395436891551
0.00885745790921465
0.0124008744747639
0.0128404498527525
0.00932033750655549
0.0149855478942206
0.00735064268327998
-0.000225977528633517
0.0157214254298827
0.0136820938018695
0.00795606413396237
0.00746596566908363
0.013163775247945
0.00252136730616334
0.00729442652275935
0.00716902453036659
0.0109033871269095
0.00752529250777527
0.00537865189856554
0.0114672379385879
0.0121202027182711
-0.000666550959152243
0.0103930824582044
0.0132386176089362
-0.000389706626664719
0.0019793827052421
0.0117371498268189
0.00521638746540219
0.00112546524496988
0.0154901927419605
0.00777192502531367
0.00319519137162968
-0.000584860336422527
0.00742649571150715
0.00997842991698404
0.00341545526679375
0.010783462679253
0.00990160874036587
0.00829336407451963
0.0103457837044955
0.00936944026661067
0.0127286017908266
0.00690435375056617
0.0128078608905135
0.0162825528693039
0.0145233234175135
0.00413391708941707
0.0120603435140288
0.0133044486728019
0.0136749305669224
0.0106829207513119
0.0177150830224023
0.00793376556633635
0.0176278192969738
0.022941688435532
0.0054981567198
0.0110866086842365
0.0253265389804635
0.0218863212600339
0.0160400315111062
0.0213118690737768
0.0173571081109063
0.0208418409457869
0.0324439282412684
0.0318425574962197
0.0231064581001922
0.0242821587597859
0.0256388603563258
0.0332308565466106
0.0291729581605583
0.031714106202539
0.0280697355810904
0.0327196982453511
0.0273866048577573
0.0368455652064007
0.0317806261180919
0.0272175102773057
0.0364815301375833
0.0411965327603068
0.0263713310973055
0.0362895193139036
0.0241759223856382
0.0161972578372984
0.0155557166314247
0.0267435417727572
0.0218715992416447
0.0229148680256706
0.0172646501025227
0.027758860539978
0.0293404864427273
0.0148734704661882
0.0234509604630198
0.0278279716716691
0.0131882726426517
0.0241336117253136
0.0199128804816154
0.0319101040705474
0.0163479225526417
0.0248564964438372
0.0284814702622827
0.0235608030794971
0.020219452275786
0.0226097167655894
0.0323313637677079
0.0153359650583121
0.0249341930018698
0.0200112579233284
-0.00120357946207511
0.0219762026034907
0.0199128537461976
0.0242020723779707
0.0174075153389863
0.0124911386007655
0.0145736305473128
0.0167476718084917
0.017081401521256
0.030283180060534
0.0276587993773049
0.0149758177145641
0.0184203697546023
0.0186654991175941
0.0207476920749044
0.04275041222281
0.0217699845179192
0.0310967700677941
0.0247727696415016
0.0195639639568954
0.0234049216930102
0.0139934496392318
0.0159354195515556
0.0258163167467396
0.0222432399207842
0.0137512766157242
0.0289008124784332
0.0173663404603384
0.00478012308052808
0.0240175227194273
0.00700792959391595
0.0251989496749868
-0.001597485198335
0.00953506531450404
0.0396645230986599
0.0293938004369104
0.0328991589981632
0.0168338252755804
0.0127007227046351
0.0224647261983478
0.028739225030034
0.0221442809155064
0.0210749783103744
0.0484512499328232
0.034680212833369
0.0567412756302505
0.0152368916916165
0.00724345817235323
0.0459403929456366
0.0520735439097964
0.00919979974265521
0.0573473898676383
0.0176833297726952
0.00530923491801733
0.0207755216863992
0.0345332391412848
0.0288017464995376
0.0202004282392304
0.0277527261056224
0.0244450442298497
0.0296744871829914
0.00672612653294717
0.0185501646521899
0.0345199676632182
0.0245565281855238
0.0417548725884205
0.0255701839301055
0.0399104394556655
0.0163976828408132
0.073788581667189
-0.00460958378427749
0.082398343035873
0.0232943981841321
0.0391956413377005
0.0245392170085741
0.0558408387089634
0.0432132730632575
0.0103458441949554
-0.0116534703250091
0.0125647043827029
0.0661018951065717
0.000800032892056535
0.0574758708522079
0.0140133955483653
0.048956979311164
-0.00940284797313123
0.0229889416201759
0.0353198152311725
-0.0335578097914185
0.0427003116920712
-0.0317428360050895
0.0336302095163245
-0.0602573130680003
0.0323798968855207
-0.38452578158149
-0.09149711783547
0.125561870740193
-0.0381087224158198
0.0836330352460653
-0.007000486888993
-0.0223552169762107
-0.0356345078036031
0.0136260821368007
0.028469244812039
0.0269759335167253
-0.0331665296934636
0.000444024389386592
-0.0228205205446251
-0.0947834986184606
-0.0592435884357087
0.0785048070876223
0.00129364304673201
-0.2068677134202
0.0895148291282111
