3596
4000.36533379555
650.420452594757
1
2
2
0.04879679236475
0.0396433577085211
0.0458697873149783
0.0372047069430421
0.0448587076234516
0.0356023824289661
0.0442429003492708
0.0384770431483205
0.041872298492344
0.0378338164173776
0.0387174748379616
0.0332282667226281
0.0451574687618869
0.0312032161858449
0.0404700780239272
0.0410988757848844
0.0458477555209788
0.0375706392766163
0.0401612573496031
0.0400313012369251
0.042372476678327
0.0377192537322729
0.0458289229427905
0.0433807951141711
0.0439146773563047
0.0461869487530645
0.05055186710738
0.0371436064134216
0.040655180438182
0.0388789586489276
0.0427125390129999
0.0366095060090363
0.0469032533806018
0.0361912172778638
0.0446582689698855
0.0387377200398955
0.046378362096272
0.0334903513279024
0.0386130694956484
0.0427153850072109
0.0405946459078884
0.0347978411643653
0.0527453901910348
0.039133823026535
0.0416139011168241
0.0405650966355264
0.0507953918707143
0.0377268059646377
0.0364383283230356
0.0422518764033158
0.0469130950263479
0.0434717863139096
0.0455498721269593
0.0424895478143053
0.0473898405619064
0.0551935779021865
0.0521216112804369
0.0347493770330871
0.0474238569957895
0.0391134219507192
0.0535351545604047
0.0544949987181443
0.0485703378837345
0.0354932872693099
0.0446116880791571
0.0413635127700875
0.0441770062818111
0.0393529711178158
0.0507051763234778
0.0344332483842403
0.0468435779946922
0.0361484719937954
0.0622119509423725
0.0464319206939396
0.0568212550209134
0.0364207472575388
0.0436423504842372
0.040623641923499
0.0398744604485031
0.0329950546015207
0.065526686618503
0.0433089051365936
0.0453022800946053
0.0317241812706552
0.0453701724486377
0.0456870201091092
0.0449890071935282
0.0281067367503194
0.0696443532184384
0.0465231142989633
0.043563423608002
0.0250357776027437
0.0418353916582715
0.0279243303653915
0.0459793661979631
0.0285318533153075
0.042499514517071
0.0293692296840131
0.0400723862271289
0.0329133891671116
0.0484009249118275
0.0398109511231702
0.0710197533874971
0.0462281968812046
0.0665223564000826
0.0659915467673669
0.0330245459082143
0.0751637626243257
0.0717857370083989
0.0420537821800091
0.0453489973120309
0.0327838858320231
0.0497265505482873
0.0339111557404857
0.0414186171984935
0.0410566146306168
0.0804880481884974
0.04749616642638
0.050921341527569
0.0307533192536149
0.0416202566660088
0.0321740378719226
0.093648270842541
0.0399990403957337
0.0568658428923069
0.0415243299108468
0.0390549236503521
0.0512129656676501
0.0833722591814517
0.0404212679258157
0.0443715373975429
0.030061869024512
0.0398105570783148
0.0296374691286417
0.0663120197962944
0.0570067341513606
0.0425688388754037
0.0292823287868293
0.0439736282035693
0.0958265560689555
0.058874311254706
0.0317204357781799
0.0342795661074853
0.0346363107087647
0.084755604849591
0.0497146370154123
0.037030612585108
0.0448345665911081
0.0603358915267747
0.0318110466702932
0.0382962767828792
0.0272669426585441
0.0535225716424363
0.0313255522392431
0.0133908842146448
0.0199531279265151
0.12112935521701
0.0490204166847324
0.0982939668593296
0.0614103015983648
0.041778873812711
0.0522985685241293
0.0367858336953032
0.0397991655457592
0.034501622651738
0.0371018177205525
0.0477509421047938
0.0635749792332359
0.0451236927112451
0.0403761563306571
0.0711805118793987
0.0455256099897879
0.0348408638879691
0.079570178193128
0.0724875242703994
0.0215767464205635
0.0774749184806086
0.056497859249556
0.0375133531144626
0.0441235149366136
0.0716684065233674
0.0475633959221159
0.0473422145106108
0.032171634555513
0.0468187920471056
0.0571163934968344
0.0547205994932811
0.0356249531559305
0.0417487378057826
0.0226146028015401
0.0466288001881295
0.0791468927445345
0.0791892408405873
0.0484821762976853
0.042353168956584
0.0179567367127135
0.046590072815464
0.0823775890546521
0.044813101702142
0.0384049365460801
0.0343664522577634
0.0307346601426423
0.0393336618037168
0.0324809039160104
0.0316250263180676
0.0197127179677788
0.0648089393145596
0.0647619632596802
0.0363688666746383
0.0361901943726248
0.0294800288238342
0.0357501747123123
0.0685828149490078
0.0814518027154912
0.0424501842368154
0.0468091134192195
0.035475410673735
0.0521538312645402
0.0676011208011707
0.0458163540088915
0.0369727491883738
0.0380442424690397
0.0358203468879287
0.0358194159694344
0.0392320446119677
0.0321354172533616
0.0378375551309538
0.0377002697129006
0.0377617691892725
0.0359159051818976
0.0454053155730164
0.0440904586422266
0.0379209869492473
0.0324611213799304
0.037080606117514
0.0357217814474557
0.0617362567354915
0.0423789941027594
0.0443421011885255
0.0375872515977868
0.0355751938857105
0.0369891744425564
0.0397163329157102
0.0441515108488715
0.0307242734935113
0.0268100951432714
0.0545157948068631
0.0611053565919771
0.0344867900840766
0.039053929114763
0.0406244910964149
0.0627635351536706
0.0339601080597823
0.0424697122945899
0.0352395739995389
0.0296109045914413
0.0247395644109443
0.0619727912029543
0.0478302807084312
0.0400231294160658
0.0453856406657869
0.0505145932584898
0.0359053923482147
0.0267392346534445
0.0250421525486689
0.0828237652170133
0.0630489836462459
0.0195910836593233
0.0892200263410737
0.0717081114219226
0.045105259239935
0.0392340837942532
-0.0101593647186467
0.098152226808787
0.103928356566291
0.047021673808391
0.0516788461621856
0.044676347699987
0.0448849035379047
0.0389525610407906
0.045596441261223
0.0320895544890142
0.0757517305825887
0.0964963989636591
0.0859991865839494
0.0424607598549024
0.0490159007853814
0.0800332860134006
0.0397653686398695
0.0473842866574408
0.0353175151198489
0.0409530499365637
0.0471882721686608
0.0598678067425386
0.0522459778499974
0.045032396503129
0.038385904948714
0.0565589360703265
0.056537173084293
0.0406711619148457
0.0477906066233512
0.0509287368200034
0.0422940145548948
0.036049552821263
0.0423959504831959
0.0419717051910912
0.0352326310080737
0.0173526908527286
0.0790113366485001
0.0612495497289623
0.0409730861917341
0.0626392206228873
0.0458866438926576
0.0388240845064006
0.0408918903080315
0.0340665853495613
0.0383471039297511
0.0355257461136348
0.032359345751256
0.0570603459594468
0.0595538427654479
0.0280374672670964
0.0393765552316494
0.02914740547022
0.0413839590519622
0.0378838369440953
0.0345567695509791
0.0334005210768262
0.0315930716045075
0.0280145405038953
0.0513644851706765
0.0554880534058287
0.0290173626002749
0.0507893757636732
0.0940926315675821
0.040081888744364
0.0414964442148401
0.0305422398116252
0.0466017153377597
0.0431450158364838
0.0365549681494503
0.0367259354754171
0.0397090123257032
0.050332541390076
0.0536769382385139
0.0296507555715387
0.0404370911437996
0.102719994563161
0.105115466077106
0.0653923792250225
0.0494974168823375
0.0313816445110159
0.0408554870275417
0.083632072285812
0.0508688588064887
0.0681757864936493
0.0502084138423674
0.0473557360022487
0.0484469751056085
0.0434223142195569
0.0440448723631001
0.0365098680477241
0.046498141354215
0.0330699139586349
0.0529516317980574
0.0424165491885234
0.0420450882569151
0.0383912672248168
0.0798344377748694
0.0669011152510393
0.048703088785257
0.0449711565960978
0.0408665647489868
0.0446725810249992
0.0927425860754919
0.0753983052288738
0.0915140989726533
0.0558816211819043
0.0996800032687081
0.0669802256100366
0.0517081216752391
0.0422497684753166
0.0443117046544742
0.0529412559558113
0.0505520341832749
0.0506467596870242
0.0546251017500665
0.0589515093637164
0.0600656957456767
0.0543989799008063
0.0554029429710362
0.045708847958353
0.065019597619872
0.0765597249114801
0.0565861553232394
0.0543668617452207
0.0361641784930081
0.0987299949549417
0.113945278562267
0.0818741234748652
0.0599592963461901
0.0674309711474324
0.0595164498825107
0.0662631009882015
0.0585770148559915
0.0648704036729869
0.0666541419490856
0.078914500679467
0.0941000613816892
0.0786885101443016
0.0830123231611199
0.0572456218616395
0.0821187012224509
0.0816444284683148
0.0755330709988485
0.10171716552874
0.0914383925363266
0.0610087324449235
0.0787921308304565
0.102572827595635
0.0883812555599753
0.10321916453829
0.0848658540745022
0.0729102402366571
0.076356186968703
0.0797100242482244
0.0823189667766767
0.0782637631811721
0.0927558965510585
0.0862450094130882
0.0898537787643512
0.0802697074218294
0.0944338151389871
0.108798142571007
0.0989048111773766
0.0904845061633286
0.102891993932019
0.0864138362004185
0.0948264634704317
0.097872527820695
0.0996788313331998
0.126380900176087
0.11029455797887
0.122842899808527
0.101500822539367
0.0962216320137373
0.101980376888555
0.0991450938777197
0.0993816001938362
0.103779880869292
0.109262647656079
0.109015288824851
0.0988661328783262
0.107687764277491
0.111141599020312
0.0960146557354149
0.117049787920121
0.110981076162079
0.114652253509649
0.118804653646193
0.11461587546589
0.121506232221264
0.146188746335755
0.150917388911631
0.144961737474514
0.155005880398684
0.138634707138305
0.126281878830073
0.13481220830252
0.136013582063771
0.137215692702591
0.136347905628251
0.141809995824819
0.144083526016628
0.137948355372901
0.13226460028933
0.141502866765082
0.136778928034658
0.139489849334885
0.158818919134469
0.157057398641992
0.143510549305267
0.149390763395158
0.151523592087926
0.158305884999538
0.168564441592435
0.173722248569552
0.169848838587781
0.162144986997687
0.164314102565981
0.162196818914683
0.173168211365411
0.164120548760943
0.161277014533287
0.158292347744149
0.171754129554826
0.180553157705556
0.181337154751814
0.175186228493885
0.174136876990809
0.180846184202988
0.177748934910158
0.188917441945777
0.191008183311552
0.190441183059972
0.193627288483755
0.198254385426279
0.182044433280595
0.190904186403738
0.194508758601863
0.202105422203777
0.194369615730448
0.216973107008504
0.203993558252695
0.198498027929984
0.207560950260101
0.213614695269447
0.211539431082818
0.204672657147606
0.211946489213699
0.201662766237142
0.210116383472667
0.228302977515868
0.226768281800408
0.21725128370135
0.231704691455503
0.230223556325885
0.222746688749819
0.226743932991656
0.232019377262116
0.234793951290847
0.235843976129853
0.239452174291554
0.232634327845267
0.241888827250782
0.239631740970056
0.237582676151667
0.241616119729168
0.248758272601799
0.264346446683632
0.251945107301494
0.259900007917783
0.255742353100705
0.270619064033572
0.255738811931488
0.255345624589038
0.259936841164828
0.266762237199228
0.269167285285381
0.266781014305267
0.276246229844724
0.27025690724945
0.283550496686913
0.290277762689382
0.284536768296042
0.286597044873744
0.276418136065508
0.287647092914925
0.279089217852928
0.293868010786789
0.291475262786362
0.274977212069788
0.273714123623601
0.293269723721806
0.296445588544122
0.303095804775402
0.283255592417444
0.287675348094059
0.299810973412254
0.311153045935327
0.303413773832964
0.305941945891027
0.304122677074534
0.308662254544512
0.306939433502422
0.309832633989136
0.328924989525586
0.312214411432784
0.304899843715849
0.306612920674252
0.325261958089525
0.319571945708436
0.32092625406528
0.336330744886315
0.330890753353738
0.328585406820688
0.316074751029106
0.331393517108027
0.341608613797804
0.327034548101467
0.348824981285661
0.343989222175305
0.33660642691303
0.350964054241533
0.335716053077601
0.344653143985144
0.341092739170668
0.344333296138315
0.35385762920629
0.355645884156698
0.34230594921229
0.345949456507367
0.349454805998441
0.345794069972533
0.353076055702424
0.352146612777616
0.354867941177741
0.367331533233502
0.353168669050034
0.370893880512701
0.351056567294427
0.372791191586404
0.375641778380358
0.379209229971251
0.367314894333378
0.379986947949973
0.396270001034333
0.37942926195884
0.376656127223221
0.377678477455261
0.379540919773651
0.38402735780608
0.372145847055246
0.36909829788293
0.373698357771697
0.393823224297521
0.3529692041224
0.383175481911069
0.384040784036767
0.377080804227722
0.386282059886281
0.374306716930142
0.376327273737893
0.396996705232151
0.394742824772151
0.391150138491747
0.377066604016641
0.395353175574549
0.383209680404309
0.399906890437047
0.390343168952086
0.36959236800003
0.386264916710893
0.402754625997116
0.399155106589404
0.403007953032263
0.399259642705823
0.40107182470698
0.391971507399142
0.411130673428748
0.405456478304948
0.423692540025308
0.395024771107754
0.40029478140028
0.400848245717397
0.419013506511448
0.405873907414569
0.4013950928308
0.411685417004924
0.396775777691292
0.405046058871056
0.415299076575768
0.418178854013213
0.413162839984354
0.399457371634002
0.421611176404154
0.403755962287155
0.422691597088589
0.423929009725646
0.430864010011673
0.42422209135
0.423441332748584
0.412050237369015
0.427509485885572
0.408776702789742
0.407489898884649
0.425408066462755
0.434035598575195
0.410072061079113
0.428585260977832
0.437689620983492
0.423298271445925
0.40325141257745
0.432540712624085
0.427745032623617
0.416885235840388
0.434961003472045
0.431925417312306
0.407077522049686
0.434463819258071
0.416368463024938
0.424567003761945
0.407222261297644
0.430976473694628
0.403444742719845
0.409479227179162
0.404002779213578
0.42556847279352
0.423469171561087
0.414419579883277
0.400139028575782
0.419100877454273
0.423208326861515
0.406987476480743
0.41130338293454
0.439221873733603
0.419242541603454
0.425641595319515
0.426974304071443
0.411801637644459
0.426776388938199
0.415242336916453
0.407532221024284
0.422678159175242
0.417608864311164
0.428169264740936
0.407682969514889
0.424541793835527
0.426127733511447
0.427631610907248
0.414827418040548
0.421205524309078
0.423284446711383
0.419193496991305
0.412807348389493
0.425898639268992
0.408151750766926
0.413070175970451
0.415700258370643
0.420168697537281
0.415431882396142
0.416767349319656
0.409181573883727
0.43010180916233
0.407584496313577
0.409803100320915
0.402338508093462
0.418754085077004
0.40060887322993
0.4160444374124
0.412695794497432
0.418490050128326
0.412453763866764
0.414305570759723
0.401753591981015
0.412139471463988
0.407817463472678
0.417233706536856
0.405548216433935
0.407065463148348
0.384531798958446
0.395329033384524
0.403281734441932
0.400533551393142
0.385213837290947
0.413092734383454
0.401197380650893
0.397043308143975
0.396845860093624
0.4059127163506
0.406352202643486
0.404447292662438
0.392283552508458
0.399899603209204
0.382219985689188
0.397862131240427
0.391697070393976
0.397219385589986
0.393153393989537
0.390501126515764
0.385250085511154
0.39374362622338
0.387540235198166
0.388499319051477
0.379032464019957
0.392525121835248
0.381477755531029
0.38863202072348
0.382400965665368
0.393354830789056
0.379215466162531
0.373520646979982
0.381121099734424
0.374742976094291
0.371996045125767
0.376464096197062
0.377331960396117
0.37439170998264
0.375083103718214
0.387646765763475
0.366511670686573
0.377903653594882
0.36832847383868
0.368055726123823
0.360182963875356
0.370952550856347
0.362751730265811
0.376886636718432
0.361474023102331
0.35772033090087
0.366394829747343
0.35584433097588
0.356707330496429
0.364306663735617
0.344790419880943
0.357715284644595
0.345537896804696
0.35458805377493
0.347019905620518
0.362472737533685
0.344556198285062
0.355213446294337
0.348520441614904
0.355049235305836
0.339882056206122
0.341015803431466
0.328191109390803
0.341020444001241
0.342301308358908
0.343950573311188
0.330781867393002
0.327941644481697
0.336782965491791
0.336344174036295
0.328736541707618
0.331816310925795
0.31744261028417
0.331326806303538
0.329357048498882
0.326971669955646
0.320140820897211
0.3254707275641
0.31916593522166
0.312994366000689
0.319655155794598
0.320979259325127
0.311125779150209
0.321607132237357
0.311625134399067
0.312640703703366
0.308106863178792
0.311805214830762
0.297951173942948
0.308671648843362
0.294984201700781
0.310656505749546
0.301752944880581
0.303594724083854
0.298575136926152
0.300401191700077
0.288998396568194
0.294623861954653
0.285514353938991
0.289431075779064
0.290705757370716
0.294163927954391
0.290437614033157
0.295127984159636
0.285392649511122
0.296891667868497
0.274147756415452
0.281208528330491
0.286877023654792
0.285843699561136
0.27255318644869
0.27576351751356
0.278733602077546
0.272156502246019
0.274548282407179
0.271726765873897
0.259570697820443
0.266212238351279
0.259260860383685
0.260963499772437
0.2604541372274
0.259406797624451
0.258640129813231
0.266112530842742
0.25597879943773
0.260793617105191
0.254561955274678
0.253362332110368
0.252545430230247
0.248815376633202
0.243951638733072
0.247488072677514
0.240107069955088
0.247866327299141
0.235564074793284
0.245321007151363
0.235894539440248
0.23461519379746
0.22874396350595
0.236545714076358
0.230405027243833
0.226551417811172
0.227247547684642
0.227026905724048
0.224443826297683
0.226577778013619
0.225501097914779
0.224681172010312
0.220569427410517
0.226428757262552
0.224838570475434
0.22313486398053
0.215556767132374
0.215986512474643
0.211035493718719
0.212582446819043
0.204080165803666
0.214883603977865
0.207951891952726
0.207849614816415
0.202708782332645
0.211745647136361
0.197799758891187
0.206838322945317
0.198869452365492
0.200015571611594
0.190361718430221
0.203147114443396
0.193116280992066
0.197400837347739
0.195811446299025
0.193762554060241
0.1884732824494
0.19014707568411
0.188413770993289
0.190411851573344
0.183703249498933
0.184954053921417
0.190608647303925
0.182913438676431
0.179946793520865
0.176262579476571
0.181176828389023
0.181519972517455
0.172615140277877
0.179780068979121
0.169040947457055
0.177161699258145
0.172407835566093
0.168636449910344
0.170710792009652
0.172401465866639
0.165212234396425
0.169380573395817
0.160333475522144
0.164569153944654
0.161330552896464
0.166399742168422
0.158592740430921
0.159358373709384
0.160327101155802
0.158170712564294
0.160798947027998
0.159574544981763
0.153815411879461
0.153305176560771
0.153560455615147
0.15468336016805
0.149246163996896
0.153744022106451
0.149205604102376
0.150084547105642
0.151243118339601
0.146329185694117
0.143895512464646
0.144461378324112
0.14395646337964
0.145372610365606
0.138741832651095
0.1465193983324
0.140849184947494
0.136086044696645
0.139687881134532
0.139672799405787
0.133143414876339
0.138452506243757
0.133540394082002
0.13597919505964
0.129975498573141
0.136364518224712
0.130268876822832
0.134686511588138
0.129402954989544
0.131172861860448
0.12868746891559
0.127731898309127
0.138747760892839
0.133325266408802
0.124076601464216
0.126894635638398
0.124894306965312
0.121644287938549
0.11835429127163
0.126191523789048
0.115745726656981
0.120482297727744
0.119265702438051
0.122893662022387
0.111765598202377
0.113428779021033
0.117155754721185
0.120041670233808
0.111158363403732
0.118935959959229
0.113371759511914
0.114168138589413
0.112346815482909
0.115474494836753
0.114638042792386
0.111405455337529
0.111280929996658
0.109678451571309
0.105397819574553
0.107218073849774
0.104058621141412
0.104827080935701
0.104249202506951
0.110163805945088
0.106124031302109
0.107256982001947
0.101774721826289
0.10671292859084
0.103868415431635
0.104054869136381
0.100820449241178
0.103242863365416
0.0995030612985307
0.103449355556495
0.101724758260582
0.102091522287689
0.0943781355882024
0.0984792400982586
0.0940561965182035
0.0971350458439985
0.0911134547485078
0.0981345017983564
0.0947850142183891
0.0955339246817934
0.0919581217439667
0.0985015892081468
0.0904293572135137
0.0928484927988925
0.0921197644471995
0.0911213817749841
0.0878103332729345
0.0869120148460997
0.0880649203166364
0.0903069978020211
0.0881983874909945
0.092346527423264
0.0884132072689162
0.0878327165571844
0.0856018064750369
0.0879623583065964
0.0826558314211654
0.0871540117954573
0.0856301738420585
0.086234483055121
0.0873830997605838
0.0890829502064096
0.0797290282258861
0.0859179316298412
0.0891800011786132
0.0879375472171037
0.0804740597087247
0.0845285421505557
0.0864781501241946
0.0823587960283688
0.0809690809192116
0.0876142588270784
0.0791785859517667
0.0825640380585066
0.0808833163270212
0.0872640586875453
0.0834006531323911
0.0856867686246544
0.0845394964304286
0.0891313471237525
0.0850412627916987
0.0870034528146854
0.0856405692269244
0.091634313217718
0.0915519963270087
0.0897572493837907
0.0840848191376324
0.0852565228055424
0.0864299985361062
0.0903787866437199
0.0872045625778973
0.0935934522719387
0.0878924241771431
0.0922607985469646
0.0886875125299399
0.0910884360324179
0.0870019794137357
0.093735214155833
0.095919744686691
0.0946837933065689
0.090052907411158
0.0993780531045234
0.0942554911885588
0.0965002527541099
0.0913995981210384
0.0988107580492513
0.0940512080486131
0.0963379837231938
0.101499673706322
0.102708017939203
0.0976722036553066
0.104219206587004
0.0978094845451463
0.101370213330873
0.100162073190874
0.104537565812199
0.101029838456897
0.105146519441316
0.107192714934393
0.111256079763191
0.108362749606321
0.108514419823778
0.108253145681965
0.116391966248961
0.113427231837621
0.112160224555455
0.114068309206486
0.120556387505824
0.124034329540138
0.126017305849889
0.121952979743064
0.123527113674797
0.120744693578777
0.131304960189915
0.124214528494416
0.130452931420423
0.126509713303677
0.135880351144833
0.128274997349609
0.128569803497911
0.132302178684748
0.13237938169459
0.124596151810545
0.133791447953877
0.132176056950747
0.135784657111584
0.13220459597459
0.140430581631232
0.136149457429124
0.134839820575455
0.133615365285249
0.13610139928429
0.130434347809308
0.132756047261413
0.131528724552879
0.133697412911066
0.129027396070612
0.131884241024914
0.126642568534127
0.128732018153616
0.1332891878018
0.129643180575488
0.128482060640853
0.134316764510928
0.12878767436054
0.132257730903955
0.125644243406681
0.129245577177183
0.128240396077119
0.12760417328569
0.125561273010588
0.133382922510975
0.127889858049126
0.129983361514912
0.124409375273763
0.131815668589281
0.125210010759558
0.125435692659536
0.125558012161523
0.132041064334123
0.127166134578641
0.126000394882679
0.117495361273321
0.132076036317129
0.126078673993365
0.126875016529155
0.125020188829295
0.122453309599701
0.120835797288098
0.124484247859741
0.125622244415595
0.132306091537572
0.122488656081997
0.124168971968386
0.124710804894599
0.12730082231625
0.120158937894319
0.12731709268421
0.124908775852489
0.121702882537678
0.118211516650059
0.122992123176579
0.119199189111032
0.123460770816284
0.119472621728958
0.117684749111587
0.112288308985633
0.117053033309683
0.117109636674179
0.115382255642649
0.107178070378617
0.114227595093403
0.108711697883621
0.10976656476342
0.105636218524298
0.106284889468882
0.106284607536825
0.107071363551442
0.10711220309372
0.104604105620947
0.0993559511432789
0.100187385173518
0.101029182020629
0.0984413401619175
0.0959634554621855
0.0972062625939593
0.0910344891603291
0.098026127759278
0.0887939861538048
0.0969067091026228
0.091363346960152
0.0913678611329439
0.0862057124271349
0.0892062565350042
0.0808834132763316
0.0922462760010192
0.0832149660788979
0.0860852954050245
0.0821549435506563
0.0911727909304025
0.0802671674127196
0.0810817579132551
0.0783304794432615
0.0828649363667666
0.078915187782685
0.0821042810882256
0.0767321722922897
0.0834238749638355
0.0791598896339994
0.0803181644176828
0.0725413078891051
0.0794014922854763
0.0754279892864242
0.0822265443215982
0.0758365478676927
0.0766645695134485
0.0724187068883848
0.0803244915534824
0.0777419413891419
0.0822110049908969
0.0698693384409282
0.0724018616716487
0.0693288016555205
0.0769472720088578
0.0714593299871717
0.0724849882066304
0.0699057763884561
0.0687133078888971
0.0656660913715755
0.0736899705418302
0.0707920313670384
0.0662312910783871
0.0670092235720715
0.0722122689585005
0.0659895384770972
0.0679983988668638
0.0648773293257595
0.0686864526018634
0.0651007313096545
0.0679743517122143
0.0653372780895536
0.0692623470234741
0.0637774546724038
0.0705638709893871
0.0626770397766556
0.0652724405670211
0.0609145543985167
0.0646592348539637
0.0619930424398725
0.0621631129133895
0.0632915873159401
0.064756550423952
0.0596135814780788
0.0615969948667031
0.0563013488064415
0.0626465889822163
0.0610678961308755
0.0598911470909248
0.0591972797573272
0.0622627640102334
0.0559164885091278
0.0600865241330624
0.0560994559664904
0.0619851490534651
0.0570053376757352
0.0608205005884792
0.0576323652888561
0.0604749701408795
0.0600664637477541
0.0627870189615304
0.0571449716732734
0.0602503454683204
0.0592954089851665
0.0622880407025463
0.0587716096518529
0.0596300553469621
0.0558683199235843
0.0588817480926483
0.0569097532222384
0.064269313061298
0.0586240770109612
0.062490400791197
0.0581853851550604
0.057311282250276
0.0537675554866785
0.0604941848771507
0.0539884722630642
0.0595358497177916
0.0560537954115427
0.0585343984501335
0.0596391745483364
0.0546552064740216
0.0566715416704525
0.0562596566024091
0.0537800685141663
0.0556421855787265
0.0574188035611111
0.057295373100971
0.0556397377132143
0.056028426045628
0.0529358596266294
0.0551792086454685
0.0516610907371605
0.0519346946321208
0.0540495421373251
0.0541096428420898
0.0502518591018735
0.0541225254131095
0.0503685218249525
0.0535128941390488
0.0497713098195142
0.0502118266632667
0.0490354643679045
0.0548606705457877
0.0544036553566727
0.0535598589332751
0.0496812447347786
0.0563229302907993
0.0527893121234082
0.0547983075545317
0.0497150227788327
0.0528810092131408
0.0511372880184012
0.0528519358566141
0.0526128904891038
0.0535425406226143
0.0519198958293016
0.0548197603632436
0.0477005346612601
0.0522357964100694
0.053179412184162
0.0540141898517814
0.0517463558297793
0.0535512435571068
0.0553664291452289
0.0544727060335296
0.0513881812974239
0.0535782136891629
0.0498659584651723
0.0571817131544208
0.0514431231792715
0.0552549369302276
0.0473410166840837
0.0513134873038296
0.0481671829312197
0.0525927893046355
0.0479236864953645
0.0572471052937733
0.0524034259521126
0.0527806966354396
0.05052669165223
0.0514572722913401
0.0467521607423884
0.0503124843826821
0.0493843009237629
0.051912870044697
0.0512508503719445
0.0471137584775471
0.0459096860534319
0.0441902560556932
0.0467891860764217
0.0493320295255418
0.0467708828926652
0.0459323484074746
0.0427246266423692
0.0496109475755186
0.0436394151461247
0.045873664320685
0.0496328104879192
0.0510770912137248
0.0424097691274578
0.0456517871011139
0.0429831506633646
0.0455597183370934
0.0419624964136522
0.0442295545510304
0.0419452513827043
0.0439616402408155
0.0460015664850602
0.0458376246881151
0.0453629958919362
0.0467803245501354
0.0413888749839496
0.0477542229063022
0.0400158271639234
0.0433677206700603
0.0428293551707614
0.0434543182815647
0.0450999669833618
0.0479493398733144
0.0447534911421033
0.0452959580212067
0.0420665936242351
0.0468633076037859
0.0412469170230661
0.0463291031396207
0.0443693923050795
0.0464275005317202
0.0434363624437955
0.0432144181969987
0.0452249872594631
0.0452536523852559
0.0396357444173014
0.0483785594508936
0.0420588024226861
0.0450933830676973
0.0360435211855953
0.0447693275250549
0.0394723885578668
0.0434600915178841
0.0391042185158172
0.0402531490158362
0.0391263696378171
0.041126475632647
0.0413388493029142
0.0428180766583779
0.0366136868032271
0.0401592104923893
0.0406727150931564
0.0407010713000748
0.0354081433038375
0.0368289587013563
0.03613579429817
0.0393958518726994
0.0358611662912649
0.0365118577375229
0.0351844464556348
0.038605316430996
0.0364115451063511
0.04064185301366
0.0344530321356015
0.0379902446082789
0.0354340420327678
0.0363756380890126
0.0349690026713304
0.0379693111583237
0.0329995765174333
0.0364483952246148
0.0323497588388852
0.0387801123106751
0.0359276516384338
0.0352977672667923
0.032490534828717
0.0336416506016327
0.0316326369177481
0.0365981887566971
0.0347151962158151
0.0350164942988672
0.0333443295946072
0.0393175234719466
0.0334311772388315
0.0361540568517225
0.0333615170777693
0.0390724905405488
0.0342299393577479
0.0385706902954508
0.0325420626243098
0.0363958782751563
0.0326205302882878
0.0347868637049944
0.030727219797946
0.0354187019258919
0.0324400921852083
0.0376224921398386
0.0337499631600727
0.0346806449151486
0.0325900773149566
0.0347103429960203
0.0350295116212789
0.0354258093945966
0.0320047970916415
0.0395124000481586
0.0316776775397721
0.0360805909971328
0.030600375688995
0.0317431584780599
0.0278733273647848
0.0333979875133789
0.0278815087329474
0.032453603042134
0.0309904871346856
0.034687022384354
0.0313679585108802
0.0339511153946266
0.0284517103715272
0.0328667959985503
0.0267638968274015
0.0302209400539845
0.0265696165546241
0.0301631322347134
0.0313664285359359
0.0325473378232842
0.0293529587923276
0.0313755360140771
0.0271375280192502
0.0289375441017902
0.0293223321758935
0.030634443728691
0.0283296002112684
0.0329442720338263
0.0288810568624493
0.033425415178442
0.0299294533855233
0.0306380789349804
0.0268263436366592
0.0342770282183406
0.0297384329496442
0.0331410103864655
0.0306230859448928
0.0306347956072019
0.02573606386781
0.0325002887893333
0.0300592562225629
0.0292899104326425
0.0279190797746929
0.0316033921452374
0.0318980146993516
0.0307752241148693
0.0294048469797752
0.0320573809749607
0.0280926265249627
0.0322224739391721
0.0290589430805185
0.0324456531615911
0.0310283435327628
0.0313971854369098
0.0276723720322168
0.0318790942426965
0.0281011979114325
0.0320062104833339
0.0290658030007727
0.0326635258480973
0.0257199211678751
0.0312469007499178
0.0246639735546984
0.0295836728037064
0.0252002788782348
0.0294478697552504
0.0305254290590808
0.0286998685725593
0.0242550574899258
0.0265764248955105
0.029299311581397
0.0302253664658639
0.0250191485584275
0.0297023621168529
0.0248876880583169
0.0285721897543738
0.0247438435383418
0.0293560995245149
0.0263812197339535
0.0302272201183928
0.0250824112269344
0.0282326931595614
0.0248142413784354
0.0263737931446457
0.0272942431902057
0.0271074013705842
0.0257054933233048
0.0278583923645231
0.0240938709999961
0.0303964727639828
0.023940679596296
0.0270221354955733
0.0235433451816168
0.0274351864955732
0.0259537851310376
0.0253815624286853
0.0255716456586144
0.0274699307279439
0.0263044333261719
0.026722202142138
0.025568886755742
0.0328857015992229
0.0277995199463307
0.0268918398942029
0.0232431413055337
0.0283699885664674
0.0278734367793519
0.0278155069956449
0.0250411557178645
0.0280884504221348
0.023539694279135
0.0288760401744825
0.0234749957631811
0.028283368644133
0.0243243887257069
0.0276674190774068
0.0269983824151757
0.0285339364043345
0.0256702392990126
0.0273977462899818
0.0236931098920707
0.0277886522423423
0.0257514658988374
0.0275222239806344
0.0239123236738054
0.0274645989031958
0.0224164366960503
0.0256879074772447
0.0215836018627571
0.0286501203310535
0.0225858852415737
0.0248325461744569
0.0220602181086315
0.0273335280425715
0.0186144368588454
0.0250295458219287
0.0240105382639782
0.0279087326960128
0.0207870075569357
0.0242698771213996
0.0240840205763268
0.0264052758212463
0.0196108125995625
0.023314273753968
0.0182320019685712
0.0238914545727159
0.0210197161320173
0.0258366738804539
0.0208041302126413
0.0252408261389067
0.023191824382058
0.0228275625471922
0.0234029285859575
0.0271726790568581
0.0218729603378346
0.0255417465125593
0.0210542249597126
0.0235898859127032
0.0221037427380686
0.0260599654530056
0.022204829025871
0.0276265703281818
0.0214026946604185
0.0228698967509341
0.0209763295571432
0.0271581310333353
0.0212599894399309
0.0256467448868451
0.0224349789939364
0.0250897619470054
0.0207481377582048
0.0262198624734703
0.0188443770203142
0.0249335535464575
0.0216583118518607
0.0224293503721375
0.0198645031416807
0.0254005885615295
0.0185539118433446
0.0232417039794801
0.0205893780480627
0.0247741961244116
0.0211626771875624
0.0236830972054977
0.0198807745794248
0.0238397734788418
0.0179633900996322
0.0201664344190949
0.0166024129303053
0.0214055336710178
0.0185898942176323
0.0244904726982496
0.0198301776272259
0.0229011811234045
0.0187185703263972
0.022758800010146
0.0165013029919323
0.0236547181765791
0.0179174561925845
0.0207455921699285
0.0159504648354604
0.0260419131426769
0.0200923300315466
0.0220470508321868
0.0177810174757614
0.024230888912845
0.0170518556959316
0.0204600784430783
0.0168729256539971
0.022191918192704
0.0175522713234271
0.0248201990719947
0.0182339605511267
0.0223892511223137
0.0173183336780729
0.0221964493925826
0.0172918105239258
0.0230186383266214
0.0197468038836128
0.021904352788386
0.015303060502657
0.0217231068078267
0.0158442496583717
0.0254936273311946
0.0166720826906368
0.0240652968714939
0.0135660288243215
0.0223911833823804
0.0137783439094845
0.0252003318559708
0.0163755168569248
0.0212637923138692
0.0118541855466625
0.0173882269223986
0.00838550390333332
0.0143772786559084
0.00648059642968551
0.0186692265611719
0.00855680962364937
0.0187587662248195
0.00320429310832191
0.0131497629030898
0.00969538992273238
0.0180325919140254
0.00172444528642552
0.0198809654875763
0.00183952871865978
0.017546539059753
0.0049061363412571
0.016270107258458
-0.00134337038201703
0.0194728317121085
0.00339264272549217
0.0255210360820833
0.00624952978929474
0.0288225081790367
0.0123488168836196
0.0295633420759626
0.00229937537627092
0.0251974374129863
-0.000367889619673001
0.0217076200520975
-0.0042350251259475
0.0262787186964204
-0.00139383517886265
0.0256123635703697
-0.00544050082739557
0.0265195045956605
-0.00660912263847019
0.0288100275045536
-0.00436104138729212
0.0350682048769733
-0.0102035479651748
0.0321233664314456
-0.0102487812351918
0.031549174979987
-0.00829685597718469
0.0384478142108777
-0.00679068782218969
0.032688557923688
-0.00573620355625431
0.0370505278359166
-0.00190342795483648
0.0322512851805844
0.00504999962575563
0.0271913017084314
0.0133229602751046
0.0187296034564919
0.0207760377366664
0.00909345741219814
0.0341040238050909
-0.0029921730803517
0.0438195409527981
-0.0056121253059894
0.0481343256833248
-0.00785033992981725
0.048793738655796
-0.00556403777655749
0.0393937730831556
0.00131490165712727
0.0298573214084779
0.0136736804689628
0.0225657600553641
0.0180695817389268
0.0159344454161289
0.0188321892987115
0.019790065896386
0.019159710697377
0.0204707393699803
0.0143750483617373
0.0216597841016938
0.0114295084799924
0.0245821226826967
0.013423296744493
0.0214892355411957
0.0153412603342528
0.0183779764019038
0.012669443640648
0.0195589745441818
0.0139497849211976
0.0174709529231596
0.013840888874735
0.0186392400633314
0.0146106315962876
0.018651099152749
0.0150061494471965
0.0171418725019795
0.0161513447319366
0.0174909125111215
0.0130565010490563
0.0169719300902845
0.0164781600747747
0.0197659544598159
0.0163783851080559
0.0186764723172305
0.0154284029981601
0.0174866875715121
0.0125609071161918
0.0156331515781919
0.0162324137613915
0.0183725027092731
0.0178826365114029
0.0195071167882047
0.0156557890989878
0.0175646413958433
0.0140680595662167
0.0182889974042215
0.0159479476230808
0.018034789315906
0.016397635606315
0.0190191952393504
0.0175741486350679
0.019237660508879
0.0155719749219312
0.0172797201623827
0.0154689221479921
0.0198027259699078
0.0153210442755286
0.0194087951246665
0.0184358783486404
0.0196061034544962
0.0145424021897612
0.0189483494230831
0.0156996205181973
0.0168189170700449
0.0130739733082941
0.0185797943080556
0.0163460520695387
0.0179659905854667
0.016699192708622
0.0176422342376622
0.014973800622001
0.0162032798454865
0.0154786296689854
0.0162279599431954
0.0156496147983339
0.0206669972833683
0.0153926156306294
0.0164226998979791
0.0156398579350947
0.0165510740757108
0.0159831604838
0.0154313335517401
0.0143607899958919
0.0168484935060716
0.0152260008608992
0.0170933753135605
0.0147083327272223
0.0173098072343617
0.0162104008315816
0.0148151719738485
0.0158105390222344
0.0154738969003608
0.0168198981257446
0.0185794174891577
0.0141715380982963
0.0168755126157324
0.0175206154116116
0.0166241331405666
0.0146552516127555
0.0190760617915653
0.0169185363660203
0.0161389839425523
0.0178200452622321
0.0182778106892989
0.0168735197955845
0.0184563372507498
0.017403807747991
0.0170306608969737
0.0164533029294643
0.017558647478643
0.0177974754443462
0.0193580182783409
0.0178918293049422
0.0182850431924078
0.0165518117061915
0.0174175768965935
0.0182433760271056
0.0169284525560941
0.0165958204800273
0.018299712689212
0.0168456548230804
0.0167058485104103
0.0174398179806083
0.0169667734883899
0.0164133778884319
0.0185981226824859
0.0173228099705963
0.0193761873388694
0.0156942519809068
0.017780112787528
0.0187637914265697
0.016815162375165
0.0158290150705213
0.0171746548442155
0.0179801165154468
0.0150798998591914
0.0159261109065886
0.0180918561407288
0.0186322443117718
0.0166060527268374
0.0162041948395977
0.0188195935416265
0.016907864846093
0.0156496814347679
0.019486974980715
0.0162449168542359
0.0176606214629559
0.017143156024177
0.0156619662791035
0.0161229799344507
0.0174378008201735
0.0176873262932992
0.0169737063595474
0.0152885726477765
0.0176386395349155
0.0192061566030764
0.0181961999278047
0.0157746642033688
0.0176564290475789
0.0183872460984912
0.0157717029007706
0.0175183681902477
0.019206043299828
0.0176201913132894
0.017937888368127
0.019183527787477
0.0171693435995359
0.0175157409960506
0.0163951583583373
0.017555676177319
0.0181560077344288
0.0179092842572499
0.0178914482525286
0.0187624532989862
0.0166019657034865
0.0175070575270425
0.0182263647602437
0.0165013937146327
0.0173801750631631
0.0164895647496474
0.0161342863404562
0.0159022474371976
0.0163525436275041
0.0183248265531892
0.0187875175322582
0.0182603125353416
0.0179815685887224
0.0163348371890088
0.0169703987744073
0.0171114536435533
0.0166916462215119
0.0160141851786169
0.0156060387550685
0.0183077052283693
0.0172792315523147
0.0153181284730378
0.0152564462153231
0.0174916304699406
0.0163585485794032
0.015582398205161
0.0173294867945919
0.016935741802982
0.0162905708969361
0.0154429605826887
0.0161071506562721
0.015819738492373
0.018244819385176
0.0147859373037935
0.0134683648812928
0.0171448313303593
0.0161346163116927
0.0146738300633945
0.0167691347725283
0.0166176099043359
0.0149287989606108
0.015204639994205
0.0182000776628791
0.0147534810963035
0.0169625022799462
0.0165866031008584
0.0169614283910215
0.0144085861533949
0.016931622029271
0.0155855892417888
0.0165170072764439
0.0166536077686907
0.0159964961457785
0.0156647180882429
0.015582406917113
0.015386097266919
0.0163666957083319
0.0164873593718223
0.0162898706552841
0.0153186541668648
0.0174395568898107
0.016721690241994
0.0161443233398486
0.0144000783969186
0.0165098963967465
0.0149606980327713
0.0137809800715656
0.0160119639135111
0.0164803533167373
0.0140808235912199
0.0173377683342265
0.0163951052111697
0.0141063613100136
0.014764082148403
0.0157769444981304
0.016161533656448
0.0163460018755388
0.0131373559272514
0.0163248278389883
0.0154354671216826
0.0136219014444141
0.0158526234794507
0.0166357680971733
0.0149854827778249
0.0131872964361245
0.0150098883320838
0.0175716664385627
0.0168230894070612
0.0168476513103839
0.015298550306964
0.0175676464850001
0.0161133630783538
0.0172709810325688
0.0130412069909861
0.0140318058357625
0.0148766005869029
0.0149362607191995
0.0141035386818024
0.0171602373412671
0.0168279279235391
0.015715738965207
0.014550162017667
0.0148100595418924
0.0147757917688997
0.0138768923411116
0.0131029546716875
0.0157401972330613
0.0140531224000012
0.0148724246880097
0.0159389339465003
0.0169236572607219
0.0155740920464607
0.0162479305280639
0.0162990807508974
0.0134637999084443
0.0147572053686455
0.0146572627650556
0.0139763282313505
0.0157354106489858
0.0155388863078627
0.0169113338940688
0.0132947250418248
0.0142648016637685
0.016190406671393
0.0150500175448211
0.013040317611051
0.0159362079816294
0.0147707147788025
0.0142293434565733
0.013540399134123
0.0132959996039994
0.0152217193845618
0.0123337198147886
0.0145569152135212
0.0154644196397634
0.0149145197826946
0.0151313684547411
0.0156490811212002
0.0152834751499337
0.0199035388218877
0.0164338771689937
0.0149775271620344
0.0134714534294334
0.0140844946160792
0.0168453749704458
0.0125362522028207
0.0132072366404236
0.0118315789562569
0.0136196258502976
0.0143763871761975
0.0138799262073183
0.0132700944861343
0.0122310212006043
0.0112169949558051
0.0137836384378273
0.0121213836354451
0.0148207156602444
0.0129217789310408
0.0138408115144849
0.0132259341277693
0.0111581913538144
0.0144549144968982
0.0145283256888043
0.0126559567325149
0.0113917960620531
0.0145826017403234
0.025155250468467
0.0133942076057568
0.0175724251630744
0.0146673530134588
0.0175372413965754
0.0127235945346888
0.0143588685567423
0.0116866787654432
0.0146259808634426
0.0134844129384605
0.0155976475674882
0.0124015917494083
0.0128052531997123
0.0133274251431685
0.0157574497048492
0.0117184722231387
0.0133777133888588
0.0128066725009761
0.0128369033068101
0.0128724970389009
0.0148567736435808
0.0122968301431997
0.0152993653392402
0.0106662814607142
0.0138260913006649
0.0100771641342935
0.0213209748002766
0.0175708581357841
0.0154839260576989
0.0111744118579911
0.0132724191510546
0.0113864323759817
0.0141970328365058
0.0133311484561264
0.0113382555198697
0.0123697013983337
0.014026112114154
0.011874375324748
0.0123801823504657
0.0112617861429636
0.0133990816909316
0.0113674993589514
0.0123489460279419
0.0110166913106061
0.0131221530195118
0.0106299888932685
0.0112061018918223
0.0107777674697294
0.0137414223537461
0.0140235093107203
0.0145431483561914
0.0131640365873501
0.0126591933696212
0.0323815629340957
0.0132902594459477
0.0138720952111343
0.0112004993130952
0.0124228359979278
0.0126755592864964
0.0131536913375145
0.0105430221144691
0.0135183322037711
0.0125010413767695
0.011119075662785
0.0112655754476751
0.0129384214095075
0.0130991985046775
0.012080186669509
0.0104380616778
0.0122202026476591
0.0117921565710432
0.0127318041835791
0.012066638821094
0.0147607770813654
0.0226974740202217
0.0179657228843625
0.0141692031359304
0.0173989423870368
0.00474416993238729
0.0304875968046651
0.0214957452485765
0.0121242840861464
0.0166104325658736
0.0112264173037009
0.0129937018862872
0.00999867214088521
0.0138338186375338
0.00881440691297421
0.0217076976985739
0.0120011208829715
0.0178066079743576
0.0108840528513843
0.0117543838218678
0.0122898121453832
0.0122340379872559
0.00978683124318276
0.0140373830322082
0.0106915873030051
0.0110001654735678
0.0110059004900109
0.0103442509032885
0.0119519381974557
0.0120558647477094
0.0133347405403825
0.0195122854883963
0.0099387641664491
0.0122653482397057
0.0127303262212108
0.0113051687538066
0.0142709036676847
0.0337995002457563
0.00856513621247313
0.0151886762306309
0.0106112549942682
0.0146572986401049
0.0108332423728842
0.0143595170747535
0.012297821055153
0.0141074217831595
0.0112440407173533
0.0146710990554951
0.0117689328887187
0.00975793388004488
0.00840739266466254
0.012819603203807
0.00971074067436852
0.0105674705333301
0.0135166289775444
0.0111680575609398
0.0131366829174561
0.0116686985502921
0.0271510459824707
0.0315541507763681
0.0176409768015624
0.0257640344456261
0.0120255929472692
0.01449061218495
0.00907813625289568
0.0154639759555909
0.00930112886954623
0.0177651210264417
0.00907628458328068
0.0133671455342257
0.0106533601157346
0.0153505499354244
0.00811187116258297
0.0147098712222149
0.0090191824793311
0.0162574332305238
0.00878522625909857
0.0160421647190933
0.00815269947943966
0.0148234720344694
0.00417767404689696
0.0183442182079742
0.0152996826371326
0.0177922884746752
0.0020934381460221
0.0316664995282582
0.0413179014325835
0.0125559073381956
0.023007660348556
0.00953089789895045
0.0123648185402943
0.00999147297031576
0.0131844280085376
0.0176749618827081
0.0133627638193038
0.010928315397429
0.0142516420706786
0.0128697972555265
0.0123123806379342
0.00742142254871749
0.0179231357823349
0.0417868069732324
0.0192406362599055
0.016458109219542
0.00946483531565084
0.0118973540273513
0.0456049137110746
0.0146273893161516
0.0141784647180356
0.0154835645469058
0.0126540188013577
0.0116274679051018
0.00985275944769735
0.0140842180406184
0.0163470916282362
0.0153853592561187
0.00929658505698847
0.0154315373910716
0.00931111094866292
0.0139302910769343
0.0117234004778027
0.018060758449609
0.0222918119908782
0.013336590789373
0.016006233604616
0.0159455142431922
0.0107511897756733
0.0158216248135773
0.0128019112904959
0.0133471816005008
0.014181992492132
0.0251261736486049
0.012156538743224
0.0230732694960477
0.0249658237030788
0.0108922802467485
0.0148718558958064
0.0188884657354424
0.0207030472676476
0.0113292153309963
0.00861684899516511
0.0466074502110537
0.0184060290509861
0.0372190380787465
0.0120486506435004
0.0196288664666254
0.0089358649869531
0.0158046610366613
0.00262283497995712
0.0273665432412905
0.0149794555087269
0.0124648689864839
0.0109315542634204
0.016958948432801
0.0249404752865061
0.016308331147126
0.0139415177092977
0.0122473714100573
0.00988431945289125
0.0245512197005527
0.022642932066573
0.00164622497201067
0.0400773979654699
0.0312715096969932
0.0291518554112599
0.0246460858119391
0.00648672110260811
0.0479966858879552
0.0192758901286637
0.0157994883278889
0.0134298509536928
0.0125939151810965
0.00968584473444032
0.00839173957736512
0.0462200529572708
0.0241045298327107
0.0102903762656933
0.0211478426933305
0.00807379676519478
0.0374879002404389
0.0271390113824113
0.0166499544523529
0.0138456206586721
0.0194578456891444
0.00266259591846225
0.0451803932045322
0.0397243426836825
0.0188378795154892
0.0438643591632463
0.0256166480506431
0.032942504213121
0.0225613831400659
0.0200101434012388
0.0235266966428844
0.0344777356507113
0.0167516771411259
0.00664806545147662
0.0213795136113712
0.0434391453693722
0.0123332483898876
0.0226982967744819
0.0160970238804806
0.00729436555809944
0.0328024765382043
0.0777352211198433
0.0457897959255879
0.0264053462290456
0.0173463148142207
0.0433901782076039
0.0246703847070601
0.0183570313387394
0.0204040128239695
0.0169376287191523
0.016971115416191
0.0165585607352029
0.0301712348843264
0.0218714830185342
0.0213414403448211
0.018245892765876
0.0117888197036742
0.0407188790499077
0.0625454354120227
0.059951752789759
0.0283106059290883
0.0495150360238831
0.041325289861184
0.0321975554602442
0.0258161457889762
0.0218433628924345
0.0293540044486256
0.0260929879768763
0.0241174826335111
0.0207954735054741
0.0382063624878532
0.0346933067947502
0.031945663454708
0.0540471939476768
0.0268414512236825
0.028263835203964
0.00796421203763615
0.160785610069267
0.0591452965830675
0.0416034397687943
0.0327872285334906
0.0259505074190397
0.0980819506364524
0.0463113156113731
0.0306904684574751
0.0319968491575912
0.0284520085060816
0.0317459623010849
0.0377804901958664
0.0391931872047294
0.0447393273636063
0.0349241970626043
0.0232420514622718
0.0328955964538993
0.10395579913856
0.088700844399922
0.062892394168364
0.040039928364228
0.0586082976813754
0.0568861228493781
0.0388259777990618
0.0407447369354723
0.0373086318113047
0.0343217843350104
0.091997117938893
0.0483109678774081
0.0485367267173066
0.041206795830443
0.064962967458302
0.0359208840793668
0.0820354560869475
0.0836863730370671
0.052833228683276
0.0510880638692919
0.0480954292368732
0.0505552060500752
0.0434767849121095
0.0749277193274914
0.0673181502382594
0.0568114035059787
0.0580017007218596
0.0559497676040245
0.0559621413949865
0.0536359051867343
0.0569059342516321
0.0495801600680888
0.0737781960459383
0.0668594826793996
0.181559955927441
0.0975840463875711
0.0635773173980289
0.0647068662624076
0.0552012870023436
0.0879362323889044
0.0745430819080466
0.0904433004456141
0.0916888655610138
0.0561503771302194
0.061257086184678
0.0615316153902567
0.0623937092413784
0.0579259801940444
0.06376462235454
0.0489894598688845
0.0768012402423074
0.0587037289517929
0.0634870274705158
0.132972662862581
0.0718277936566122
0.060295562113702
0.0592025456794565
0.0576549778371599
0.0571440170856899
0.0538500854063962
0.0545889574995363
0.0774281800449842
0.05497848615382
0.0602204202451204
0.051986589363515
0.070036246751917
0.0822634227145356
0.0548025571855122
0.0614819604928379
0.0550133052163917
0.060679805295091
0.0471307651131889
0.0503689472510855
0.102097078779543
0.061641970831804
0.0540412007358731
0.0529610554474273
0.0533737558404509
0.0578136937912281
0.0510642460129258
0.0518806006514799
0.0559793023408608
0.0531485525792519
0.0581275952989787
0.049233442769392
0.0506989402945431
0.0529053448543273
0.0543280228679822
0.0513842376976238
0.0567054032243027
0.0572015792861169
0.0475144527640633
0.0512781218005427
0.0500068381553673
0.0507873339595587
0.0510416556987698
0.0553668016433775
0.0548841313901998
0.0487042606939247
0.0523521876776575
0.0517774033930016
0.0502810767944779
0.0527007682314055
0.0479496565201279
0.048192364989738
0.0446852102995391
0.0474766072610279
0.0471067672103394
0.0474285783824103
0.0482314052563391
0.047777770745755
0.0465032274355614
0.0459105561266106
0.0443725215315041
0.0498509734549294
0.0394721406629424
0.0850124146106822
0.0783156425038425
0.0486736729391902
0.0472875044920859
0.0427209983585382
0.0433148996651375
0.0341706356975372
0.0664861859997562
0.0701255693340679
0.0439258427466285
0.04373086959431
0.0371037982892471
0.0450616164691138
0.0485665281650158
0.0384964195985134
0.0399672066089123
0.0295552568050555
0.0625325696678844
0.0968473649188901
0.0831698162540833
0.124052985269111
0.0621321863354973
0.0375232189232851
0.0485270216103819
0.0763476398782534
0.0396921518879773
0.0351763039480189
0.0356974337741437
0.0562489934066766
0.0519545257046255
0.0358598419759065
0.0340687522845374
0.0257072451711884
0.0438412672550983
0.0642149550737512
0.0393276287205876
0.0483788004336462
0.0672412641528589
0.0440403299530573
0.0683632307115792
0.10925961987032
0.0709253681945564
0.0407628136135711
0.0389161256577409
0.0341616962781752
0.0410644610711896
0.0745042222403276
0.0515493784396743
0.0465375642548407
0.0343494322292663
0.0297412680859718
0.0378268164691092
0.0497293257932968
0.0415109457622961
0.0370338965250086
0.059098043362276
0.0393883512635291
0.0390282961485667
0.0542092414504603
0.0664337422344499
0.0822997227357506
0.0478449481814157
0.0311448562180618
0.0525261554992826
0.071413838084531
0.0475987459579936
0.0483589978436365
0.0331092929476344
0.0368210439139846
0.0534556929496825
0.0381290184804111
0.0427766536264846
0.0503223139098696
0.0564665380697302
0.0812614268520841
0.0990122155427198
0.0853123795507165
0.0502455286849138
0.0336813357986336
0.0337044959171719
0.0399560209324795
0.0349368366571095
0.0283110645376789
0.043968451342554
0.0463692722380049
0.0364097416597392
0.0675938857148496
0.0496468149358213
0.0382342675850494
0.0361715618722279
0.0322161233804051
0.0413628268695233
0.0679771125962235
0.0811609915592928
0.0557675195790432
0.0483431718754033
0.0589522438592458
0.0468622658313197
0.0451225473747025
0.0447594157030918
0.0434782505611295
0.0432556583254862
0.0539031929006076
0.0545993358170312
0.0478141006958445
0.0496457636424343
0.0473431542364022
0.0725380504790823
0.0808932546670357
0.0592795189592399
0.0702368223803794
0.0914907648633722
0.0936740795949915
0.0851475677651274
0.0660112958929105
0.0685000952525397
0.0648292548254458
0.0660887905560098
0.0647114217061761
0.0771719410582924
0.095896164739035
0.0777482223341678
0.0719933232170238
0.0760248388808516
0.0701584928518638
0.0783967015364827
0.0983536692349198
0.102754370367006
0.111166493592602
0.12780637211337
0.10300812358033
0.0878326297086543
0.0815491750637374
0.088349852480942
0.0874976706120331
0.083452191968315
0.0799638219191867
0.0861309108347743
0.103604540451768
0.0902766639746559
0.0836621666507011
0.0848340226973794
0.0812159113175403
0.0836821944678683
0.0856184382298969
0.0839612107137021
0.0866293736600079
0.0903156609428976
0.0833970281217916
0.091643387787222
0.143023620934285
0.116801239252131
0.0901771770740301
0.0966850753959245
0.0972088005038465
0.0947226266986208
0.0910185263555038
0.107125146649441
0.110128109865353
0.102236451110653
0.10175702824471
0.101597195968143
0.0962582939661487
0.115340033780469
0.118809958118219
0.104322145535248
0.101181071735029
0.0956398718838563
0.119038114058998
0.142371256748919
0.120671507155169
0.118988015248243
0.114683783002979
0.103213000953889
0.10711340308484
0.103403408460478
0.106547737213315
0.106380122579456
0.105821243021014
0.105197480036239
0.103454807753687
0.102729831127107
0.100206587647657
0.102515070053292
0.113804479356882
0.104876887129603
0.0995577300857548
0.101452754089166
0.0947416115407407
0.0971763683903793
0.115556402263748
0.11469030028023
0.10419724391129
0.102018891663014
0.105616743680386
0.117541328913897
0.113984438388263
0.0973475550184027
0.0949671889700992
0.0955394113634013
0.0960827999269978
0.0940352739004773
0.099130079424674
0.111045698907103
0.109619117118965
0.0979002252416991
0.0998218105020293
0.0975992554555853
0.102494101732296
0.0982562644043776
0.102710897222808
0.102914390791808
0.107341222248014
0.107599102114821
0.103116806725242
0.105945864801222
0.113985878354609
0.114539142266344
0.11948970047509
0.10834156924327
0.107099389452989
0.104384386240609
0.106637809297959
0.111647757099699
0.10527013331744
0.09847477971103
0.107075320921052
0.0982029229794373
0.110050845178838
0.122023486954708
0.112657274429713
0.106152725231312
0.106448720043279
0.0965682278907111
0.0999726864624377
0.0985923624068147
0.0958240924672052
0.0959775705432027
0.0990346444605029
0.0937761820248313
0.0938027707183196
0.0935594162390545
0.0912876058611498
0.0924414650479615
0.096024912088235
0.0925969668440255
0.0922081993992902
0.0883989809836549
0.0916169200195866
0.0901096895365871
0.089239366029385
0.0858816592177759
0.089886953189008
0.0965200669110028
0.104137635543686
0.098435480361934
0.092588602487055
0.0965742929771966
0.0948013083118171
0.0885375572290953
0.0869860590675716
0.0903941447502641
0.0856646009528957
0.0881759271824607
0.0890457438809251
0.0853457092211859
0.0858206870015351
0.0865235051448722
0.0873096899236481
0.0861354735506433
0.0840906135943093
0.0866495009122426
0.0856685614459438
0.0855825438520096
0.0858170541955664
0.0890210749972333
0.0907861271068997
0.084567261907055
0.0868322231422542
0.0852592719939986
0.0850759477574239
0.0862648362785825
0.0871322587148708
0.0884754436552293
0.085997565827088
0.0816036150690246
0.0837230707208873
0.084309639570344
0.0833267365753989
0.0832144003428791
0.083144316046044
0.0807543813301037
0.0794125754817826
0.0822862176924728
0.0798247547111636
0.0786181633616583
0.0791445867830577
0.0761555972491096
0.0754983816502356
0.0747801680498481
0.0767336331261706
0.0747094064033217
0.074119763878746
0.0744461619254229
0.0737274426646284
0.0710865984507944
0.0707236262943531
0.0710510312021666
0.0721026981276339
0.069458906046557
0.0699912670114151
0.070585368594714
0.0705511261573083
0.0685499636848989
0.0669108678117569
0.0661643290783284
0.0699428493456044
0.0678417005584993
0.0668788198070933
0.0686545774962643
0.0702271474343955
0.0689873613901544
0.0697158084523888
0.0676094039054611
0.0691474085013658
0.0687071134055638
0.071092618677738
0.0722921429495618
0.0727557962216523
0.070012306052092
0.0739153005356721
0.0736217422463967
0.0730073551196661
0.0718150922880973
0.0741411022066342
0.0746162214033263
0.0738885548492731
0.0738652525355191
0.0756131111582964
0.0758912218842806
0.0752984725326838
0.0735620250404964
0.0733717695373778
0.074726150743024
0.0742350651832832
0.0756822696102686
0.0750721811613609
0.0736094481768817
0.0762058830452203
0.0759018504456021
0.0751138253308746
0.075299973922179
0.076372009649072
0.0732746066072696
0.0714346901517186
0.0727735819310219
0.0740719312524016
0.0726807287705592
0.0744985273014266
0.073963521763896
0.0713224234649322
0.0731748849809143
0.0727643199445637
0.0721023636856276
0.0734423391880491
0.0712360747798605
0.0705709617612771
0.0717261184982981
0.0714936888561918
0.0696996845072012
0.0714005639598302
0.071435233398269
0.0705863557232694
0.0702169838801299
0.0697147087685506
0.0675036364943974
0.0691317316648093
0.0701592469674453
0.0655484363145854
0.0651994350553468
0.0690847718775119
0.066995551458761
0.0668859642531332
0.0665013490500095
0.0656639872413613
0.0676337297069226
0.0669118041357074
0.0649902048092854
0.0653545174162431
0.064880148828477
0.0642806809287452
0.0648412357110932
0.0633079518170496
0.0628874820292229
0.0634847044613806
0.0638126053493673
0.0639651838333052
0.062197136302081
0.0648643702736006
0.0653164681977711
0.0645848917299364
0.0634790832269228
0.0642033758378284
0.0645049161662514
0.0660433052420117
0.0661269469980688
0.0647743751924809
0.0632454869343691
0.0629616192094539
0.0633106895294342
0.061443987113276
0.0596462489513944
0.0613207197949282
0.0597597380666627
0.0585649669213198
0.0595574920691707
0.0589356526782355
0.0574349805426019
0.0583896416159547
0.0564966328329514
0.0551462851234739
0.058248335016042
0.0608174609218396
0.0613963647194375
0.063566981226191
0.065629624840502
0.0664982339196041
0.0662913167124269
0.0708140459363627
0.0737123765202674
0.0767917856876949
0.0798636615606522
0.0848149675179339
0.0892430112433754
0.0928532649319276
0.0969144831152481
0.102290470215678
0.104064929481832
0.109166712783418
0.116509239824876
0.120148001757549
0.126031319125305
0.131866005756199
0.135601341263811
0.141285333267693
0.145304094971564
0.152298329920501
0.156910604336973
0.161542560778252
0.167781840560197
0.170764732548708
0.173799860770909
0.177791846337637
0.180784001461404
0.182156699951134
0.185029108005186
0.185179472557954
0.185361279850454
0.185682857672676
0.183715564386022
0.184097870344697
0.183345818131079
0.17954685082891
0.179027354067982
0.182008856584746
0.17990238364998
0.178237604373482
0.176882427980877
0.174090517316217
0.172641122802166
0.173746644227192
0.173706882700765
0.171593841135014
0.170439695647478
0.172168354632678
0.17173691031835
0.172919763676602
0.173727100258948
0.175056928190272
0.177750790851048
0.179345921416762
0.181501442564487
0.183972626052272
0.186111251274618
0.189095298931047
0.191198592468877
0.193657250611324
0.195255959447554
0.197701321936662
0.19910817206205
0.204434217595065
0.205722361690724
0.20372189591461
0.206631908467073
0.20887893535678
0.207213295798968
0.209762558290328
0.211505185793992
0.211812105537528
0.212946611384317
0.214310625641118
0.213321684798003
0.213106072111132
0.21390749385402
0.214768656434613
0.216156195992583
0.218677433886464
0.220763022551378
0.221472098809594
0.224171988621162
0.227405010254855
0.227934939071042
0.230998083538862
0.234783092178224
0.237896918834487
0.240389315570608
0.245773394535399
0.244428227670639
0.249472287278577
0.256381834743
0.257603261902726
0.261475587277902
0.272112829697744
0.273041344303819
0.279521709931623
0.286336082145313
0.293140564353751
0.300092507979283
0.309116303813858
0.317206052855823
0.321097345730895
0.327121424645522
0.336771767978802
0.340914512030656
0.344401224681935
0.347364015475124
0.349244806048632
0.353195447236224
0.354297818874672
0.349381835823841
0.351465964548296
0.344277668478346
0.339047203131588
0.338317704562001
0.340059399236386
0.334072362698138
0.333681786801698
0.329636739234108
0.32723492733002
0.328707556631426
0.325532069632208
0.325390724719495
0.329325368986708
0.331126734078223
0.332485856733218
0.334038418638467
0.334960699188032
0.339036935036008
0.342730492410642
0.344278694872278
0.347937655814829
0.351071252483945
0.356445562192083
0.365489155499534
0.365488103103594
0.368166986847931
0.373834870336136
0.378755945273041
0.379975049345505
0.386146891167842
0.393247496294977
0.392105797365415
0.397595972015456
0.39828243674163
0.404330065546936
0.40690949013126
0.411009885895535
0.412048908788922
0.410887973461712
0.410576535606894
0.416423776265588
0.415043011115055
0.417959363153826
0.420712508044378
0.422303487393831
0.422466834168276
0.422855706906667
0.42411977457043
0.428628701567297
0.422634014350387
0.426676852467678
0.422888273767233
0.420582596227758
0.421722729137831
0.41109009728116
0.406870347196633
0.401163921634954
0.384648883952365
0.387000663602723
0.381368324906711
0.371823102369818
0.356417728168583
0.344737691519365
0.333210299346984
0.328702014658746
0.316181998582255
0.294519279664129
0.28433923924418
0.274889255076854
0.26419547050104
0.252833262898586
0.239813724972877
0.232079367862731
0.224836834820602
0.221810825644976
0.214164946348072
0.207686763482518
0.201370578281466
0.197597725566753
0.193083510516823
0.1915784360053
0.179794248344596
0.178727155125088
0.176831943814283
0.165503365574825
0.159049928176822
0.156518683227208
0.149871162664247
0.14337811471942
0.136237732154552
0.127434224809518
0.125025757663484
0.118003139825998
0.107872603144215
0.100969682862395
0.0954185437293314
0.0887119850314554
0.0803965248149992
0.07504461470528
0.067738126593812
0.0621424414301037
0.0559161772769684
0.0516436343643606
0.0446270653531151
0.0428294600258952
0.0417885238116192
0.0348788497394311
0.0350459915691696
0.0328825590067567
0.0300224452632107
0.0269950140793353
0.0286794095564682
0.0288139540488325
0.0210026264473809
0.0224334258492596
0.0237752372487066
0.0239585625824644
0.0230282738371243
0.0254980754343452
0.0218029046793942
0.018180998063624
0.0202665310057842
0.0231338047178788
0.0191603686636301
0.0219839586042167
0.0224751384232217
0.0177116126348062
0.0208696881543895
0.0220735143100881
0.0194959935009193
0.0207763780837558
0.0208983410787828
0.0249704586454643
0.0250595477544521
0.0263291660681696
0.0287948312373136
0.0301174658424348
0.0284733357684963
0.0302015110989909
0.0294064897808911
0.0299583330606951
0.0314833319977052
0.0322914214918377
0.0340508205377599
0.0308184024871969
0.0330783022760945
0.0332912302705393
0.0326908188647871
0.0318547895292959
0.0340490037771022
0.0367600550408105
0.032089758313346
0.0321350414952941
0.0342738138346479
0.0365956026691356
0.0342448094910533
0.0356283489407141
0.0374655018397724
0.0357923842339788
0.0350934536649082
0.0387788283378846
0.03813095668639
0.0364853732734498
0.0378416409624855
0.0387860779168318
0.0384516052413896
0.0383157952273629
0.036899494443942
0.0376098388646718
0.0375391089208262
0.0407456814929183
0.0324536099813713
0.0358143036852301
0.0373887624161328
0.035185589444169
0.0359483439422533
0.0357555699562174
0.0350137629822456
0.0372386351610407
0.0369863355110523
0.0382874906199729
0.0413936368034572
0.0406654681508867
0.0389067420858418
0.0465747028735297
0.0396317248034702
0.0397477208428994
0.0440911616358402
0.044257250225234
0.0443371209499912
0.0428000045638892
0.0450418031623512
0.0464722642345617
0.0492505036492803
0.0478866998985596
0.0498867690641865
0.0430038459436792
0.0448153197057639
0.045291187487501
0.0397277210098552
0.0419253742680768
0.038987384047613
0.0359222050047903
0.0358423017709499
0.0376967129070809
0.0380186300719
0.0304901101823614
0.033725495457757
0.0416078012245426
0.0362482516758789
0.0359647456250791
0.0393761293475495
0.0396665533602058
0.0370858141859499
0.0383690033945492
0.0358669983621406
0.0380414528909159
0.0359296428767144
0.0365581273471765
0.0386832861856517
0.033883853276012
0.0361353683541312
0.0400239595151458
0.0354959065260097
0.0405983094029305
0.0367514992113342
0.0397627225557411
0.0348958999968495
0.0336662134078204
0.0379449076366906
0.0356596123710501
0.0309218744392977
0.035849473206439
0.032225417874475
0.0337161437845769
0.0392396754995629
0.0389914222182733
0.0353906163769588
0.0329267230813955
0.0336154774375941
0.0266528570529703
0.0292583876161521
0.0394517318543767
0.0378555933645914
0.0292149104343924
0.0270569425633989
0.0315369115338935
0.030764572625116
0.0294840153298057
0.0295043434564536
0.0295382765243074
0.0269601982751396
0.0260135374838434
0.0269246655295854
0.0316960267867054
0.0205976647990594
0.0267572622879453
0.0319418444755659
0.0206166223466753
0.0163517263932561
0.0241371499775455
0.0216525306818474
0.0185292113969343
0.0248656029591974
0.0256521827972129
0.0194562087760717
0.0189970996527638
0.0254759596144281
0.0231299771574923
0.014859584036083
0.0294182967130816
0.026090903510228
0.0228297316966773
0.0250600343651885
0.0256358849502756
0.0254530019411519
0.0249447629729027
0.0265309050443039
0.0286718678948813
0.0327890019716926
0.0233034799838649
0.0268379094441475
0.0327000661633377
0.0316053542771969
0.039251113458814
0.0307162924771271
0.0293765676852102
0.0384549848003904
0.0356848141264732
0.0350365184915959
0.038117769260375
0.0457076835976212
0.039315614853932
0.0362887354416672
0.0442497126306394
0.0441740586651583
0.0406299748196173
0.0531423372602021
0.060192381223662
0.0475887001185206
0.049300708911958
0.0512056737744244
0.0524986645819393
0.0471808093489278
0.0523277431667473
0.053108027261408
0.0544407926813186
0.0508291655034365
0.0640475219932015
0.0601181570587194
0.0557034424601654
0.061225820451949
0.0731274542586467
0.0616950098453134
0.0618135354886532
0.0601228920404917
0.0507751247334764
0.0535935277781881
0.0637895003899095
0.062856000195948
0.0644413941832573
0.0423191000946072
0.0553946685383333
0.0648741961675895
0.0468700553461288
0.0600567394331343
0.0689287801928821
0.0428411971306474
0.0503177336216195
0.0561681008296644
0.0538244262170442
0.0481325159651429
0.0560744539316822
0.0590576158041708
0.0641780430298109
0.0588778291877593
0.0633999952351356
0.0604356360842872
0.0500093446152903
0.0586985683117676
0.0526303773721481
0.0331116228674906
0.0439556310514072
0.0406120586433389
0.0479000646016491
0.034810703893032
0.0491294844166975
0.0454986553675204
0.0572691539621289
0.044279347705355
0.0428880793614284
0.0386777429801929
0.0400051379660731
0.0465517750348597
0.0397662397479639
0.0354470146629832
0.0521386087632331
0.0516664643286591
0.0584057422348268
0.0445949444675192
0.0489713918674831
0.0456724254166994
0.0482036885571203
0.0449265306275256
0.0408702022605297
0.0537694570043047
0.0473378508091647
0.0609999866066339
0.0341319687535329
0.0194863268120894
0.0610204081159793
0.0648106744862263
0.0419127691950349
0.0230555547842776
0.0534732167423898
0.0623797268433225
0.0595462601794891
0.0475852207616747
0.0623924236569546
0.0557491806365512
0.0520361092685668
0.0653601469544554
0.0504019186815105
0.0789398965877742
0.0870843997964611
0.074569056599183
0.0805853863881777
0.0404328543840421
0.059058834111122
0.056780946317061
0.0715869174269026
0.0622222216596109
0.112431175657053
0.0704726704330255
0.0350971477987821
0.0686549969146086
0.0941786803513752
0.0571774257561191
0.0469159174865602
0.0566043608061801
0.0673587821884784
0.05514283145288
0.059692688939897
0.0547602180216656
0.052749956435492
0.0615928143301474
0.0545865546778926
0.0346376167670544
0.0731956005950044
0.0232859991817202
0.0961438358743667
0.0416052143665521
0.0652277502597263
0.061754419667319
0.0291945435087853
0.0408998965489308
0.0450896569812378
0.038976126946377
0.0471979173411854
0.00654928950342656
0.0648760007337914
0.0864353630650203
0.0111549962340347
0.0440246432745841
0.0285092892430262
0.03555443778497
0.0493000832506827
0.0573642421955955
0.113287169495199
-0.0223244026791952
0.0529741197533397
-0.0314281971975038
0.0740404912942228
-0.0783386104296523
0.0184114821361535
-0.169497685235955
-0.0129917394986048
0.0679612115174582
0.0753853343080818
0.00956665513321512
0.113251346301233
-0.0745829114018322
-0.0599178920349722
-0.00861681464598493
0.0177298133355034
0.0616013572746414
-0.0609716420615397
0.0714792246091071
0.115284922034412
-0.145109639702764
0.0771929608032353
0.0860661949712755
0.119894156344991
-0.16783963506935
0.178182233797209
