3596
4000.36533379555
650.420452594757
1
2
2
0.0465474660161491
0.0459611127231964
0.0556124262460626
0.0386337485970625
0.0560446026993351
0.043580811313727
0.0517192918111876
0.0440491598702194
0.0442244424533658
0.0392573880895399
0.0420095773905861
0.0380409167329981
0.0510382748483234
0.0356757887612024
0.0504973610942284
0.0411747593393228
0.0471798865034953
0.0434213812112265
0.0470152556118814
0.0413571210119803
0.0481091331267219
0.0429339483030488
0.0478648265751411
0.0468014698638256
0.0555194525091759
0.0491355055686303
0.0495556704914212
0.0357590116567475
0.0461050823761108
0.0435074425128228
0.0506355622263761
0.0415428770388784
0.0516362917356826
0.0363421667801171
0.0528255359453685
0.0405285958278252
0.0498512053472266
0.0384156303403805
0.046902015674611
0.0509272251575277
0.0508061859653351
0.0391435169074666
0.0517858597527822
0.0422108925285292
0.0543692828912103
0.0443661790403045
0.0523250318094483
0.0415209113587306
0.0466391842173695
0.0421559212501053
0.0529296847116238
0.047304335846238
0.0512662725948212
0.0510807945602614
0.0549445471484965
0.0511082269045018
0.05824714827
0.0423469493283772
0.0516747433399451
0.0357768348252625
0.055469113442206
0.0582892379456271
0.0500676537284659
0.0416242799189908
0.048323782683756
0.0426658040597293
0.0483135397236084
0.0458266711164773
0.0539456869739851
0.037967688979947
0.0545431927830539
0.0428908738607636
0.0730487812698285
0.04613596430785
0.0620568815004714
0.0457804787882628
0.0521947295902448
0.0418716970761439
0.0399704705808982
0.0410194157975163
0.0700977339324003
0.0420076800473842
0.0494089790799571
0.0349774447531629
0.0520890824769954
0.0463042926328213
0.0520109086300146
0.0328141186428298
0.0752487651546031
0.0506505973701074
0.0511042334175686
0.0308719403419877
0.0531311744841385
0.0326651196495383
0.0533525505534523
0.0330895963692214
0.050656882602812
0.0360753126055154
0.0480537792163803
0.0318762234112242
0.0584401728583042
0.0422230863097662
0.0932343296022885
0.0522497793434998
0.0715321262760475
0.0744586916862732
0.0412699252446989
0.083302169126656
0.0743319728212578
0.0452457392116236
0.0526034662610696
0.0380222487023361
0.0540103255925277
0.0455903021914024
0.0537576134842977
0.0521796715971538
0.0942004737353926
0.0504294022417013
0.0570322936653537
0.030027030904974
0.0446672635750811
0.0360565400097874
0.102748694691124
0.0415745180617216
0.0699390181763313
0.0464419087079004
0.0459095110927533
0.0492180766660185
0.0923623860050074
0.043792070415972
0.0466575417657083
0.0340341564979485
0.0500432196957133
0.0311095411969582
0.0794672235365439
0.0585123804979087
0.0522821424140586
0.0322114515690963
0.0490392899577425
0.103271871523537
0.0697940102921447
0.0430163441286749
0.0427818794877738
0.0318336942732688
0.0922818231326092
0.0526873119355569
0.0456502200409853
0.0490322260837604
0.0714842069787474
0.0361202012546013
0.0459848223706106
0.0338198826326853
0.0597064215276352
0.0374480795871947
0.0236148677903893
0.0237890859339228
0.145531194974069
0.0481359611123161
0.118427331885108
0.06044775537483
0.0536714999578586
0.0574824640860964
0.0407492874746215
0.0401071853772831
0.0483649377788918
0.0406537650437145
0.0470737582189885
0.0729105831228064
0.047402466017793
0.0421984278958755
0.0790260896042179
0.0481692706751972
0.0411831442822773
0.0902869864039569
0.0787284550949023
0.0207762271021847
0.085295096038775
0.0624691447201822
0.0480944238280856
0.0442170269270484
0.0818624942307823
0.0407522871987293
0.0490664827615103
0.0357159949007461
0.0544217348229958
0.0595718288587903
0.0592024012996028
0.041733294865902
0.051680430703395
0.0279007532920252
0.0532242193865116
0.0779242874088506
0.089247769332764
0.0459982444434012
0.0523521793919853
0.0175668701609338
0.0598722462763336
0.0901004815673958
0.0468293293591511
0.0441344431678634
0.047242388650178
0.0328849191351203
0.0436000598484925
0.0325386749120467
0.0392818593233854
0.0264051910975664
0.0816128695287641
0.0678129268937166
0.0413046326395778
0.0359199280899456
0.0369757127589031
0.0348127452021187
0.0665825832992014
0.0862622436071589
0.0509343223762131
0.0518612416292263
0.0328381417447951
0.0567636849094804
0.0759076813290793
0.0467234134703213
0.0388426354887627
0.0375161454377127
0.0415362929309171
0.039533505423815
0.0435500060891316
0.0382552314796184
0.0454241828291565
0.0411631042422864
0.0469505441103916
0.0414728437050183
0.0537894201060362
0.0476906604765159
0.0450055148847054
0.0393374773301596
0.0396332289696865
0.0418566577639775
0.0770359631852868
0.0362623393232187
0.0422586547616146
0.039655281005603
0.0405093162200663
0.0352624021309923
0.0435484713808662
0.04422769727952
0.0393846752986832
0.0299113485259812
0.0751613964011656
0.0653167370868745
0.0374739038338694
0.0461274377820744
0.0505291040147464
0.0656061265458183
0.0381139709510851
0.0505235612643357
0.0400024284392924
0.0360645516459427
0.0290915232629419
0.0701200492240302
0.0523753321574887
0.039824891660946
0.0559843683869565
0.0615216055199183
0.0416250673195228
0.0359529148024932
0.0254157108892168
0.09560895343328
0.0714793449049953
0.0269764343308912
0.107806582616471
0.075078818679174
0.0531837051408271
0.0483304283182035
0.00301112858519766
0.118583381286987
0.111792644175606
0.0475731608228875
0.0577116230266762
0.0550357041567491
0.0496736601827651
0.0441218522808884
0.0575039732020396
0.0295474392526305
0.0895033973064828
0.0970458310891814
0.0989888806044121
0.0430287583604743
0.0547427316276142
0.0910731883236915
0.0410831233302763
0.0488568490782244
0.0434556821566606
0.0480808009899686
0.053653615740669
0.066120220655806
0.0583314592343553
0.0539362962116257
0.0427564374049884
0.0637643065580288
0.0586871127925349
0.0457599836310577
0.0541578111341891
0.0559651890078909
0.0444821791871289
0.0409114601242953
0.0464939156874163
0.0478762043878327
0.0459934263272167
0.025185892629769
0.0906222820764057
0.0724895987956653
0.0443027339128676
0.0723758101790271
0.0521328713277599
0.0403037058226388
0.0452273722754572
0.0422873756150625
0.0413915372600482
0.0351629613068176
0.0346806295985442
0.0605080219815457
0.0636899101600276
0.0337870081800287
0.0428433572931962
0.0313899491423772
0.0497834846116162
0.0416702098027056
0.0425645890654332
0.0377172114112722
0.0407185674378052
0.0310954268208702
0.0593941726059545
0.0698326125159203
0.0362757787876137
0.0493755040367054
0.102230573000053
0.0451176801815761
0.0534339327903209
0.0364352789366545
0.0511571424947269
0.0472214686855486
0.0464420603297521
0.0388657190471778
0.0412778258990711
0.0553727191397282
0.0651489137606361
0.0351890571567042
0.0496721388669508
0.103827040301064
0.113582126766007
0.0665312899369891
0.050993246747975
0.0327972897518238
0.0494993673323667
0.0993841881387022
0.0624254177946213
0.0851028632117275
0.0524941352473506
0.0485991491470496
0.0525330080591428
0.0455871352795247
0.0503924318199833
0.0432434295027395
0.0538265686090909
0.0343847990803206
0.055442149974762
0.0489148574529842
0.0486409518436233
0.0376916672983633
0.0898497004488701
0.070947578312829
0.0520310064109744
0.0531579876921026
0.049927440419528
0.0472210178543256
0.100357911367225
0.0768469220394423
0.104169221458008
0.0571600315230118
0.10793708034687
0.0699597534423102
0.0678688284699701
0.0529123671834874
0.056303932706564
0.0592317384633967
0.0613512302027611
0.052475032628767
0.0635891121795975
0.0629078667324111
0.0662762182147867
0.0577087416890601
0.0595726453062341
0.0517729218176745
0.077991850497364
0.0734696875449145
0.0590292022638292
0.0650353570541671
0.0544532383372293
0.118915092973429
0.125214913874829
0.0918104148339436
0.0700613810019123
0.0772300945178149
0.0608798478383815
0.0731603567166962
0.0684973724768378
0.0724818151478495
0.0741028666647654
0.0879035479400947
0.106496250514106
0.0873589974721993
0.10236765228127
0.0663018685196277
0.0918045165861755
0.0917452715059958
0.0839034723839597
0.108042269469904
0.100959177406249
0.0764999998211938
0.095266682864583
0.115444546774434
0.0969779692744461
0.112408675455354
0.0970074869768837
0.085347446762182
0.0889306113288974
0.0869143457337578
0.0966950980965692
0.0959158455076196
0.108505603058193
0.101391229057446
0.108974101017436
0.0927871957815681
0.109257023717179
0.120625120598061
0.114013135788282
0.10177352662145
0.115551254029662
0.104239108652105
0.114269612198625
0.0984254327785275
0.104227631796878
0.14417119324826
0.118316336142271
0.136212364986916
0.121391256321078
0.112307480396512
0.121857681358215
0.121177992647607
0.116205040950973
0.115078544762128
0.12654111692309
0.127768120312829
0.128716653089978
0.131952403967415
0.131146074106064
0.122303355585216
0.1349380573965
0.128550895040033
0.13794598912932
0.13139104785684
0.141081607204932
0.138365304301721
0.165113090647046
0.181816091607781
0.165654503061945
0.179690436010992
0.16176458887194
0.156558051925182
0.162787470851301
0.147791329573407
0.158586791889225
0.169535427348805
0.167170362724076
0.16341393651365
0.164043657619285
0.156969550047237
0.175543855664702
0.16911504573794
0.171155485434146
0.176738239390451
0.188546514565717
0.178061477734773
0.180379209198295
0.182529422435288
0.1842973915559
0.197266410570317
0.196498975474898
0.196924860601998
0.207588879349558
0.20503977752726
0.20774400411494
0.194742778802681
0.193847806227149
0.191529946723374
0.199045970903577
0.205798309297975
0.213070223625359
0.216797461554312
0.216223729533225
0.214694286850674
0.225073271706232
0.205504087085288
0.223414326285955
0.222911416436027
0.22528863695123
0.228442986943191
0.242579673456641
0.233647361794634
0.245252947388219
0.241479793929853
0.249017475392796
0.246200149907772
0.260482468339601
0.246877082302853
0.260285347197198
0.26321954069533
0.265062453156649
0.255669617226514
0.263735259834412
0.263134004635453
0.259043343363696
0.25697890814943
0.270075228275415
0.267326960384157
0.275397963629621
0.29301486096312
0.287742455485533
0.27749800005425
0.294140304201345
0.282797130767739
0.291732007432563
0.277690191026108
0.293931977817521
0.291725444183577
0.303859411760907
0.299340120981479
0.294009694637479
0.290368532436549
0.29985946663787
0.316056940251091
0.309326238408464
0.31776617525712
0.317250484145515
0.310793356312693
0.328936298766426
0.318546830662159
0.316178961893486
0.332056604852529
0.33708140081994
0.337512378567435
0.339200792674214
0.336270932873882
0.347057826457589
0.347830871907116
0.36408058508693
0.349980776451254
0.329696171584652
0.348439199245415
0.344875120199877
0.341504093662787
0.356269512735599
0.346039212784964
0.348023699507264
0.358303131288875
0.364943641641428
0.369210528557863
0.352790328446367
0.348432808256665
0.36463414845599
0.372615824593184
0.368775054939585
0.375181020910271
0.377110196507137
0.400895699347117
0.387032388938367
0.372493023562912
0.39718821460506
0.38716544813907
0.397046922308211
0.400849857181201
0.388778949003956
0.392224811194056
0.415609845430829
0.407868095517256
0.408291915051212
0.404414208925553
0.398983915382094
0.432864849213016
0.415718094325713
0.413447688814655
0.435058446459106
0.420051075654116
0.401706920363413
0.425508750959306
0.418148897918526
0.44909050947723
0.438077784058166
0.403968234988159
0.427032912428394
0.432375060905353
0.419706306177702
0.435989595039967
0.435616474113862
0.418449168059458
0.439905787284719
0.423952277771317
0.437919570153046
0.47983918433982
0.446470471676127
0.458649394447265
0.469088957800934
0.424099556876273
0.466368212795312
0.489652805653513
0.469943804866709
0.474432874540328
0.452974431269063
0.465730033527719
0.467293696133402
0.480781996127245
0.461124360584315
0.459559469590004
0.456003655440766
0.48745634800737
0.496758852968898
0.471989128533219
0.466664292712551
0.488249488902897
0.47873901370532
0.458641821349804
0.462180707129436
0.493008830165692
0.485257526196101
0.481150898273214
0.471904503119319
0.494540337222852
0.49063547272654
0.495972964821689
0.487917019001157
0.493590221089245
0.489590693592939
0.480671451367139
0.481023392592497
0.485794441552714
0.517146162311475
0.507507281234074
0.50373846681197
0.508193500072732
0.490986065068331
0.513858126835181
0.501883597278393
0.492953978366698
0.508591182270131
0.534539530581042
0.532623120361876
0.513416173158916
0.520076495237159
0.522227572287229
0.497989868109333
0.529116620959685
0.511036680348088
0.52924057306335
0.51517597285937
0.520733911977795
0.498507367231861
0.529659781893385
0.5267626907373
0.527810577365978
0.523226283497409
0.509676450045933
0.51140811809429
0.530260370315205
0.509266687380729
0.526459981424966
0.509607004741955
0.517512554699866
0.512466642312168
0.532010530938291
0.527544340581981
0.532229074893279
0.515998324621878
0.533444551123892
0.512775949230923
0.539599432514429
0.537513163629031
0.524938236137417
0.533037532689636
0.539881921949354
0.533240774777968
0.527950498787239
0.503910749180306
0.520777398649778
0.523070062632424
0.536463531350274
0.522948328349993
0.517688830742369
0.510699249800785
0.536995221428532
0.524961407650366
0.529142529141988
0.547137317312455
0.535510632113676
0.533424671651643
0.522945115276525
0.532480334584838
0.547949214390956
0.536967329960571
0.544828978663172
0.5280637575842
0.508150801045317
0.513429988398111
0.531724881385391
0.528754767620727
0.539698445765957
0.537323986431422
0.519704817756937
0.50929171678047
0.515988573796232
0.517048178095748
0.544455085383559
0.534850806914915
0.541903814076182
0.5088846287811
0.518355487980367
0.500376661537051
0.527459657959577
0.521432994257226
0.517429466583999
0.505149054740817
0.518913656548471
0.518523342985304
0.530451713587931
0.522990742146112
0.530671042672176
0.504998125356626
0.519725971731806
0.514438860041524
0.519790006189275
0.498873788549875
0.514567947871139
0.496011132982738
0.518079668534695
0.513541526580454
0.507292149052491
0.500851353809078
0.500834032424473
0.493334489824108
0.507635333689207
0.482407407301889
0.503896831986729
0.492835050012433
0.490746682845641
0.494364349283696
0.498314020430223
0.518417886039729
0.512958969930211
0.499468675865852
0.491868034145865
0.488166329221641
0.506641880371912
0.495853874616017
0.499204365459717
0.490208206765455
0.49838831996201
0.491322243175659
0.484441754921738
0.478056697034324
0.490971797825093
0.481110291767473
0.483615881076637
0.479179836559448
0.480477366873672
0.479327997385621
0.484117713654138
0.474531064967585
0.479405895095925
0.468859204505517
0.470969879818189
0.466012824129205
0.477197187694192
0.463515790696382
0.453213537557518
0.476222059418356
0.461822072825906
0.447678901620981
0.465114885746799
0.45037750973418
0.460136218058875
0.450561679063542
0.466298777040267
0.453052353750708
0.460564630834584
0.453580089474805
0.462288156653057
0.444641149212294
0.439182363441897
0.440922890524907
0.443067227126759
0.435571017498717
0.446417691443821
0.432762757239071
0.44483729785113
0.427607749519338
0.431603386472513
0.427855895787802
0.43241280913488
0.430375081422989
0.425089217567638
0.422653865656966
0.445779198480754
0.41061062815629
0.420224574381605
0.421514597231109
0.414261542261008
0.407422568443242
0.418606922831451
0.411064272405075
0.410902157981781
0.404935934677663
0.413567495727696
0.386307376693939
0.390951219883874
0.3932379359389
0.406204286758415
0.388350574121367
0.388104682383995
0.395647362256956
0.400907508663045
0.391953305074744
0.387603645005027
0.384139809820675
0.38541164580439
0.384667121368249
0.372652847615196
0.382731976171345
0.379532433438536
0.373345127719065
0.373555106694898
0.372389984447201
0.383024005053075
0.361939570081032
0.365516886203843
0.363133950014823
0.364295569551034
0.357474842475005
0.362321952591728
0.356421908582731
0.350793175753257
0.345555719340449
0.351841055287192
0.348096014385388
0.356452378997133
0.336381312994363
0.341276450721614
0.33162738618617
0.345897994082634
0.341908322086848
0.337910976128248
0.332314426071188
0.334465718067671
0.333824772093034
0.325997840276683
0.326600827643808
0.323839134614673
0.323431872118315
0.31585167164481
0.312545657855351
0.30747719465424
0.307427831413387
0.319321389935959
0.308776172636172
0.302432375027141
0.304128073533123
0.300509385800266
0.306382973870849
0.295861165222527
0.293056218730303
0.2923047523305
0.290131019090612
0.296734199433218
0.287615055345497
0.28894341588775
0.284955437330602
0.285029039468806
0.274598507288697
0.283376094636996
0.27247372982197
0.267866965655186
0.267204514410647
0.27400798361433
0.269031858152275
0.268314411951563
0.270336248895618
0.264123616449092
0.258570186542051
0.255741109494312
0.260210148918524
0.26183638113411
0.256833638486093
0.2588007716308
0.254156083081336
0.256469458800309
0.245191625660187
0.244854665208251
0.252845734024357
0.250296385981508
0.239882783689896
0.241289268090796
0.234155063085022
0.234727507311331
0.227669602094932
0.23622811557197
0.233784750845926
0.234268361812946
0.225021528164174
0.230440619347823
0.217094369275079
0.225216974122454
0.225168254993426
0.221260169244194
0.220225710675739
0.225231479222663
0.213129991881894
0.218473334389176
0.210660647891534
0.212129603770562
0.20643161215717
0.203054712834946
0.206446275242075
0.204538049692477
0.208365635690455
0.202563916058781
0.200002276691725
0.197439924800454
0.196245755074562
0.186460023941033
0.190214573781093
0.191309285595733
0.194974824896383
0.188224291677204
0.184334045367457
0.185850331532603
0.185296813385115
0.180546190249761
0.180401360573517
0.185183591652065
0.170926810248599
0.178714885487854
0.176760384258963
0.177998094863425
0.16663875646774
0.171766980484358
0.173360009126761
0.170740418533946
0.171561848089414
0.169589559444757
0.167685399243802
0.167846100518412
0.168793795725405
0.166179265809164
0.165309314332962
0.160015047191167
0.159249852439185
0.161502503749407
0.158595553565349
0.159901134972638
0.15978309511087
0.153441785807382
0.151267020652212
0.151387198313534
0.148501378776504
0.145216420517576
0.142228901354552
0.147348234109207
0.143985869897208
0.145729030676787
0.143421925970211
0.14818180446524
0.141547147237785
0.141058745465677
0.140859273240305
0.143689035536886
0.134150694544525
0.135824466451564
0.135757837257348
0.132173868874195
0.134337138072038
0.132869405458449
0.133506254795862
0.130527189984789
0.133046255628365
0.136245302392986
0.127362651511017
0.129792244565804
0.127443623361315
0.123090713867536
0.124031547677781
0.12597793262025
0.121695295015697
0.125081367001016
0.121422065874096
0.121748750743455
0.116935659056864
0.116820913887334
0.117483956787443
0.118054339584379
0.109618778461479
0.116140387885744
0.117063027745109
0.115926532952127
0.114959114496538
0.116092328932087
0.11223485582906
0.110908332211024
0.109217837734267
0.111182671858044
0.106820109210268
0.110418335061642
0.109631089027011
0.11138159465603
0.104345258252569
0.108150405090579
0.104179806413645
0.105079315029226
0.102376972534534
0.101025465837867
0.0989426439158526
0.103570539245439
0.101852262099519
0.0982826940603538
0.0992715217167868
0.105295442794954
0.103999957482384
0.0968982537032823
0.0986794286671685
0.0960419981541378
0.096202235977821
0.0952902118322602
0.0985894820158
0.0966459867309461
0.0897844563841787
0.0898306446000976
0.089745228667601
0.0960654399728641
0.0866558235806624
0.0897301814227888
0.0948291162643767
0.0903423885879428
0.0820609088864972
0.0825374443612059
0.0897592193402098
0.091453177839995
0.0862492192378166
0.0900337893615198
0.0869090076643441
0.0869356517643416
0.0829346384693449
0.0854817815222598
0.084345524023084
0.0885106465729992
0.0834413339478253
0.0870138597857534
0.0870238382382926
0.0832253440289432
0.08033919228047
0.0845395182606753
0.0847848874883379
0.0896115291442066
0.0819621751333509
0.0803055616532958
0.0842479643115994
0.0801057794751965
0.0828899329895535
0.0861600493858691
0.0815336443258868
0.0826807891621358
0.0831340496668383
0.0856506341126354
0.083248334729736
0.0830516967370262
0.0845779170363498
0.0854472030783808
0.0839803632957852
0.0872580905927551
0.086043935076201
0.0883786872148788
0.0866036049396334
0.0839241672493733
0.0821754257641106
0.0879582446331213
0.0893085800827842
0.0926225427691117
0.0886570717732117
0.0941472214722651
0.0871471460984478
0.0966013365127459
0.0890152726163792
0.0905131225336437
0.0899006751939722
0.0915783264911524
0.0934439469107812
0.0976517204872508
0.0934433481951532
0.0944849252656906
0.0958410649488325
0.0966780721672493
0.0917146038651058
0.09850690109128
0.0978145724841049
0.0935067088497453
0.100836487688603
0.0985205390845671
0.101335088045805
0.10608225251754
0.104070692435058
0.105095361307968
0.102637284483697
0.109959573803883
0.104252350002186
0.109815816804333
0.112986568008009
0.114975584632507
0.112478057954449
0.113142240425874
0.116684464772562
0.122274388523344
0.118687429124086
0.120510782409392
0.122854134003056
0.126794743515897
0.127737152313401
0.130774467037471
0.131375887892941
0.132242140745582
0.130941100361874
0.135585246183
0.130496478009155
0.13451815537122
0.136702087534654
0.1455331381039
0.139098237695518
0.142842429081087
0.144519815943037
0.144755759144425
0.142475229566224
0.145312610520901
0.143626667905072
0.14876863200125
0.143166001493986
0.153395565320609
0.148021206397981
0.138307251893392
0.145361382508266
0.145035658755984
0.145916128242615
0.146689872336422
0.138431069086983
0.14311539312571
0.138564123664125
0.142125502122649
0.137376816015812
0.1437784669521
0.133318883211722
0.136965769805316
0.137956819571786
0.142881438931508
0.13228564157701
0.139188480085968
0.136922853330264
0.136776542116556
0.13344062860853
0.139644222462939
0.130121158561379
0.134441619441995
0.130862590074458
0.137664261865416
0.132184453544783
0.134478383658681
0.12928682538723
0.132890771179965
0.13212758536402
0.13240978638516
0.127947274751139
0.12972770017052
0.126276681140918
0.134138914062917
0.132694397086412
0.133990437005163
0.129086906220164
0.128358306276887
0.127044812441385
0.129683112200317
0.126891170508001
0.134280592159152
0.122174488607687
0.130595072177651
0.130596688499326
0.130611365024641
0.127811366405317
0.135011161501029
0.121895928573421
0.118376200543305
0.120575639103468
0.121422395900509
0.117399353713416
0.121108650395272
0.118381346007188
0.115790824057391
0.116792208296074
0.111491630207299
0.114491177236758
0.115400217575259
0.107317225058659
0.11090849882305
0.107282194575617
0.109228778591939
0.101571214969287
0.103385017704253
0.101978130137544
0.103776453828297
0.0988978748373729
0.100096713375769
0.101258550514486
0.0977033338565242
0.0936229598132045
0.0967521719533093
0.0935291648754289
0.0971955725209321
0.0900786757658799
0.0902877928411897
0.087728381642422
0.0911566629874185
0.0842839589518845
0.0887926490411975
0.0826925831583096
0.0895605613602772
0.0807490076416613
0.08431407241097
0.0789043418377343
0.0819545773077004
0.0754055277139212
0.0869307728618172
0.0804465861499644
0.078528844238806
0.0810083762352879
0.0827528728813349
0.0735449974933454
0.0783297844156032
0.0759371351945136
0.0796157546569601
0.0757799538243846
0.0763550838350099
0.0728305678594176
0.074093512073137
0.0744864243073071
0.0820336549507314
0.0764795357988103
0.0739039779718824
0.0695696733841989
0.0763864738692733
0.0721135728478896
0.0750348902657941
0.070101425853773
0.0679123160448444
0.0674434489759651
0.0709977072594808
0.0713863484146189
0.0729763019984058
0.0644622878090208
0.0675280667485309
0.0658805133742906
0.0660099907321829
0.06708669033733
0.0673886436636299
0.0680118859277741
0.0682132908706134
0.0608565944927188
0.0653166545569867
0.0658165774253567
0.0683418666498676
0.0624907921835497
0.0633428901410674
0.0647104760998054
0.0643289705498311
0.0630047383487082
0.064054414754965
0.0635497174981663
0.0598012274916722
0.0593952046236708
0.0594861304216209
0.0587054997364267
0.0584865297151602
0.0627291008355956
0.0631666966112982
0.0589436715557132
0.0616115957655702
0.0563981022078694
0.058961053167538
0.0585932050187736
0.0595705663502206
0.0552441462935157
0.0604438817333375
0.0590534273181523
0.0587883962659029
0.053906616859161
0.058543985775418
0.0549025319914915
0.0606705535724646
0.0551796820640903
0.05438024479192
0.0598208962109264
0.0618954037328936
0.057267317299811
0.0566362972494717
0.0548817640898937
0.0612294944705875
0.0542204615927189
0.0589989581493445
0.0504889828935357
0.0598530527342569
0.0534092880326875
0.0606198560550249
0.0546807955212125
0.0572651240788165
0.0546865649064552
0.0574796431152163
0.0523514751143068
0.0595730354898339
0.05269738671241
0.0577382215638002
0.0555661063679824
0.0554430383642681
0.0553325384792785
0.0531258948550912
0.0542400020584242
0.0552739006912473
0.0525717874209062
0.0516201728780124
0.0534530391820974
0.0543816122931812
0.0562723429325522
0.0556691519536407
0.0514555770128921
0.0537198634499398
0.05004627721973
0.0518150823941126
0.0520351517598129
0.0488510803072599
0.052927649027559
0.0511601853517948
0.0482034356732722
0.0514481821279986
0.0483798926172891
0.0518662730837776
0.0454138087383088
0.0543191282079546
0.0507040151671203
0.0510680362883701
0.0481060100762888
0.050121309006324
0.0507596113990451
0.0530092599044516
0.0486994949328338
0.0513518479186435
0.0463152942909021
0.0533837690862981
0.0509573437056992
0.0496127364841143
0.0522935523112487
0.0532268282843713
0.0474171093049042
0.049779737282307
0.0507959345097453
0.0523022581899127
0.0479812767777909
0.0519826720245343
0.0502142407329034
0.0482193904008937
0.0484680912868763
0.050768231046034
0.0517144654497094
0.05432646424691
0.0479325537347529
0.0515332870030343
0.0469459069726663
0.0514547143536542
0.044986425323351
0.0483967885433078
0.0489682788923463
0.0492071798325068
0.0465556440138874
0.047035201400595
0.0482668294857698
0.0483336711285954
0.0454567212155896
0.0493657355917347
0.0439262661366009
0.0499669963294658
0.0490995700199495
0.0443588424547956
0.0442429117556446
0.043230729132835
0.043405590915904
0.0450925743884727
0.043017725810101
0.0433339859611813
0.043333668300301
0.0489661850657937
0.0428350133975842
0.0414778430973355
0.0441962517611952
0.0454496657598208
0.0423209302941766
0.0431068128968193
0.0415936673792482
0.0473993062038637
0.0413696624186922
0.0415297923867194
0.0408531811357129
0.0439888018145984
0.0449751819003131
0.0418540330383739
0.038850236534295
0.0423714478383148
0.0406544716301737
0.0444051043897642
0.0387100787130542
0.0406278125946825
0.0390320681895671
0.0435110782813119
0.0399711898322404
0.0446258231720859
0.0447485302799412
0.0393270262245407
0.0417870809072158
0.0403694458666211
0.0418620562665313
0.0467648301462423
0.0435442739163858
0.0445329488794369
0.0406077649715072
0.0428511051450863
0.0414789131484648
0.0460826214020612
0.0404717802054071
0.04203878774886
0.0413984613145519
0.0417970737993587
0.0348885373691523
0.0422586987949973
0.0402835545515205
0.0408497969124001
0.0356844711663112
0.0384810661784471
0.0376174042382964
0.0409778762046168
0.0374334069810681
0.0369407401095041
0.0351830067113008
0.0397683066650503
0.0374433247402314
0.0378830068968117
0.0381996137296584
0.0369974916133305
0.0336120180313097
0.0364111117887861
0.0337821263351026
0.0363044591620184
0.0338559883010409
0.0359941717026444
0.0321898937259298
0.0372315987178329
0.0352891526130666
0.0389096114981603
0.0326550718553305
0.0327016727482579
0.0339046233644728
0.0384159429397006
0.0317340111618052
0.0360404951903169
0.0346497712995711
0.0362459139584898
0.0331132315583476
0.032541057359444
0.0297816510422959
0.0352219030412748
0.0297317777407101
0.0361850580417785
0.0346056426538927
0.0347824123429998
0.0340456120513664
0.0372427857597553
0.0314523628888553
0.0358545542718051
0.0310167748530388
0.0350782217574847
0.0296224810112441
0.0356950990250538
0.0309501111147971
0.0352816028479523
0.0336347269329013
0.0331545873969598
0.0297368068562986
0.0333920654471713
0.0293891048945266
0.0345892626157397
0.0302354072957562
0.0318884049356476
0.0291833163822564
0.0349291513683078
0.0327884533465424
0.0345895682450883
0.0322649598118042
0.0331011346970278
0.0320623262938768
0.0347953828409631
0.0304880790213162
0.0311925758939031
0.0278736366451377
0.0332837034640355
0.0272751533174433
0.0316308466860727
0.029264136501227
0.0309710588143024
0.0313383825250684
0.0323630273236292
0.0271902778796475
0.033620363529788
0.0262208088327076
0.0295905261762052
0.0300815436666298
0.0273828816951332
0.0292535797161192
0.0295169236083345
0.0274862763298127
0.0300598076317419
0.0276946989199831
0.032115083243674
0.0272948257579187
0.0320622092375437
0.0279744721833959
0.0299380178021047
0.0277205455125491
0.0318505277311949
0.0284274947579697
0.0291621213196915
0.024539438348306
0.0312304773207418
0.0283305950374557
0.0318688044143386
0.0274260905589852
0.0322172758608743
0.0278130259113352
0.0330482201421822
0.0282755950299662
0.029021165916305
0.0298066526518206
0.0311122335584737
0.0312615658847727
0.0309401485689309
0.0291377065204701
0.0309100701637653
0.0284527930482086
0.0307640586957299
0.0281379328897299
0.0327727599234871
0.0291971384378358
0.0334398626793795
0.0262516837835277
0.0317727217216122
0.0263394918972157
0.0306425095915952
0.0265470792705846
0.0305963907488308
0.0260952703077593
0.0313090132427526
0.0245261044329716
0.0259495557906616
0.023739025078582
0.0276343040306443
0.0268845670729664
0.030579322426357
0.0250862157532485
0.0272219435789967
0.026311507633713
0.0298379187438805
0.0248521429119065
0.0287495619604471
0.0262101857689899
0.0281462492085968
0.0231354985272294
0.0289194910544205
0.0273571425223274
0.0285929586842253
0.027834436730749
0.0270912099592321
0.0266684532863379
0.0247698571472776
0.0243264874986465
0.0304908487514259
0.0260383384072682
0.0268163355814299
0.0239016150644081
0.0280023931601553
0.0244616534183558
0.0291680176796433
0.0238753760510201
0.0275785408673181
0.026946264170225
0.0285977067892648
0.0249046692445445
0.0260332169733579
0.0250558218392859
0.0286397956351633
0.0239197715089056
0.0291826127014358
0.0262457038646128
0.0303945801845017
0.0238409501008951
0.0291147938486512
0.0252299565255602
0.0297253774854014
0.0239577513427481
0.0299638279589146
0.0246706018946945
0.0272286031005097
0.0260680817286577
0.0271838093332157
0.0258890522383831
0.0259267817518306
0.0245170169911497
0.0287385565645389
0.0266208852299907
0.0299587841197267
0.0245527525431287
0.0272530992069001
0.0237218337630693
0.0278393944686483
0.0227321179600521
0.027888883492196
0.0240686517356868
0.0250237432921734
0.0222715616461263
0.0285024677881555
0.023602817659036
0.0247213564062768
0.021686484393484
0.0255253672857
0.0187370195186356
0.022739773306587
0.0233695529879101
0.027715797495319
0.0194677655292823
0.0264545633784942
0.0248204153984893
0.0257322635837344
0.0193635761667965
0.0241992927808913
0.0196189835357983
0.0261948266642254
0.0233359972060389
0.0265988318898527
0.021363442106233
0.0246052745121573
0.0206333268137165
0.0242175398655266
0.0208752953362677
0.0248548698507279
0.0206808561009764
0.0252546535538572
0.0228948073006339
0.0238727283865578
0.0208238891754122
0.0263550049604579
0.0231404964331002
0.0244274723235189
0.0211582908088093
0.0253759113463696
0.0216460106443228
0.0245323548248787
0.0202129750755647
0.0274627897737727
0.0216238218690517
0.0262520102058129
0.0216504407200782
0.0249942080162118
0.0208039767165451
0.024134826780722
0.0205451469917703
0.0224560989921017
0.0215302268031178
0.0271858403109678
0.0196524902511133
0.0240753239053433
0.0207718414869836
0.0244676500121091
0.0212374470429377
0.0223834563798071
0.0198060755015633
0.02321202672437
0.0187736043455057
0.0216300000106583
0.0170483429264805
0.0239537355476394
0.0202914641280463
0.0223976306570045
0.017166591776905
0.02020037267456
0.0165059561910044
0.0230245346623969
0.0170172465610822
0.0239178046243893
0.0177537118218763
0.0231863153458584
0.0172169848971983
0.0239266241841186
0.0191319016365241
0.020713602147983
0.0180896955877527
0.0217555762929333
0.017855780878212
0.0200842067381506
0.0152629494580466
0.0224806233928803
0.0175507645466198
0.0255299947331741
0.017668383081922
0.020780448476
0.0174753279480142
0.0234973281910129
0.0167603525275405
0.0242034284672119
0.0163000943897848
0.0222821748181798
0.0157662724092726
0.0236701545352462
0.0169775933328466
0.0232421733032311
0.0177081839965513
0.0236812728686322
0.0157318092957371
0.0251722023215461
0.0143505655621329
0.0224204119179055
0.015452198251523
0.0231787297893564
0.0151384545486541
0.0198979148697454
0.00613142655396514
0.0173252178425792
0.00741713278285179
0.0223289486597302
0.00973279306425925
0.0191395085954094
0.0025946680308711
0.0182707651626618
0.0100714059190037
0.0162621738703627
0.00123176387696346
0.0221040212014972
0.00204343718672995
0.015801417607874
0.00831376620899978
0.0177323585452218
-0.00233913792127529
0.0202941301616985
0.00176066156526972
0.021379334272274
0.00857754885976313
0.0270270907168987
0.0145316395786073
0.0284494819463005
0.00471407372772015
0.0241873595190712
0.000903575634068171
0.0258668345984959
-0.000718378907420071
0.0266244158354545
-0.00553095848034083
0.0261789215863469
-0.00570603056401151
0.0275331136002769
-0.00662344083960435
0.0316561907789477
-0.00607806091322799
0.0333808688436039
-0.0120088034632985
0.03535276602014
-0.00922124936666595
0.0351856482037777
-0.0100359646376812
0.0411048955645606
-0.010875993045455
0.0393775346009515
-0.00943369282282963
0.0378700930618177
-0.00619611654785178
0.0378659475586916
-0.000465791664345321
0.0325672805201568
0.00600822277243676
0.0261885739476599
0.0183399701759412
0.0152004747038724
0.0289714819866596
-0.00019466008795802
0.0427400733045865
-0.00242745310837565
0.0475260103073235
-0.00749018793431123
0.0481763652780023
-0.00681123895022066
0.0395962979360683
0.00062887085187075
0.0305851800446756
0.0133297016537344
0.0253780694966719
0.0173634071202379
0.0183231485766191
0.0182997244530705
0.0181869663645643
0.0200947558929582
0.0218309385434008
0.0145977333421549
0.0231782158423542
0.0120400276237943
0.0217794732410573
0.0144128892661626
0.0198533576484894
0.0168227723731178
0.0181063736927509
0.0168579284540157
0.0190303147254284
0.0147146824585861
0.0170906930080481
0.0141981872893317
0.0184303068789667
0.0150770719300838
0.0191148811139862
0.0154436781724741
0.0193827543337389
0.0163690516032822
0.0167250965615094
0.0142628374085306
0.0166635365148751
0.0147065306435632
0.0197144473343529
0.0172335767626289
0.0199615877081154
0.0158901979341536
0.0159902135563392
0.0150725904383481
0.0195471600866751
0.0144302280880232
0.0190997377388254
0.016864930165155
0.0206692580623216
0.0155485781038989
0.0175895343601691
0.0155007917397318
0.0177932846791863
0.0175405633038199
0.0192957430113895
0.0175266957597428
0.0176452792035314
0.0178784870924375
0.0199377997693541
0.0142239085653617
0.0174464905467352
0.0160490196832693
0.020696412754811
0.015227978967315
0.0196389063702291
0.0190101072460312
0.0184210152657165
0.0179933088286298
0.0180317168477005
0.0160511897509103
0.017240274108561
0.0174830209572368
0.0172071227378184
0.0164027134591358
0.0173565763224202
0.0150535514424977
0.0171510488853976
0.0133788386679655
0.0146161065983427
0.017215498183807
0.0170573400231643
0.0160907702840924
0.0185215655814973
0.0146561985044012
0.0175416521477794
0.0165107231629846
0.0169352468248145
0.0165575039532633
0.0158803854863198
0.0164866728594987
0.0178450223012911
0.0149457937236611
0.016812609057368
0.0160337384821394
0.0151847858313701
0.0159866146816485
0.0172311038740805
0.0145172598591662
0.015150183114293
0.0185558491756848
0.0191887430645254
0.0174575596305223
0.0167609137867994
0.0169243781344112
0.0164271586901262
0.0163328623789666
0.0184583021886336
0.0158730600239699
0.017223179067057
0.017956228614756
0.0185960287995976
0.0182138960204269
0.0176721099628922
0.020022987874455
0.0171957561096681
0.0167378340099802
0.018005877720081
0.0167739383753691
0.0189762428009088
0.0192186373799231
0.0197798895412256
0.0182311138969275
0.0170477196202313
0.0149622081215858
0.0176249753259007
0.0161006375836227
0.0176230365879975
0.0179276334487545
0.0179158494777299
0.0184123681055695
0.0165819554636261
0.016582108399637
0.0200887276871028
0.0181556074007392
0.0179452059725094
0.0187041983196589
0.0181520828477796
0.0176004145408374
0.0164162670973833
0.0163803431439257
0.0166841318540417
0.0158777145547893
0.017250222050139
0.0163587255505926
0.0175497482858859
0.0184557761988612
0.0169263398451221
0.0156013282375128
0.0177149694194893
0.0171898541876831
0.0156826339439605
0.0177853761913853
0.0184621804716717
0.0192725529538669
0.0164008547155232
0.0168140851543582
0.0157540077844983
0.0167025796122634
0.0191566416656738
0.0177807128128684
0.0163972200774899
0.0185308825505783
0.0199847123961848
0.0186867028569823
0.0159679851661059
0.0181590804745581
0.0176815083348883
0.0181783503393327
0.0163496909218265
0.01976240271232
0.0182339902666307
0.0179591905651925
0.0180000487238405
0.0197892819504793
0.0176271150500774
0.0186437160896121
0.0190549524830306
0.0167883315045269
0.01857789196512
0.020132725843094
0.0176528860185357
0.0164667390282802
0.018966202476353
0.0173140137207337
0.0165417296699379
0.0165751111403051
0.0177571464758562
0.0156334783304421
0.016048261914583
0.0185140010393916
0.0186293735924696
0.0180684803169344
0.0166045631037301
0.0187549951514443
0.0164405018777754
0.0179274361295397
0.0187540954659128
0.0168976558811915
0.0156996744016026
0.0189388357462853
0.0172585494407338
0.0180490409229055
0.0157060126333368
0.0167839449127563
0.0164323438971303
0.016972180448688
0.016044349247075
0.0174644333692168
0.0175165660666728
0.0168907127187039
0.0172001913390298
0.0161934376928974
0.0166040651314317
0.0180746799816272
0.0158358261343746
0.0158806296210115
0.01731011262188
0.0159761564888625
0.0148913701256447
0.0172777524232468
0.0168375738542271
0.0178790541927502
0.0170019670917261
0.0174300469961211
0.0166908846620671
0.0154130546453431
0.0178207213320957
0.0185237216859577
0.0174885593805455
0.017046979486567
0.0159040099463199
0.017981433524345
0.0175519786503131
0.0175538342103279
0.0156912120200207
0.0165307459609474
0.0171511660354349
0.0184235123568341
0.0186461408111442
0.0178178432261866
0.014957510934904
0.0163859021569656
0.0167166932786238
0.0157961582520649
0.0180320793141125
0.018352109946984
0.0166583684611564
0.0160014896262931
0.0160695022269577
0.0179847100161973
0.0162156936034417
0.015785938406775
0.0172218096767329
0.0162910929984599
0.0162787856541307
0.0161046897551612
0.0147096410599548
0.0176289031982974
0.0150012922356203
0.0182311711890043
0.0179440985718797
0.015434474755092
0.0169209287900615
0.0180541184766622
0.0147159716382154
0.0147838868195445
0.015991611893523
0.0174540576085837
0.0168081223949219
0.017241298168326
0.0160457622209728
0.0165899629112212
0.0157308254238671
0.0189420367869696
0.0140997196482326
0.0144326027812843
0.0141801202136633
0.0157522756255795
0.0157735042760691
0.0165390773446411
0.0167114609191743
0.0169296463637803
0.0174432213557555
0.0162593154762001
0.016562669404979
0.0174270330857337
0.0152442445371352
0.0161664541665548
0.0137386569205364
0.0156321507260769
0.0157748950884474
0.0178638155069335
0.0166082832261556
0.01706078354014
0.017820612470584
0.0151065419656847
0.0152360582369827
0.0151298710989243
0.0145540152418265
0.0177969540940647
0.0161459019776564
0.0159869217135081
0.0147007846652586
0.0161441859153819
0.0164482999451055
0.0173813542961625
0.0157280603397827
0.0150432746572003
0.0161237654791908
0.016839672214331
0.0142668704699924
0.0142984286283409
0.0156896725114854
0.0145058451736
0.0158195390976539
0.0158187338182695
0.0159430725013283
0.0165998689833715
0.0184135334719247
0.015293913000238
0.0190818747629169
0.0157876609058566
0.015483927111103
0.0162661448230937
0.012285988710283
0.0167178487993863
0.0140765164095055
0.0146516807144458
0.0138561075775516
0.0135124977827093
0.0139353792870928
0.0146490419526464
0.0135445048026932
0.0140223940339875
0.0126847271814023
0.0138637264565947
0.0119193598960847
0.0132455560699433
0.0125976644987127
0.0157481062561596
0.0145047553247722
0.0111290463261465
0.0142457257713632
0.0154394329643106
0.0125904497444868
0.0120030639051221
0.0161408390433426
0.0262518140554451
0.0143818375872916
0.0180905063335514
0.0174183750699049
0.0194698489850517
0.0132722074335339
0.0171588500934089
0.0140714635563199
0.0147827266115058
0.0136254860820212
0.0182230481779312
0.012366869113194
0.0138964354471374
0.0147325424674006
0.0164993003790834
0.0123900083912086
0.0154451978109462
0.0140968136773602
0.0157695812903956
0.0133219144668506
0.0143572585021943
0.0132527856437065
0.0144529919230227
0.0124223844147787
0.0148733929793751
0.0114583549413072
0.0210596988161637
0.0196756348968261
0.0155286797254157
0.0131012843301398
0.0137317695935841
0.0135491489736062
0.0157955897578235
0.0132299549302037
0.0118598178629323
0.0132591216429807
0.0148845945260794
0.0128706918900543
0.0111272650578767
0.0125405106747876
0.0148974274717692
0.0137349604309563
0.0132418045840684
0.0104411490140956
0.0139774272880874
0.0118814477240311
0.0123051495537813
0.012837057013964
0.0164794319281061
0.0146521879191603
0.0159076506927715
0.012662153728513
0.0142853867126209
0.0344705843292286
0.0131561391437205
0.0153232914177629
0.0123155048976302
0.0146400631809934
0.0132947796688521
0.0138719813606882
0.0138303765824115
0.0140746626146552
0.012854256674015
0.0126336563370103
0.011888645951158
0.013210802098547
0.0139434034733926
0.0138381453069842
0.0133957980848842
0.0150324460974863
0.0115304535913034
0.0154550101591898
0.0118034358363012
0.0161193823178159
0.0241714771351435
0.0186101487624451
0.0151649314869765
0.0184213279465812
0.00389858066193446
0.0375979237769583
0.0239356017819349
0.0117942940939198
0.0173524454257649
0.0119769791185156
0.0127156180834635
0.0126464009418549
0.0135090523357961
0.00792004368695446
0.0231603991026393
0.0129828170655449
0.0215959983287603
0.0121816125343146
0.0142264031922528
0.0130771562301188
0.013307352975929
0.0103154365668829
0.0135667403177088
0.0127076175504004
0.0126081120760394
0.0122970672225893
0.0130663622265812
0.012933411571453
0.0122153451459154
0.0143771478664003
0.0209919423351528
0.0111829540240503
0.0134650850549428
0.0140308319317994
0.0126729430289975
0.0157955245528167
0.0355996771571755
0.00759095826707535
0.015947355155036
0.0107132806388652
0.015544918453919
0.0128017059811994
0.0139740621414435
0.0115849387434147
0.0158143540205115
0.0116639804169254
0.0149750647122425
0.0128445139216279
0.0113839897188665
0.00983470350748279
0.0148071476873658
0.0094329049206836
0.0120861809371493
0.0161964993332063
0.0124729905519705
0.0142540867011812
0.0105539546395325
0.0278106120997637
0.0352821981503568
0.0209717785066264
0.0281103762485388
0.0151229847177981
0.0154855206027714
0.0106245518510595
0.0166344092252857
0.00849282189300444
0.0191465907463125
0.0122218748560933
0.0151723855934892
0.0115027257976614
0.0162205273457924
0.00925938759459532
0.0175719941720885
0.00886937006527854
0.0180569559854848
0.00724532251747514
0.0164503701896539
0.00837983740044221
0.0170328790605874
0.00583577740018041
0.0233041957952237
0.0144575426977872
0.0187532615686302
0.000943636182248379
0.0341244504344741
0.0411167600554247
0.0128029411006491
0.0237428179818194
0.00893352788403204
0.0130970018667732
0.00954949367877945
0.0140655478301485
0.0193102875495858
0.0134599450659473
0.0119475417000204
0.0131105328849437
0.0140785404076084
0.0141314393598085
0.00827504936758066
0.0169344255098219
0.0451026042819462
0.0201909990984874
0.0192173186178241
0.010428951863475
0.0120739549336728
0.0438361227153453
0.0141454575089847
0.0167471284083419
0.0159682400692726
0.0129173566362098
0.0138485507664561
0.0118777230868908
0.0131517187160427
0.0174978307126109
0.0161951504900667
0.00952072738207402
0.0171479812508666
0.00891769427703444
0.01654468371427
0.0113725048931788
0.0181886055565003
0.0251641472093831
0.0121923715199543
0.0152855271738618
0.0167753047274731
0.0114643731683194
0.0144213444144048
0.0154808563637446
0.0132048715198462
0.0167860162748821
0.0285608873499426
0.01305922001744
0.0256439367638232
0.0249567500291148
0.0112402753132183
0.0156678191640335
0.0182163264170774
0.0234483538928755
0.00960309663211975
0.0082353100525146
0.0523334025830954
0.0170034638402546
0.0420718706663043
0.0103261613800329
0.0196965541736164
0.00601465633310927
0.0192047024111806
0.00343411704343982
0.0308350717612725
0.0151670698179239
0.015143114512184
0.00877160812278677
0.0187985652687452
0.0257191123554535
0.0176597652722679
0.0158967525224835
0.0131649706316293
0.0110720496430291
0.0255461683632552
0.024666009678423
0.00311168479314253
0.0451267619715544
0.0344116750128789
0.0325335508745627
0.0259624616530652
0.00549779461118284
0.0510838180764757
0.0187270531721122
0.0183501906729815
0.0145263680189174
0.0143690621056793
0.00870637790101958
0.00981363792070969
0.0514398534594899
0.0241535047386503
0.0100522061326071
0.0237456856068449
0.00909153942627285
0.0417217598499144
0.0278050190513078
0.0178203082258151
0.0147007258003374
0.0228900191997355
0.0018782978986063
0.0516287401831713
0.03809578768158
0.0199126963286372
0.0477639037594733
0.0274505387555154
0.0374228024623894
0.0212533247039056
0.019459070336593
0.0263108413357445
0.0399260323614535
0.0214951597778116
0.0111254616131431
0.0255101601512007
0.0486294265520078
0.0123507095667525
0.0259028426671184
0.0157129736477818
0.00923529290727588
0.043336801228085
0.0834228680699636
0.047014334123621
0.0278247606181694
0.0181951912977404
0.0470427119092003
0.0248171617155012
0.0208928418611479
0.0221773731736374
0.017885643242911
0.0173499561835009
0.0154686614621843
0.0299808988595923
0.0197907194078408
0.0205482363372413
0.0214088423298339
0.0154218030928796
0.0428844434216275
0.066416607566752
0.0719428321974613
0.026902670999749
0.0537335426030878
0.041726456173442
0.0322178056356244
0.0245781099935634
0.0203532616517227
0.032027380788375
0.0265066002040483
0.0263158543940045
0.0215491092075382
0.0415066554615433
0.0377081479430208
0.0317590146833466
0.056587920504418
0.023216790257948
0.031092685744855
0.00759623304496198
0.189335096840066
0.0526769653143816
0.0404065382028756
0.035389656189379
0.0276453570314944
0.105497085622184
0.0420606549286014
0.0290670946573555
0.0299352295394944
0.0239595958421463
0.0274682605039656
0.0360185360994542
0.0358728628504439
0.0439450695960775
0.0339370794579425
0.0197032440639111
0.0349848181426586
0.105094817136858
0.0827206051398497
0.0622347438350577
0.0382471204532409
0.0520975181309566
0.0498277472794853
0.0332463926977976
0.0371357436652443
0.0300836996122305
0.0279258123631938
0.0940381162611284
0.0387150509068076
0.0443106570869158
0.033075371313326
0.0630822596813448
0.0282508139944419
0.0820711907077584
0.0727570646141642
0.047598582006353
0.0432925798333616
0.0360626888169831
0.0409591905865314
0.0315458590171983
0.0657771723466636
0.0558634222432586
0.0454045981354165
0.0458395659598422
0.0432832864676936
0.0462650902702045
0.0397449532193092
0.0479160397128972
0.040863891976194
0.070187505722233
0.0534799362966959
0.180628531464112
0.0876669526711629
0.0517180879917678
0.0533355233897172
0.0409781681198686
0.0785347462453991
0.0630410013150109
0.0868707171508861
0.0826406600296704
0.0422721602812239
0.0493834199665383
0.0439420063824805
0.049871721869237
0.0421129891506948
0.0535625436090677
0.038619766158839
0.0670533384649626
0.0446993955339501
0.0593461586524579
0.118623388106745
0.0535768186012385
0.0461437849747583
0.0434927607439906
0.0442697395700378
0.0441001994077357
0.0397870655333679
0.04272475216818
0.0631402282269259
0.0397847808131545
0.0473127150173895
0.0325450267880617
0.059006705836903
0.068297716036627
0.0385319209719302
0.0452842170451522
0.0373935940291803
0.0432211750734007
0.0303084882347144
0.0305926933651175
0.0930518156525687
0.0457556399817063
0.0378751641495858
0.0378262760200615
0.0375180762969804
0.0403828743612004
0.0326356868384215
0.0371787908761353
0.0396110715071971
0.0333132542786292
0.0390243078650335
0.033892914024644
0.0329860049887048
0.0339740430721454
0.0347451588106777
0.0326120839552194
0.0368893948910359
0.0354062677764994
0.0289481048848933
0.0309323196886344
0.0289192249506449
0.0333919788483427
0.0322067837264683
0.0361324752220887
0.0372553994207374
0.0290114726085173
0.0327091361529173
0.0337571913006222
0.030045953304432
0.0324634905147791
0.0276465588962228
0.0277438564244079
0.0281661712650265
0.0283562056799518
0.0247352827962973
0.0273108621683148
0.0253456396682809
0.0272855712317844
0.0278090929067072
0.0318853327517016
0.0251629828015423
0.0301297034031681
0.0170377362279696
0.0641667811919356
0.0578096633945388
0.0296321710188224
0.027549766849028
0.02208701722596
0.0281112820973326
0.0147989282613826
0.0529076417705093
0.0536116567665868
0.0260325006301903
0.0263920916880388
0.0204964671629065
0.0305077719270677
0.036167318663816
0.0225625144951846
0.0294535602167382
0.0135060784276807
0.0522537937373001
0.0997042902217696
0.0718631754061323
0.113172643948613
0.0503535246785336
0.0224265095228528
0.0320280579027676
0.0655081032869149
0.0250853973294521
0.0226312463261739
0.0194139251530149
0.0499621658739918
0.0409564185317282
0.0207862219091808
0.0233592681949912
0.0156563970181099
0.0333430667063105
0.0556604351533435
0.0320289236218983
0.0385160747970585
0.0578469934547144
0.0362253321769899
0.059040315411901
0.102000943635594
0.0637470457148113
0.0291742238951355
0.0284375768529843
0.0242445162893924
0.0315667159802397
0.0724202841598962
0.0418926141344154
0.0369234893244055
0.0252376873819033
0.0202461899278822
0.0300851859128796
0.0429769514086708
0.0359885942807171
0.0297956061222838
0.0595629937314572
0.0312035998022938
0.0356592719767843
0.0467464645075033
0.0582100671154045
0.0802322258496635
0.0413452649190675
0.0233308291389811
0.0488506217103405
0.071477582930663
0.039176073332063
0.0443271947023247
0.0277982526327119
0.0283973925997435
0.0502838031402032
0.0342920987437021
0.0393352735467955
0.0469385239942785
0.0553276455338438
0.0822441477019873
0.0933869818073768
0.0869539434400185
0.0483353789313147
0.027837996987728
0.0304570276297544
0.0354090331979163
0.0338852508903465
0.0230048677559721
0.0395328915279614
0.046605995314735
0.0314164246445289
0.0700129885980971
0.0455189193260816
0.0334621462583958
0.0342157663105999
0.0286783240902282
0.0415330264285707
0.0705847202967354
0.078905260939528
0.0549395400091551
0.0394487006511862
0.0574353949409484
0.0439434806578463
0.0409408610063279
0.0410212571703518
0.041723447045305
0.0403268254170919
0.051835519791305
0.0502747565055804
0.0465365074772607
0.0471892338937554
0.0459784811892072
0.0694389044126683
0.0842727279023282
0.0554184001133006
0.0739709207417339
0.0847668659910927
0.0918246293643571
0.0836964698227912
0.0632277513053644
0.067636355728485
0.0678015967668994
0.0658944439229805
0.0631476322210231
0.0766105170912204
0.101217239445104
0.0788530618901444
0.0742974621939141
0.074768598819347
0.0756322181914253
0.0787180455973801
0.10028340178295
0.101687926821955
0.122321666819288
0.136016788180231
0.103604635131833
0.0913475730160158
0.0812671673216983
0.087420569351864
0.0883135993381018
0.0828576882503497
0.0806730159111601
0.0832178230724748
0.108554576132486
0.0916897787006921
0.0838804292441491
0.083450322527663
0.0803886201016189
0.0835612640961031
0.0858828816639677
0.0859086493175064
0.0847313995066485
0.0897535134299781
0.0853428823814067
0.0889608472452527
0.147540668044008
0.115297893958967
0.0891132658459838
0.0978371754270532
0.0983830607419317
0.0966371872386755
0.0906301646594115
0.108841529973056
0.109492121925557
0.0972213458586598
0.101358106392225
0.100163889693204
0.0946959128092712
0.113081571018657
0.120801232243361
0.0986539609375851
0.0984295613516608
0.0947515641373279
0.11703617424617
0.146213565839276
0.115233382835881
0.115404458379152
0.111315605610579
0.100554484918858
0.102184792085847
0.100490098255374
0.103338993250847
0.10340628311711
0.101748785345796
0.100208500174783
0.0963105454100468
0.0975621267764352
0.0935261136358785
0.0964336558476091
0.111594057061114
0.100066166816822
0.0942657656055987
0.0968976535669997
0.0927115899864107
0.0923611938519555
0.109928725102275
0.108467064239972
0.0978721905573608
0.0963904406322218
0.0981649737125859
0.111035946701555
0.107118911318318
0.0907042809400933
0.089445781560984
0.0895030076650766
0.0896118304376829
0.0881178627804294
0.0944087888737321
0.10939146869554
0.102370442495451
0.0922374511494648
0.0949325859799025
0.093045640843237
0.0956077517177163
0.0939470915806751
0.0970163907331922
0.0984144618074718
0.104099493685032
0.104921632768262
0.0996153597874486
0.101401008643779
0.111502230051984
0.112482851734688
0.113993805833327
0.105857123082929
0.104824999730652
0.101777799528992
0.103908395856503
0.113139257264149
0.1077866836599
0.0979205202500575
0.105613799862918
0.0988676444629268
0.109919378827132
0.126828918433236
0.115593761836855
0.108714837864114
0.108569409685562
0.0981795225165755
0.099655804633551
0.0980761033692356
0.0980230112157314
0.0984411041865878
0.100964610030643
0.0949589943554285
0.0945244094946591
0.0946311011103075
0.0945327120949945
0.0936601405124596
0.0969057437548726
0.0948006410902937
0.0942999556358547
0.0923386673713301
0.0945623057936818
0.0898810673432726
0.0919738148037451
0.0909030853762423
0.0935582585294195
0.102108654688194
0.106892433066287
0.10120999615399
0.096803457719998
0.101307887134558
0.0970411153319096
0.0912486069787642
0.0918242151619316
0.0910445293831054
0.08961463692222
0.0888334779929827
0.0900585943401117
0.0882741043373758
0.0849744804268142
0.0867001768243006
0.088704858696803
0.0855595431675146
0.083546342821518
0.0844686538468609
0.0857320048216032
0.0842721528693117
0.0848539549154591
0.0876428669202876
0.0904523778486113
0.0854992185579622
0.0862713401317722
0.0837497978466749
0.083282731538149
0.0830028222313298
0.0840738512689848
0.085386819177786
0.0817929487819302
0.0796566805696013
0.0783010191669187
0.078313534166696
0.0803032663315333
0.0774026159529282
0.0782291217097373
0.0799154682897976
0.0772554050863309
0.0763312570075098
0.0761992876680732
0.0758366342211348
0.0759932529747057
0.07571185286596
0.0746990434827928
0.0723182241403525
0.0740710894338032
0.0731975111226992
0.0710043302220642
0.0711019149758401
0.0702666295517064
0.0698565440209642
0.069646967928252
0.0659458620518183
0.0678949654536491
0.0682322350381452
0.0690547712164577
0.067301117542782
0.0657032092112647
0.0650135059342677
0.0643530089033219
0.0646916604854238
0.0666179556465781
0.0633139786152233
0.0640731129211793
0.0648395183582002
0.0674217416913598
0.0653773279270166
0.0651809338597327
0.064970198813994
0.0665287860611447
0.0657457015422871
0.0683915899158747
0.0685093344882632
0.0682922575548722
0.066757175518608
0.0698766238893473
0.0678104555852732
0.0675223416839561
0.0693039842877489
0.070631266776564
0.0702858601460203
0.0710260876089205
0.0697359901310344
0.0709829453921544
0.0737234378717797
0.0727940975953375
0.0714293767031369
0.0702315332549101
0.0699733120926441
0.0730502013227649
0.0718732341866448
0.0722536834344603
0.0717869782008629
0.0712191908706324
0.072070470160386
0.0709309622026201
0.0692641263262651
0.0715848787667974
0.0713748450231839
0.070275661786098
0.069256272747301
0.070749097875729
0.0713621028349631
0.0711971765765936
0.0709580587716788
0.0706807673704993
0.0704856576377905
0.0695806338020363
0.06989699929931
0.0711309306053046
0.0701014810190894
0.0701163153342102
0.0701449165543243
0.0697268036686856
0.0683816519853383
0.0687645319976533
0.0661532207467153
0.0666947287528397
0.0683058609390874
0.0670708982341888
0.0673179622768839
0.0671447650421902
0.0655114503179425
0.0637884030130284
0.0636382933033513
0.0655572610991261
0.0626318217437839
0.0619225874241571
0.0631541196053903
0.0623306129644948
0.0623998899420309
0.0625955031627555
0.0615002131201651
0.0611940615152887
0.0606601425564303
0.0617973534185133
0.0625976815167183
0.0603684349564587
0.0596594337745115
0.0616682250205431
0.0622569786037246
0.0625514949498936
0.0620765566121167
0.0632448412838115
0.0625205561786745
0.0637115447909803
0.0637700436211124
0.0629471994211684
0.0637870961621442
0.0635251552539377
0.0638562747561327
0.0626231998718276
0.0619946846199293
0.0624597819739172
0.0607864697959018
0.0596124451683809
0.0585697497014345
0.0595042895260279
0.0578241000792376
0.057113473575422
0.0574962423305696
0.0560220527353433
0.0545344076613324
0.0564914149486501
0.0555830837803766
0.0531278969542513
0.0560362061221519
0.0572417227693651
0.0565305458460549
0.0598255191380975
0.0618442448089551
0.0629193409848062
0.0641050178341356
0.0677505863198248
0.0694399841166082
0.0725934056506248
0.0748752068343291
0.0805454461060132
0.0853615672817602
0.0891505076653766
0.0929592069618825
0.0986195813691743
0.102551766197844
0.108682591536966
0.116485398718378
0.122497522231429
0.128638319409236
0.137797654356386
0.144967601396401
0.152606768701001
0.160340107318568
0.169440373049547
0.176201345063302
0.18394410409224
0.191645673836686
0.19874657719393
0.203347767489028
0.207947615337062
0.212976385011161
0.215589584221826
0.218353683395068
0.219910983916772
0.219629746856122
0.218689653305839
0.21790837211734
0.21750200707861
0.213704185363455
0.21206145558877
0.209954969895336
0.208966620851361
0.20466165713172
0.201860234815581
0.199375603548049
0.193635022779514
0.189777338538331
0.188907283160717
0.185817002694382
0.183705175762032
0.183913991047642
0.18448574613808
0.181836455813046
0.183607910659425
0.185220735916827
0.185524270755472
0.187554043157486
0.188869196947214
0.19167935861091
0.194161785984066
0.195807133510224
0.199514093099442
0.199167983913488
0.202273616207023
0.205009605347435
0.206014071490627
0.20984164480729
0.213909903403277
0.213596196652916
0.214383193510086
0.218184587470142
0.219179893515454
0.220543919188672
0.225485577676708
0.225131124001543
0.226205160554919
0.228152541855943
0.229032652568425
0.22938718699002
0.232505259475664
0.233646320921596
0.235498810541736
0.234181826833612
0.236465252399995
0.240208191892879
0.241477457820045
0.243397480044504
0.245055732309909
0.248871330319982
0.249317116567903
0.248775268900671
0.252341926015653
0.254045919454967
0.255712490033912
0.258724166351231
0.264026519788687
0.265935198178711
0.269680673613697
0.272865138684139
0.28429345926724
0.293470809061111
0.297651166644674
0.308574489657155
0.318330255896745
0.326650826381662
0.340671353242404
0.35148079246918
0.360380091869363
0.367448362041444
0.373373744233223
0.382819732370938
0.385945280479164
0.388352704275887
0.390860334172192
0.38723573680863
0.386029582513544
0.381712388778917
0.378121026922358
0.368333223068265
0.365161556483215
0.358958386714319
0.354627431407141
0.349432586457973
0.349412480582944
0.340999826099675
0.339638210082234
0.340375735595406
0.337865708291363
0.341349874315759
0.344775456992826
0.351383376733058
0.358194780584701
0.359545393784626
0.367146523696679
0.374722473781122
0.38067307935434
0.384587103162418
0.390868104487357
0.397261108183437
0.404068354925129
0.412370144664077
0.413556492326701
0.4192600972357
0.427652739525395
0.434093029642912
0.441320665905026
0.440950720422625
0.447394768833769
0.456180866987123
0.463698170066736
0.469419857756389
0.474320170082318
0.476972633818372
0.482025676131888
0.488123853759656
0.495194880249585
0.494413239969949
0.500691185559302
0.508454429053596
0.508471106114049
0.509081144414679
0.517027317222323
0.516488735469095
0.520416983833244
0.52627859623744
0.525814261486273
0.52775171350556
0.528706085668772
0.523946397966301
0.525522837062296
0.520883910987732
0.518984852982135
0.515813540703697
0.506165018253357
0.489138566631237
0.487004749563862
0.472130573728887
0.45595755576591
0.44335577773908
0.431217411322265
0.411076771988546
0.40058684900205
0.382684370417937
0.364463191877687
0.350694005282764
0.334038011728719
0.328632973397541
0.312102985998493
0.297318899838968
0.28981788112786
0.279133022718541
0.27180914260494
0.260754966473639
0.258338451813774
0.249580665190847
0.24567957383147
0.241528949238834
0.237082201115444
0.226565963951074
0.216133078195672
0.207398883919536
0.199226529595912
0.191785214305863
0.184456809812147
0.173756192052354
0.16227333210706
0.153716637553571
0.144750271827396
0.137274830108524
0.125530180902512
0.114779080064761
0.106106391215972
0.0926186088740152
0.0824741528883187
0.0738175299807672
0.0657012298156616
0.0582130860536772
0.0550792699426822
0.0454847994716593
0.0357575586658831
0.031846493784324
0.0313944486705058
0.027017129212269
0.0225820509017433
0.0241514608056164
0.0202480474389109
0.0183239033054828
0.0149538797266471
0.0172884694377454
0.0179275989280524
0.0149260668963299
0.0148280655054285
0.0144088019967814
0.0135744653973974
0.0146745350280289
0.0156806632953064
0.0128279872125739
0.014206220603663
0.0139195270092765
0.0148530524604319
0.0115914136101992
0.0122745702772718
0.012556158522086
0.0127573576751289
0.0132997214478793
0.016096729606167
0.0158660075021334
0.0143226939333453
0.0160465542355204
0.0202973444177226
0.0185970398808886
0.0197366932267767
0.0227634296046821
0.0251294991717935
0.0250939706803473
0.0264245100223108
0.0292668158241266
0.0307920833816966
0.030036973017608
0.0317750134828135
0.0325507445724917
0.0333063824441905
0.0340686493274462
0.035294842372444
0.0346855374957931
0.0347499551520461
0.0384689213921284
0.0382150894048552
0.0368452620685338
0.0374284568479261
0.0366901852115256
0.039579216661386
0.0365923956668305
0.0379401191736169
0.0373719716729845
0.0391116999875592
0.0376787072066935
0.0404764194401077
0.037870159921232
0.0339538376855147
0.0382691006255137
0.0400708200374294
0.0348492835452477
0.0327834730592031
0.0351647478175708
0.0344555018153588
0.0331526202594153
0.0399082715553896
0.0301003477405436
0.0339729658245693
0.031277721844677
0.0320345152245387
0.0335918741027964
0.034044781034217
0.0342752980024468
0.0372654447474538
0.0351760919688585
0.0317909896328477
0.0349542534206905
0.0321993605114331
0.0310024652733315
0.0385917862759636
0.0336651882190979
0.0317981749681442
0.0325591614379831
0.0316181909572284
0.0345740427370607
0.0319695059441406
0.0339596222076005
0.0309221629724624
0.0321240502746469
0.0298310973617125
0.0344062929895332
0.0293658307009041
0.031779423458565
0.0340465009456063
0.031727367841067
0.0285453905517138
0.0248999417040201
0.0272552381628824
0.0226707100737459
0.0249887851130558
0.0258632975470772
0.0201286694041083
0.0226246937568318
0.0267696020617848
0.0268653590893148
0.0270430928534066
0.0298548720986123
0.0321084952403407
0.0291293743919748
0.0276084392314112
0.029388998600401
0.0290302960654027
0.0248742400215624
0.0304242116802368
0.0281236639644339
0.0252384044509474
0.0362999751594484
0.0315950015353183
0.0333122951594547
0.0365858380162661
0.0331083772195851
0.0348817793491737
0.0308831810734726
0.0242560877730686
0.0291736816570532
0.0340313979633628
0.028450332617308
0.0322108136787483
0.0354004705008409
0.0268360235585455
0.0308193003279973
0.0330758379999299
0.0362485634620683
0.0291861274676501
0.0352200327200092
0.0292306025612818
0.031102673462419
0.0362918671424842
0.0336703833069855
0.0327832954897415
0.0265961825571822
0.0299259826133577
0.0316592857784466
0.033341563036129
0.0319219863022116
0.0306150774763516
0.0301212644920371
0.0265556435538687
0.0215247493066544
0.026089069174664
0.018673596157593
0.0220163123341941
0.0302159840497096
0.0209071146779357
0.0181745972634895
0.0215719456609482
0.0181939475288198
0.0166381709155232
0.0284275424404715
0.0243913337799967
0.0128878990346484
0.0105196572808447
0.0271664454483451
0.0234164424958251
0.0190026423405602
0.0282218613773602
0.0212163652247263
0.0121769375135959
0.0234882988678555
0.0237835548829211
0.0259319267153284
0.0240766109033582
0.0274602310287561
0.0297274362117802
0.0272350998993408
0.0204906360033927
0.0274971886324797
0.033673050638712
0.0312519645449205
0.0317255842226208
0.0303168207052129
0.02193587743807
0.0303746901150761
0.0419450156545837
0.0345496695831908
0.0241777399377125
0.0371267740663148
0.0361473622785295
0.0359271171039024
0.0409116869499426
0.0385913255347411
0.0400385936441862
0.0416656867975509
0.0429249714109469
0.0443838317638819
0.0375202517559001
0.050541439676178
0.0518260919374614
0.0415563179851709
0.0499437272586944
0.0482958742129865
0.0472363054045118
0.0427118340717018
0.063810131459911
0.05478656571815
0.0526593453819464
0.0505433380647787
0.0693934365394882
0.0620117504884352
0.0481516636155481
0.0467190553576491
0.0541886155525887
0.0416654087709883
0.0576058309512711
0.0498732347269805
0.0483872580896549
0.0458111137451628
0.054413910787877
0.0553235918147072
0.0491200770364558
0.0545295591849116
0.0656062615656975
0.0471162090441886
0.0510362693304943
0.0651288787150538
0.0655436339147456
0.0526493261978726
0.0650726257203292
0.0642754423817108
0.0560994727273332
0.0647500973430659
0.064206741187758
0.0522914062535265
0.056977293555371
0.0529582200447559
0.0494467740444715
0.042439229680434
0.0435114480968186
0.0503783950059233
0.0606813498268758
0.0406036224643202
0.044170675067987
0.0452112800911825
0.0621547862041761
0.0449318835130732
0.0553437153414326
0.0522961881801498
0.0479146123811676
0.0457021626060145
0.0488667877869739
0.043003202617251
0.0737955178037199
0.0652228914603444
0.067480064999674
0.0440154309261085
0.0555669694539808
0.0567196502411036
0.0387928769104398
0.0435550705337648
0.0458627811714854
0.0661929387404906
0.0605310268287788
0.0635382130848832
0.0628275115047141
0.0297849380958116
0.0523322633200978
0.0599416753483684
0.0679308932556206
0.033038274520321
0.0446450200242137
0.0576379364054686
0.0475180737822566
0.0497817136310242
0.0711459426589713
0.0553421263839582
0.0901614751278244
0.0775988571839639
0.0444152681024052
0.0661920218977998
0.0690721676906263
0.0678154912597734
0.0987616376614835
0.0566535758347099
0.0731773108398036
0.0868830762286149
0.0883210253080965
0.0532195380550348
0.107286693098174
0.0875841542657245
0.075617832664132
0.0791495630963046
0.094725018480986
0.0791883033967903
0.0899449532858586
0.0848163620961916
0.0956632142791745
0.0771998908579504
0.0705563815028615
0.0822121281016199
0.0570181814284274
0.0588920471962678
0.107367151732816
0.064001007507422
0.0696746343604168
0.0737119995587041
0.122408637908633
0.0925360394444416
0.0893624110181962
0.0630461519640523
0.0425303903805745
0.0727426110986568
0.0895930462750269
0.0678540365043321
0.0690550576300116
0.0889279858899666
0.108687976543223
0.101073127177988
0.0695778669069611
0.0732004126528538
0.0922807049501891
0.0521347274677677
0.110362591119563
0.0979944005747317
0.0658211010481945
0.00676979143608389
0.106261465484075
0.0828242546179256
0.144205823900781
0.0121995571765304
0.105760841613714
-0.0386775491977965
0.00418077123774929
0.100445212678154
0.0212102671695036
0.120677171782006
0.156993617216337
0.0557850395068869
0.0319761012516755
0.0928270707563991
-0.00775115006525136
0.196536609853509
0.14699853779823
0.102547158451728
0.183377301068578
0.144028897543864
0.0511837189041534
0.28401270365216
0.130002653004696
0.0170980623495295
0.333297958024878
