3596
4000.36533379555
650.420452594757
1
2
2
0.0434085110503543
0.0546167724455247
0.0433041948949362
0.0492087640768362
0.0522432235005627
0.0500224658220991
0.04978692429427
0.0501448936682088
0.0398241103270398
0.0528573333094203
0.0485372582304199
0.0537521279902472
0.0482736698200217
0.0513551083159421
0.0462607047671752
0.0501233051637968
0.046113032802825
0.0503668699117683
0.0398691425070793
0.0432584253274476
0.0501364982353995
0.0561901371051788
0.0490387263250627
0.0590328320595951
0.050310018693371
0.051490248884933
0.0502385905564321
0.0456081697410166
0.0492142709787716
0.055310388630173
0.0417175344427984
0.0445380353666343
0.0459548497275909
0.0423354414774264
0.0454615888694541
0.0495832265595262
0.0471294307482401
0.0453200131470275
0.0446230154993964
0.0540567106255759
0.048424311695446
0.0536279837258565
0.056417564004268
0.0436479344959143
0.0463932759018898
0.0451934595386728
0.0523316230547051
0.0531317440657256
0.0414310838598401
0.0496205984100948
0.0536466163412132
0.0517464509592488
0.0452547801265799
0.0581284099958362
0.0532468173371407
0.0625332901565555
0.0601718858497333
0.0468749188130915
0.0534461787487336
0.0494858801839623
0.0486814973062037
0.0647805801782973
0.0464572634151854
0.0442120202630822
0.0437774719923957
0.0502847215869071
0.048117893079978
0.0542059444472192
0.0443548726619303
0.0508663066978309
0.0430889686304224
0.0483141651643875
0.0561578096784537
0.0426900869638822
0.0530434403170598
0.0459702365807323
0.047258439810614
0.0539817624217758
0.038777037898816
0.0499705390439768
0.0630071830593461
0.0458150891356342
0.04655105245715
0.0412763623643851
0.0466389801563631
0.0609601771213323
0.0401458524341208
0.0417714896273301
0.0664253890983088
0.0574987199272484
0.0514508889865129
0.0409357712211196
0.0447062265370824
0.0426294680641825
0.0479280275310919
0.0398687380906004
0.0417256032520324
0.0437949429140848
0.0420711996979261
0.0374020284768099
0.0535655953976649
0.0376018938339198
0.0857560525519792
0.0334700617565513
0.0665797644982303
0.071842489458849
0.0214416048868618
0.0854463709284791
0.0576319893983344
0.0538990608794917
0.0433679890909714
0.0518229703483196
0.0425542721692928
0.0535608837099497
0.037336876033734
0.0547498979527231
0.0779901856111372
0.0523264869804021
0.0463122088526511
0.0416963293850018
0.0292003385138135
0.0323518418279475
0.0906033004047336
0.0365239301480104
0.0676732737063242
0.0502670549807467
0.0316855631393307
0.0474763502260683
0.0805107196197006
0.0502590577216791
0.0375706039699092
0.0367372546379766
0.0424883956047917
0.0215953183946882
0.0784925616315715
0.0547281686364274
0.0471074682163341
0.0226546572460033
0.0365564976525393
0.0920779105866792
0.0619720322423854
0.0512339639514144
0.0315549122897757
0.0355423160475042
0.0777889587450638
0.0510846741251176
0.0347665970323992
0.0473880302678085
0.0633885424018598
0.0440479466985994
0.0436756359219331
0.0278389167347688
0.0510787612472235
0.0494538628308857
0.00884291342929264
0.0297887722160601
0.115094848020751
0.0338522353396
0.109328057324717
0.054151744860989
0.0547242655121271
0.0421262896014417
0.0454534820405752
0.0382809507768126
0.0453892767665848
0.0401466905068798
0.0428837486060876
0.0674840029385598
0.0380497164019106
0.0444238996579568
0.0645885688005709
0.0489763846112232
0.0121983922605741
0.0929064016141941
0.0704357798034001
0.0214060304826963
0.0734838348180113
0.0647712179866773
0.0396870038410816
0.0369311514688596
0.0737903735339573
0.0386307056171811
0.0456334998540811
0.0361602899875052
0.0468019678016481
0.0636531454054577
0.0597408988152319
0.0419156578871579
0.0506770781356267
0.0130964308215905
0.035088232370071
0.0685731669030226
0.0880492984067196
0.0383277735804723
0.0547602259415976
0.00980378309733385
0.0492644674877516
0.0880140784569593
0.0471584522376086
0.0420133319429119
0.0392030956815408
0.0374539872604134
0.0444021703447115
0.038925266654488
0.0419033181710773
0.00897380978839916
0.0801892852192621
0.0643767846999947
0.0414965859586795
0.0404208523755763
0.0389334724738024
0.0240473313502426
0.0663552238008366
0.082946535939569
0.0422773582380355
0.0524417094569296
0.0382502292540351
0.0609119542339963
0.0615272351283274
0.0459591349933045
0.0423599055354773
0.0391079657039876
0.0420630470630219
0.0449144437759372
0.0425474431520166
0.0452207304038114
0.0450205057220178
0.0437102162405466
0.0417486706786414
0.0440944842100751
0.049693142698681
0.050081629371887
0.0409008025956097
0.0437273581108235
0.0385322829031365
0.0359221169705489
0.0691359839955716
0.0442141069177904
0.0484910788100355
0.0377136525656455
0.0405152927483728
0.0369358654374926
0.0481460060132238
0.0501132874725565
0.042778857967248
0.0234625771554949
0.0740922011466339
0.0578986356971751
0.049449784482329
0.0363653187898356
0.0419535665916524
0.0695654459639416
0.044105708244001
0.0486140806582881
0.041821945421062
0.0435145780510454
0.031521576914891
0.0762596023980906
0.0519648197723525
0.0422965579542257
0.0491670479630035
0.0631568320917485
0.0318676865653539
0.0418708690444736
0.0135014060833552
0.10863117905632
0.0565781646977825
0.00971301292391778
0.100372626385909
0.0697692261968844
0.0471747899737335
0.0512270848815014
-0.0185682128912784
0.115194969965782
0.111805896917797
0.0550745483009634
0.0480073192873772
0.0651762320119061
0.0513445257778876
0.050370221257017
0.0545520855446706
0.0341017362844526
0.0858507040689272
0.0609375657629046
0.10388193241332
0.0313957128983771
0.0481114118598909
0.0848486395795177
0.0475490265491543
0.0600292467316123
0.0444886902289243
0.0474270877417898
0.0604297390320521
0.0734687889891711
0.0578105299751915
0.0623219002549103
0.0364059934276217
0.0762395433429339
0.0615908943561285
0.0548425511356157
0.0498087172328725
0.0633500620884118
0.0484181134083177
0.0526440533328007
0.0454407213540716
0.0597740674857334
0.0475557962021853
0.0273233751879004
0.0898348098519894
0.0743377336662814
0.040601524355652
0.0839517963391143
0.0532596708300487
0.0552308035972827
0.0509633785643342
0.0556056964295832
0.0470177046496887
0.052432508642084
0.0322533589164181
0.0727193139188925
0.0661883309182317
0.0506073662575821
0.0562535979466681
0.047877367621837
0.0508336203759304
0.0529141077057902
0.0549005747273474
0.0548752866310528
0.0551566559573039
0.0444236167552627
0.0599694905717649
0.0904920506729306
0.0388228096845573
0.0772523586434829
0.104680178515104
0.0603262181702179
0.0697319696901176
0.0470763180676737
0.0688339743113057
0.062825204135304
0.0617087321030209
0.0633894335497109
0.0585424145463349
0.0756124158791482
0.0799547025945549
0.054719890651865
0.0586518671830973
0.105436683036915
0.1267597667439
0.0840098273276847
0.0791166444869804
0.0579418458367857
0.0785456944553545
0.117242415925585
0.0727148282340911
0.119936692715845
0.072782469760108
0.0907489443185448
0.0793584673129801
0.0829481485759322
0.0769685535994182
0.0883070445944831
0.0861150360044459
0.0856113306615083
0.0893864980264932
0.0976872622699787
0.0901601193003466
0.0819884710001491
0.124921269729034
0.115850875880395
0.0955138949628988
0.10084644324542
0.0886249347031758
0.104606724343327
0.121643650087644
0.125195602273745
0.148214451833956
0.091415594168504
0.164276492044467
0.119826529355898
0.1223776060744
0.105695046293742
0.120140022166271
0.123026237653668
0.125913148039305
0.120691306322594
0.12916890212274
0.125098284888109
0.13701453333792
0.127413913638928
0.136920780377218
0.12431488665737
0.152264332414787
0.144661001279241
0.147630473888157
0.133502022638753
0.133201732820462
0.179501394284239
0.189719735309577
0.167059355691191
0.149386630813223
0.169246132802972
0.153078234388253
0.176416317020941
0.154523301063211
0.177410914149537
0.157992688233857
0.188273985243682
0.196489113594966
0.175322280260566
0.198172566803155
0.165451998940491
0.192975684901951
0.19486535965931
0.188183325126236
0.212087002932284
0.206701699470708
0.185503830992218
0.206889876976986
0.235001150477891
0.187391053539707
0.23559964393553
0.204349953114783
0.209634205236642
0.210863823367641
0.226762340081326
0.218732012081462
0.230758443348765
0.230428239318343
0.238293107613648
0.233507693094919
0.244900859034005
0.239844196968888
0.259145134062036
0.2493631636367
0.252714742860385
0.278667623603045
0.252512931586417
0.26857900582619
0.249926782336128
0.268152511788757
0.299147157007617
0.260906861141999
0.318101164856156
0.268947967956639
0.28576841284934
0.2838067307486
0.2860178449468
0.279886004803736
0.296510782510064
0.296759914683186
0.310955072486509
0.299013202987062
0.312854552249039
0.30154836498111
0.308616897272649
0.315665065199099
0.332784965810348
0.324192110428759
0.324361861514107
0.33126066565513
0.329387738725088
0.32971535865505
0.379221174976118
0.350014806163001
0.394413104275953
0.35221528141326
0.365260322972869
0.350161735373742
0.363096555868601
0.364498795751193
0.380058908824251
0.359560636895427
0.381473797507496
0.384856765498845
0.392788187129215
0.39290908880557
0.404399690109054
0.393455178344479
0.429271343116735
0.408182563264222
0.401675015078822
0.416321812406811
0.438463452606314
0.406755169687472
0.44658848244266
0.433969193778996
0.452499999675575
0.441632562973953
0.448050770379705
0.46472580468286
0.46474932649205
0.458965248594908
0.459792694297367
0.457368335609283
0.46183004972023
0.465648895867231
0.498150771562014
0.466185767400142
0.491074711840428
0.493986032565687
0.508304342222576
0.5039505596786
0.509594220673887
0.481126921428433
0.531194166072566
0.530621873098422
0.510690159767575
0.510456026317175
0.520629138696825
0.495404972209736
0.548350239963649
0.564029500972136
0.567172432027722
0.531043230654889
0.541389166056912
0.558196780409798
0.589843087737095
0.553583359398392
0.563668380382021
0.574936476230108
0.604491082904047
0.579352862782444
0.593699923436578
0.606978155698324
0.605586304684945
0.615515806330448
0.620582990181241
0.603597138094386
0.604869252271189
0.630998127641486
0.622673415583873
0.612270246707123
0.640879581023912
0.631441962095316
0.674938236227682
0.63251892516624
0.656356798865035
0.647333483117831
0.67655224885222
0.661304399201261
0.672201781562491
0.655385297040426
0.680750363434141
0.680478355294491
0.705162772015026
0.668545491398466
0.678518023473254
0.702603133300243
0.690741789553203
0.677024322762647
0.72076228952084
0.715963532124024
0.734167668260584
0.702269045148175
0.735775175474646
0.73840121555957
0.745902660854473
0.71929081416403
0.744819977365442
0.729290839129534
0.79216941335599
0.752281162383669
0.797930121762394
0.757880937919798
0.782361965445722
0.746471044683287
0.792328628603187
0.763537478162053
0.803571903581459
0.79127427916816
0.781391944477424
0.813576270676566
0.820543571923281
0.817205939287375
0.799694266665695
0.800956887168959
0.862530630651814
0.828113691267995
0.864475363065057
0.784810636014832
0.830706087632791
0.834616134285931
0.881221201180136
0.873351390424333
0.892605533457059
0.817375952267165
0.926232588057324
0.890857919972725
0.895153819930013
0.878301628744646
0.914482591991821
0.856030577142412
0.894919802068994
0.837882971474982
1.00934083945876
0.946333932461952
0.939700202812317
0.906187110545933
0.897873240774568
0.879247173088367
0.934532723892097
0.852158050565111
0.951884917995907
0.971969772016179
0.980136456000634
0.965774127388297
1.03036481788775
0.946244151300928
0.935087338110022
0.921617047894676
0.962018751824176
0.953675180590361
1.03672494341874
0.944100399487816
0.94597008092186
0.979498727229722
1.03693246555363
1.02769959667074
1.01281929406441
0.976956575922437
1.02327192797235
0.990985752118291
0.992548432018153
0.979150297244413
1.0540620436531
1.01745272392215
1.03622940731313
0.992863367763674
1.02074446709626
0.96573421592811
1.12182170779927
1.07112508996228
1.08446408541291
1.06949195719168
1.12971180993285
1.12124578616937
1.11765281812894
1.0000982584681
1.11419010438055
1.02646370838441
1.05774278730236
1.07273106976543
1.0899057603805
1.02240327183913
1.21658115041052
1.06692322889787
1.15431005067493
1.119707438285
1.11408545278835
1.04096304044126
1.10905630047713
1.04123343780801
1.14996529052634
1.10296575682606
1.15438303574393
1.09546179510096
1.17134069647692
1.1507112345932
1.16334384368289
1.0575485364457
1.12048043361284
1.07918629105549
1.26224876231269
1.12415458271187
1.18943361716869
1.18910098650722
1.22885076480861
1.1918840121306
1.20517250770278
1.15575615268212
1.2310506617166
1.07860900805834
1.17611700774684
1.10637537669797
1.21018366230281
1.1901637524812
1.17336417287116
1.10408468093904
1.30829048866073
1.18941822958661
1.15757621059564
1.13496225361537
1.25700994833677
1.195700054919
1.21368754772012
1.18176674700025
1.33739240107225
1.19245735799929
1.16118489340264
1.11857105976978
1.22021103099966
1.19533506061153
1.23220407015098
1.15360370923671
1.20071452157732
1.23834752334892
1.38353365369322
1.29057521636803
1.27548666775747
1.22128385153742
1.25885542884858
1.21334557576816
1.22133417104831
1.24168205868414
1.24845778148611
1.21805999357945
1.28643860339215
1.14596361269052
1.32503826139244
1.18439582260108
1.27534844137933
1.27125191883716
1.30312435898305
1.17043032327264
1.22213156135829
1.22659557687389
1.28560436825421
1.23273285362291
1.30816723841579
1.27048054147827
1.21863527371112
1.16609443474566
1.24712727801934
1.23048545593398
1.29261229018772
1.22908639612092
1.36529685553623
1.20333769375219
1.24781206230655
1.24246650584296
1.26614583839356
1.28993519114116
1.30864481516082
1.23772133549464
1.23163793203154
1.23584610225626
1.29075118497168
1.21729286085388
1.32152774871411
1.19223295458049
1.32753435291848
1.24564287138517
1.21280313380518
1.25040793401756
1.27413220504573
1.21286024608386
1.25909456051244
1.18043235265271
1.31834143839061
1.2557295165599
1.34916093063723
1.30819131764587
1.32057678132435
1.21274878783726
1.32137853317692
1.20404601153485
1.17851494598666
1.25728632558808
1.2995579987563
1.21074998863535
1.2817691415058
1.19870532444069
1.28952954524584
1.17706558672343
1.25149974495925
1.29369564115261
1.24886437382796
1.13873749344212
1.23557696157147
1.32458121594203
1.32409389745345
1.25002604800708
1.28305934772777
1.22039097619308
1.20968167271573
1.24161902336477
1.26449765302088
1.21087595827223
1.18875916207605
1.19823072423805
1.29206375304643
1.25368881936195
1.25661914362233
1.2753019368538
1.26104096804032
1.22917130848296
1.29746065176183
1.26867619314432
1.32779925354275
1.14000545912386
1.16274170231931
1.15373095591572
1.23522187702963
1.21782618842016
1.2406240830673
1.19048183478746
1.24770634185195
1.19709976972862
1.2756463601798
1.19628165051932
1.21042618464516
1.16133980830646
1.23699365379438
1.27205572535352
1.28311375036237
1.24202093818349
1.12479269640596
1.12749591783622
1.23975300666146
1.17314440416258
1.21002040909018
1.20274450995662
1.23896659143052
1.17944472958094
1.18017342606509
1.19056030335338
1.20844942963855
1.11774343175683
1.18739179516805
1.15830638206925
1.17615329447963
1.14214263330323
1.13930004366694
1.17333595879243
1.16636112423394
1.12617332199604
1.13987937113999
1.14004440446409
1.15646856767072
1.16738202417817
1.19740168625418
1.08314252938128
1.12816822620418
1.11474323586072
1.12294280383298
1.10996304988667
1.11763280936719
1.06325062641667
1.09476207352279
1.09859971325288
1.11903946551035
1.09235204361993
1.15289326154551
1.16036640756771
1.15891766842254
1.08822472206375
1.09150524042496
1.06994493155638
1.06261830878121
1.04825952131716
1.05301542093677
1.0766630500914
1.06994765575708
1.08746824081535
1.09852323646445
1.02870234475309
1.09493884739461
1.05569822734702
1.05213231900658
1.05932605502545
1.06007817065968
1.01566920363704
1.07951325706825
1.0294323805127
1.01249328324651
1.02001281564141
0.990455206379227
0.981638084160837
1.03043853787119
1.0260862638126
0.995182448139139
1.00805759219382
1.0231360312386
0.981985555733378
0.985903452019191
0.9756105747599
0.996894814634602
0.969566308096168
0.996808799746891
0.964020562260998
0.968739514628605
0.952244860291801
0.960897724264116
0.931260117237479
0.951974149853824
0.944158881427531
0.976535102803541
0.919641157194468
0.935107644657898
0.92601377131641
0.976965968102197
0.939514951264969
0.923069673373523
0.893669360392676
0.940834457391744
0.930409113624293
0.910981295071374
0.884697250419524
0.896720404356957
0.886283885122228
0.884212025513103
0.87199022624944
0.87758206826564
0.886726013371949
0.900088653083853
0.858995766649359
0.868691203584194
0.849785140450627
0.85014676269759
0.852935499858542
0.877825797539503
0.832610220178258
0.845414265806272
0.852189274504623
0.834493297139626
0.808071337216245
0.83425264047465
0.816909950339188
0.805234768911231
0.796985691671816
0.811122279686272
0.792905890392014
0.805031555423265
0.797390939663327
0.794337552127656
0.792568927398241
0.804599086866491
0.787417522486197
0.776148389287048
0.767030258731067
0.765567467458655
0.758816119223667
0.759721798468725
0.735952673634852
0.738863155863369
0.733977318219471
0.748309721691018
0.738274990686575
0.734442599151508
0.710605567294388
0.73488032246821
0.722671076151958
0.71824312221629
0.713846030375107
0.734503902535906
0.713248539212534
0.712218278700391
0.713750649415322
0.699469984020597
0.684251574507666
0.692437798780893
0.68897313788666
0.682994453288528
0.679908660670276
0.681697602404314
0.668672313348993
0.664247599238836
0.651860872220744
0.654792725083893
0.665537971791453
0.661877927037889
0.655127937684494
0.67479554098272
0.655709378972157
0.646830624492595
0.652835219066213
0.640479967482528
0.626692183692574
0.635074597240083
0.631497578923597
0.626192346002103
0.611609172130905
0.623063987425828
0.609875852271874
0.607574417359862
0.606127710913785
0.610087558344181
0.606210930008322
0.60534379247869
0.591730606299039
0.598877280740627
0.587286503955629
0.587817385273438
0.586816681656673
0.586746030385003
0.575577123300012
0.572325105972962
0.561550755894213
0.560406537454635
0.567097355119858
0.573553655218593
0.567421630986459
0.561282411836123
0.554169016160784
0.546488546477724
0.545410822635063
0.556433795661706
0.547987111922986
0.537158817491045
0.538948524103371
0.533185204609866
0.532522356586517
0.527739787653427
0.526284522652227
0.535282206094814
0.517424715990418
0.519143692906472
0.515075840260137
0.515315190433658
0.512437302544497
0.517087960239349
0.50884350803291
0.500779214754065
0.501888400830358
0.494840663559495
0.497897525316402
0.500288255189156
0.491102475137798
0.495044558819314
0.483755334958741
0.495697947490956
0.474500529820483
0.47620733559638
0.484604626358342
0.479891794108544
0.478997283466407
0.470604307833361
0.46341255092732
0.462964701383667
0.469538494086872
0.466540693117153
0.464367449471006
0.456887370308953
0.448591331111865
0.452884538453802
0.454040740162651
0.441162573419777
0.439359683500319
0.451921673354795
0.441911153510307
0.436348591685798
0.440995028136879
0.43384342691326
0.43011343582857
0.428233354181236
0.427118366314104
0.422887788497995
0.414040809872941
0.416086323321082
0.415723607435555
0.413654660323569
0.413337749160754
0.411820196493216
0.407136257378095
0.41188065700689
0.406934443282016
0.403888151419081
0.404282778507644
0.406173307376667
0.389996161457474
0.392580551403381
0.403248855817161
0.398501655747592
0.38991302523174
0.389909616642415
0.394932046779518
0.40151714315043
0.391398959557365
0.387605454240515
0.389307946601529
0.385391400749029
0.380267221187507
0.38354437817086
0.377778338162547
0.376202675585112
0.380950309459989
0.382817286271659
0.378178777262769
0.382001217989042
0.386751185554745
0.381213014341843
0.382502762230916
0.377842632682738
0.384506371899944
0.377547092673345
0.377995993898892
0.385520784125559
0.378041867050226
0.381163994438444
0.376952321549858
0.379115287412802
0.374390107426648
0.382696638856755
0.382527306902734
0.390043059023204
0.388503755198289
0.38307730065563
0.390424353278035
0.389847926052774
0.389805549480463
0.392130247299011
0.388227678126867
0.392775186573178
0.397022710327854
0.394095230698512
0.385890413191955
0.392660321246209
0.401685962186044
0.398454224016533
0.403174790734143
0.405075412613015
0.410065980555331
0.410082392751205
0.406495931557589
0.409366362697789
0.413407897463238
0.417452659638235
0.416608931454112
0.417491887290814
0.419872987295906
0.421642104698784
0.426436822487865
0.427819797041562
0.431252230134325
0.43641759080349
0.440785414171555
0.44033885806556
0.435592196764465
0.43397273194916
0.446642819085883
0.449713099254233
0.462119330343667
0.460222022849737
0.460210757266582
0.468792785742068
0.46198233571089
0.472305610114853
0.471800337969914
0.475840568643987
0.474895330986415
0.472707104081396
0.480101934909171
0.485918974854576
0.493121729773447
0.500653392134419
0.487626150229038
0.48816356776518
0.488142689547543
0.49775260461942
0.496655614443885
0.491361627229504
0.488935461127051
0.486386219342587
0.495097517201936
0.500591113960977
0.492249669785384
0.493888293402099
0.49312224823603
0.493537418352355
0.490831167887943
0.495997531505215
0.496887644181695
0.483780420046384
0.48241256949059
0.49209696319754
0.487203776439857
0.484444989065485
0.485080360614253
0.488689978969269
0.48869093996216
0.48604324690572
0.483105714172706
0.480525515233648
0.488835043374468
0.486836384944472
0.480171497211863
0.485035809085664
0.491275181171553
0.483834824245898
0.485359705420806
0.486265916448779
0.479851884787787
0.491051358680919
0.485062143872773
0.492426191466372
0.495847263473931
0.495992208066203
0.48644219868239
0.485711648902188
0.47963174651624
0.481584314576816
0.489643174072282
0.487675045118413
0.487667030001312
0.495294276364704
0.489160597944123
0.493423609790445
0.48424393049559
0.487739274138878
0.493559616880174
0.486067102901055
0.485791835136826
0.482203525183588
0.485213226093754
0.479427667412332
0.477594191894751
0.473048685455564
0.470663560181692
0.471281366739701
0.475550531990128
0.468834303731761
0.461837263092328
0.461061011143353
0.46454870395697
0.469524135209397
0.453328332411556
0.447657763993527
0.451300048558471
0.449152957418693
0.450326259559976
0.442064841340937
0.433907399132577
0.435023515656814
0.43326584417741
0.4250890662067
0.428146226571246
0.422458298830726
0.414896039106709
0.417036121236994
0.408290029364898
0.411136725930094
0.406327508797189
0.409692455981368
0.402582564628637
0.399298147762909
0.392521442921626
0.396444071347142
0.394359895082228
0.387119679329115
0.382902575093917
0.379524759190123
0.37617098450425
0.376815871063256
0.373365545641673
0.365096530108682
0.36510828052355
0.368679747617957
0.367874483139418
0.362273241476729
0.360678521218721
0.356680705083086
0.356858990164696
0.3549567041288
0.34956946186654
0.354434881353876
0.356888395717173
0.345938359736866
0.34279042072747
0.350237694043146
0.34348129451445
0.342583255715644
0.342485285348155
0.340447974072636
0.331806865832226
0.333885865722743
0.329830913840109
0.330350262052125
0.327505013611082
0.326511855964291
0.326601558237144
0.322826594189256
0.319271678063274
0.320303656488092
0.321399824362864
0.321060429985442
0.315805398617374
0.319352473973597
0.321098948503861
0.315847732879967
0.311688485933433
0.309053539494239
0.306101791798179
0.308389705751228
0.308410631273847
0.309177703067842
0.308664783216356
0.302364119366419
0.304215022452145
0.300797814545056
0.297261061330612
0.299025178504837
0.298660176943854
0.29826045923035
0.296286717078709
0.294158782509008
0.293948813441902
0.292481792241406
0.294759548058168
0.293141490868261
0.291856786320912
0.287848764868558
0.284671178184606
0.291087547414481
0.285626610967433
0.285228053085664
0.282995946894757
0.285855550096465
0.283683125312753
0.280621617531756
0.279004040191556
0.276850495607502
0.278005668928704
0.27539048640556
0.280534851811211
0.27983929227174
0.277640500430146
0.277212509131013
0.274490984406795
0.273027787010695
0.271588727807472
0.273684675430899
0.274059167439769
0.27202978257183
0.272452939837287
0.269987025508738
0.267441527403029
0.266686358183736
0.265278337512746
0.267951694322766
0.26979093961517
0.264820358843177
0.268511897333589
0.261456435382974
0.264819713530237
0.262216208735539
0.260175320427068
0.260242277795867
0.261987114555829
0.258051769011462
0.263178719819055
0.262381413921254
0.257210005669316
0.255044840791909
0.256069357761736
0.253771393948744
0.256764152566584
0.254701976712345
0.258447186467933
0.255474813613338
0.254673654228359
0.249600889213731
0.250700611631239
0.249533313495778
0.250277267710973
0.256206681842668
0.2512147049116
0.250639792942407
0.252311241899393
0.252254698092321
0.252402839751676
0.251113117932137
0.249764776295097
0.247193419628763
0.249148663188245
0.245547686961224
0.246740554907277
0.247988463117213
0.24825780482842
0.245742188883234
0.245384424767851
0.24475456874237
0.248327486603648
0.245797662264207
0.244990255795214
0.246105305861495
0.247551579871803
0.244728101344444
0.244708758121381
0.243405998232698
0.241293941992374
0.240288392943802
0.243392638641409
0.241692613342374
0.236262761324238
0.235712116955481
0.234343246464399
0.234587697924734
0.2352204081429
0.237575577904983
0.237246469565007
0.23097170986677
0.23471778095933
0.232204215697252
0.233404285180174
0.235315600581486
0.231512322527189
0.228833998726378
0.232560238334
0.225935783554432
0.225654630812771
0.222740519322594
0.225118223027969
0.229286475818153
0.22581146085701
0.22457134127313
0.226627081517829
0.22465393743261
0.220375406967777
0.220004622364472
0.226358548662792
0.219161944802404
0.219914272388266
0.222075004230721
0.218922097804077
0.217029399688759
0.217614242274311
0.216282045751372
0.216689620102544
0.215934426273809
0.21708204945671
0.209745589168098
0.211894047897447
0.21402868819969
0.209873495912353
0.209988866333077
0.208853735022645
0.206086643344935
0.204785978561037
0.205561659234887
0.207472582556173
0.209647031737499
0.209732010212298
0.202119286688533
0.204676185778086
0.203553275988234
0.202846758773557
0.202683355880253
0.203103629748536
0.202092460820876
0.202396187551505
0.201180162261046
0.203196339738161
0.201521724878999
0.19691485048514
0.196026137996514
0.197720422943502
0.191826766878869
0.194518749265968
0.194509173361499
0.194780816251191
0.192165983499333
0.185688903425539
0.187480355837506
0.188553247265812
0.183312484930607
0.185498798856584
0.184173864692212
0.182455240075853
0.184708397840127
0.185575849231565
0.183016330303751
0.182697112172464
0.181548934951905
0.180672302158094
0.179857864895178
0.180361646236865
0.174830649348278
0.173660490573806
0.172281098698982
0.172748296610372
0.174233500351501
0.170089572198775
0.171373851447789
0.173638436555949
0.168201744996556
0.167656102126394
0.169360158895772
0.167670882232343
0.165892678228136
0.16795183018424
0.168311014229962
0.165860701762227
0.163178396759764
0.164919331447807
0.163896902421288
0.161586769076541
0.162193117945625
0.162588788816149
0.160828637680414
0.164233168518371
0.163971339297825
0.159602179222936
0.15991684127929
0.160452715518731
0.158690426778963
0.159018108879034
0.157352589993121
0.155473843836592
0.155527266168616
0.157673068210323
0.155373805341992
0.153401396848552
0.151808653774207
0.153089942925598
0.155719870889884
0.152885946521859
0.151150281727189
0.150917944657667
0.151845532407924
0.151696954680417
0.152205636612205
0.152925166408468
0.149803827182109
0.149002703675839
0.151881525161
0.147794260172659
0.142360706200015
0.147083310620673
0.148906263838791
0.146016706265388
0.144080475180937
0.143413016815687
0.143749984396551
0.144862065514826
0.141038874049031
0.141295626321942
0.140977082344772
0.138330040916178
0.141736223535246
0.142396474911264
0.139399249325259
0.139941099689117
0.135950934333527
0.140597577043686
0.139781584880169
0.13911100603948
0.135477862044056
0.137409309435835
0.137517622279793
0.139413035565913
0.140534224728414
0.13795494988336
0.137261601508949
0.136019286292142
0.135265208674532
0.135875936549092
0.136940663460569
0.135132735959411
0.135910966296697
0.137605685109635
0.134137565261642
0.134354602796007
0.135376791779836
0.134474400589059
0.133469061745883
0.133621009302387
0.131413771321563
0.133807548978427
0.133414026544467
0.137074645345792
0.133728473441945
0.132224992066636
0.129591896136065
0.132738822171263
0.132447327228521
0.13349783391219
0.130595214672223
0.130860564594957
0.131501259251761
0.131414578439961
0.131050951409119
0.128228547872683
0.127366000913855
0.128512136356007
0.129057482698949
0.127436507036633
0.126030398741197
0.127746330436225
0.125389335649046
0.128563598567445
0.127795526034415
0.123586864072304
0.119511718513613
0.126457265847615
0.125976314976709
0.123614011351952
0.122755726350528
0.122962538549429
0.122040062781186
0.119242824676429
0.12104868701432
0.120656292425159
0.121056169939326
0.122316024341389
0.120152398966669
0.120996853755776
0.117300594614249
0.119631354849182
0.118151997545655
0.116715032460608
0.117319286719713
0.11895856645035
0.121026006112379
0.118280772689252
0.116853798841744
0.117836421782265
0.116184076158934
0.119988433575546
0.117769187775429
0.117923656973896
0.11805877968199
0.116768442188835
0.117454607027808
0.117303650306308
0.117346189088592
0.117600564318187
0.114096986176614
0.115401530020954
0.116696264024474
0.115052628090257
0.113382308472634
0.113754601329498
0.115730549285761
0.111284737762259
0.111275735022485
0.11058685270844
0.111499952569711
0.112507801823074
0.110281233936043
0.110928196313284
0.110796657595901
0.110458857958143
0.110190188385592
0.107821376838176
0.10758782934769
0.110135525947511
0.106943920166087
0.105047316736712
0.107175596502337
0.10660444964839
0.101967801233116
0.103749031563324
0.106225039854193
0.102272046818475
0.103395366339177
0.102097534026006
0.100944171331781
0.101487662041879
0.0999293355959583
0.103383164825842
0.101683929831752
0.0991453583318131
0.101016412962495
0.0999863335364227
0.0975177697095022
0.097666281347619
0.0993259008430774
0.0953663282071482
0.0955199169065277
0.0975432261130555
0.0973351121762295
0.0973226569729388
0.0952898943767094
0.0966400625815959
0.0934340681428725
0.0945924731231313
0.0956863629928789
0.0957647671508085
0.0943774862342703
0.0963655035065291
0.0939528682949094
0.0927656607668112
0.0951304809079926
0.0942547539106424
0.093119414136384
0.0907423896898286
0.0893411261302594
0.0909576290677876
0.0921049573089803
0.0902635508427722
0.0911144568606231
0.0911834020774698
0.0906469615642539
0.0901882678357504
0.0898902603396523
0.0878595874308258
0.0875123677874909
0.0891906115407612
0.0879966578765791
0.0881375241963547
0.0869287219878497
0.0864172874948088
0.0861507032365192
0.083813250662158
0.0851099068708427
0.0875074495666156
0.0835586360940007
0.0857567457466349
0.0850957661963149
0.0835064268386859
0.0818515969902983
0.0829868914417751
0.0817533306666253
0.0836394027063117
0.0841691805948949
0.0813270153508563
0.0806938235540681
0.0807519703024503
0.0810614483716145
0.0811854276483293
0.0823576218108796
0.0832009964030473
0.0798038065606399
0.0791149820271066
0.0813172549302003
0.0812831592821032
0.0788330292263456
0.0763878879101539
0.07788606387907
0.079565265589013
0.075584279803535
0.0753754878003096
0.0782821862669014
0.0792868956566004
0.0785106190173097
0.0770226076830527
0.0770815100554958
0.0780361185600717
0.0789007023595981
0.0766029394441202
0.0774609841686934
0.075248177925512
0.0744185234963106
0.0772860123120681
0.0786100510745473
0.0745858356460515
0.077253257704588
0.0763616495687224
0.0741841374562914
0.0720648459217783
0.0752598568025929
0.0721040391663227
0.0738004200972847
0.0757667081951266
0.0701481043858409
0.0691580433727635
0.0660401365435133
0.0646982556302377
0.0644180378235779
0.066260779014747
0.0757258725182264
0.0760319805847895
0.0690901126686046
0.0595827717412796
0.0656719689299883
0.0743555435904175
0.0645602227583451
0.0629955889404344
0.0698656209513065
0.0603333306293616
0.0644856610333783
0.0655154650694828
0.0653166446757949
0.0633428869214539
0.0654806088783531
0.0686208429846597
0.0696033816378154
0.0674051242161225
0.0770488240989077
0.0730407248784878
0.0728782896307846
0.0657558323145501
0.06842968434004
0.0613154137316424
0.0698872029951616
0.064075838220439
0.0699958860224066
0.0668932768461692
0.0678159932110462
0.0670523355866136
0.0652263472210273
0.0597533555314176
0.0695640480405953
0.0643761784118253
0.063646558808398
0.0574020563983277
0.0620342494051067
0.0646002647326181
0.0730940890541296
0.0698435159848884
0.0662453824191734
0.0599701288913708
0.0559720796596364
0.0689827904695558
0.0743004662484918
0.066513308768992
0.054967115144412
0.0732168003427252
0.0664940923323659
0.0758188728367816
0.0533001488526838
0.0751269110105166
0.0620960318719488
0.082487315019313
0.0497709367060258
0.0824607517641594
0.0595226404722603
0.0773322513223303
0.058918852333034
0.0814009501017154
0.0628636829548865
0.0706094268954056
0.0664732247912608
0.0664280772243892
0.0687937720303536
0.0659475440551192
0.0674112760252263
0.0654284767429358
0.0675617557347929
0.0677380200432556
0.0673841296679976
0.0690977156760244
0.0626492226088727
0.0687734822316193
0.0643946447121564
0.0678405445527221
0.063403755538543
0.0651372232747771
0.0649316953514534
0.0656560495801422
0.0646330810306373
0.0665878525932462
0.0630625381920739
0.066992438184927
0.0650536490228767
0.0652672231698886
0.0639055189136545
0.0691066250173531
0.0650650472123218
0.0687182549143568
0.0674471946115701
0.0659292391580533
0.0631077618220605
0.0674624897141069
0.0672968749526906
0.0673960181055383
0.0665783367590038
0.0668041723487188
0.0634555924131087
0.0667128184491069
0.064530240131189
0.0675218055535877
0.0660480248803455
0.0668431451016703
0.0671304485994317
0.0670102888894793
0.0636052892525588
0.067693622162075
0.0645611929867751
0.0645997532913933
0.0652451072015925
0.0690734699449967
0.0677400889817967
0.0667169495128632
0.0676780395159618
0.0696681197583326
0.0649686737124601
0.0663611589302344
0.0668901355469908
0.0694520027377623
0.065239279021601
0.0694425351581109
0.0691873906592572
0.0685246970995093
0.0663858824605533
0.0680380177725762
0.0670466086683485
0.0671719202116135
0.0672481342710617
0.0686696404161507
0.0653405785186646
0.0682442649923016
0.0668472979862247
0.0673078537066623
0.0641515788659826
0.0653261317130525
0.0668850172522823
0.0675274410786438
0.0684898082881807
0.0695304312845358
0.0653549431444397
0.0669957456392663
0.0680734683686506
0.0692156692567906
0.0672394310313115
0.0661193232267611
0.0671210917749382
0.0697497433467502
0.0664840552177428
0.0687754822469419
0.0669128041457238
0.0675186560687186
0.0667764422219592
0.0686566356997801
0.0659520248094629
0.0663078456552996
0.0684893559539548
0.0713943651514334
0.0692713402240902
0.0718450841095957
0.068988161772599
0.0677528803793482
0.0673211197029706
0.0721552701384452
0.0684047193980922
0.0696057025331304
0.0705437772232409
0.0709455868457866
0.0686843102267259
0.0698259495206824
0.0693135331431713
0.0715063278912552
0.0705682165749402
0.071673657469357
0.0724772577678845
0.0729039262593899
0.0712117829358759
0.0740391665464917
0.0700090351677178
0.0705899393132949
0.0712006492648306
0.0707410949609286
0.069686515348193
0.0726560435386895
0.0707782554719356
0.0718204024148082
0.0721742937993309
0.0721728062264141
0.0709305727704652
0.0720104650461284
0.0708867437547507
0.0726471342357714
0.0711524459783769
0.0739116710735438
0.0726815860197482
0.0715887565254112
0.0715734879739846
0.0724952689485021
0.0714447773649556
0.0731983451685143
0.0717029858267128
0.0722781166343926
0.0735485119302631
0.0747046827719538
0.0735356601308308
0.0742230408709243
0.0714388125651462
0.0737485196653482
0.0739928066403341
0.074292715790319
0.0718849429490315
0.07213538678847
0.0722159505265191
0.0724554156413097
0.073318225657526
0.0764704701477531
0.0729129472318433
0.0754230758122244
0.072946475806165
0.0759697468997848
0.0748986768189438
0.0751617933289791
0.0759422290452571
0.075959692114015
0.0747284354332078
0.0743471708718003
0.0764368862300982
0.0772737587897925
0.0743454599123167
0.0765306167130863
0.0761995721521179
0.0785227206320678
0.0746408676359557
0.075491937201416
0.0764959120813149
0.0774360928174475
0.0763406157307518
0.0760293288244236
0.0740675805794289
0.0757145368526948
0.0758324243600546
0.0762590143410603
0.0755894435280443
0.0761922804199987
0.072736640566623
0.0735286172900304
0.0753873073136154
0.0746857061734781
0.0730549743849681
0.0752732215263369
0.0753192430974683
0.0736783564124198
0.0733118074936679
0.0735720079616835
0.0737379896072791
0.0742061503118349
0.0725345688886599
0.0746069608992045
0.0721838932756473
0.0724250481006793
0.0719708428259987
0.0735351117107714
0.0718559840215314
0.0718923670128741
0.0711184305432384
0.0724139522596586
0.0703387133871512
0.0714213546797358
0.0702945885285604
0.0711992452992919
0.0722272237412677
0.0708605622159316
0.0696267820294325
0.0724833424874299
0.0723688968248819
0.070616941638026
0.0696916379368817
0.0718001089461632
0.0704407490709302
0.0703687735533577
0.0718217078423544
0.0722670205388258
0.0705301594428454
0.0741003776442057
0.0710605752281457
0.0708887601155555
0.0708483205860129
0.0702302296244559
0.0699780050490632
0.0705870932657616
0.0706211829352204
0.0696530982663809
0.0689016878370211
0.0705281800420361
0.0694448527619986
0.070892509338991
0.0705171219744896
0.0689095451513387
0.0678043007437734
0.0698906426046381
0.0678269367744653
0.0694942919286473
0.0701560659443899
0.0684487747207633
0.0677628219384495
0.0691234242887879
0.0690202589426968
0.068928270348803
0.066993071359149
0.0669790811684428
0.0668584230117955
0.0688520225196134
0.0673689291183231
0.0679535795197715
0.0674533962645951
0.0662122012743279
0.0666289649713636
0.0691293212165536
0.0664456276790124
0.067063318440307
0.0670874931628535
0.0663712826019495
0.0672716628058082
0.0669887182881597
0.0653675967966965
0.0666386395490191
0.0685095685066958
0.0700066591205427
0.0668292156989944
0.0681354331901474
0.0667247595999938
0.0648732387079116
0.0637807155869387
0.0659307724283177
0.0671671981734075
0.0668898628669619
0.0678365840267892
0.0681494281703866
0.066377847181299
0.0666222366998268
0.0647623480467958
0.06628157589972
0.0642907188201102
0.0645608945186978
0.0643276501806132
0.0639669332601335
0.0639509915154593
0.0654210694776008
0.0664075340644008
0.0642716028239298
0.0632538586090348
0.0657884226464162
0.0622939846949955
0.0648316892913724
0.0643037138070842
0.0630104191996274
0.0643191772001382
0.064433885451706
0.0634345716256811
0.0634425745860819
0.0620846699778447
0.0642196170690734
0.0631011482978072
0.0622011265244606
0.0620446142192729
0.0623275861505033
0.0622394939139457
0.0612845063582802
0.0600970026422412
0.0627195247840424
0.0598813713942176
0.06013480569679
0.0603068857094392
0.0608592739634402
0.0598457034608221
0.0612179707756694
0.0583719193127641
0.0608331435571757
0.0622556519897963
0.0607463507090095
0.0577151308251198
0.0586480406830002
0.0584909000072606
0.0585470079071483
0.0574060059961909
0.0585438586135967
0.0552937701733712
0.0585723989768663
0.0572419136319583
0.0583897489326498
0.0552093584397193
0.0559648135965159
0.0558371509228429
0.0566408474364987
0.0536301922825515
0.0548060870846721
0.0565176123739458
0.0554105881485906
0.0520197866343539
0.0565109577958739
0.0551056149676671
0.0560889133452938
0.0515811423667721
0.0590664506190439
0.0628301861392887
0.0560932219199766
0.0557370905471875
0.0585648097393571
0.0560097039918067
0.0555436232423983
0.0549939233404465
0.0531841426494278
0.0520929725255338
0.0554119964448516
0.0561312289758068
0.0539022702826399
0.0517841275818474
0.0542723387708466
0.0532664239288536
0.0544185092831902
0.0549229365980781
0.0542186188186606
0.0531591128554982
0.0546806303166827
0.0528159701584742
0.0522851415731141
0.0515432132051539
0.0524419870707572
0.0521854798655568
0.0518973998706126
0.0556499615985487
0.0565371869425359
0.0532830886204049
0.0508326503468514
0.0512683993911626
0.0521141476485159
0.0521088209346959
0.0532637586716205
0.0499661772224674
0.052677516880343
0.0539720189776439
0.0503233396511875
0.0500070723592116
0.0507522005318436
0.0504210372585235
0.0516275742643271
0.0495566778020897
0.04989074850756
0.0507707159910795
0.0492572495078498
0.0479876531854457
0.0484516025261766
0.051674559766496
0.0518048851965456
0.0530594204720127
0.0482185526111164
0.0493931573324963
0.0563739105344713
0.0518915301084628
0.0499570623784337
0.0496648800413585
0.0501975087189959
0.0482055193324954
0.0495193460929169
0.0481906571044066
0.049144249009399
0.0472357249504378
0.0487973815705522
0.0490761051861909
0.0488376416898683
0.0496543390672108
0.0490933732086135
0.0481044718848465
0.0476935866629198
0.0474822756794355
0.0512099016512646
0.0468918991394771
0.0480444116980012
0.0563755659184028
0.0531050160526851
0.0524400529440181
0.0492955095958582
0.0438104204923655
0.0638565779664145
0.0537492858715607
0.050210723305251
0.0501531166969065
0.0506536525211516
0.0465379142786498
0.0514025107588439
0.0467668962759461
0.0487125895774279
0.0507654690865382
0.0527392806706449
0.0515160085489633
0.0483611262482262
0.0480514058127496
0.0504640109621264
0.0474738948520183
0.048298544792522
0.0476763483884188
0.0493300778201576
0.0463604418004566
0.0479173002265466
0.0479967670769444
0.0506010584546342
0.0456684074537507
0.0524195197241122
0.0512207928202273
0.0502805528032326
0.0463263226397443
0.050151093570948
0.044307498323752
0.0521092164812756
0.0562474816420842
0.0505844718444914
0.048016125012882
0.0504397168306964
0.0486253579041003
0.0480444663013902
0.0479663642674508
0.0500906683556904
0.0480228429739022
0.0478607398068772
0.0510078692791713
0.0497046845453217
0.0467243824634828
0.0475545912194748
0.0501457487632681
0.0469076972623335
0.0471034982160891
0.0496838707638933
0.0474201380457466
0.0473954319859291
0.0436283309738543
0.0620252126555708
0.0563379927432925
0.0563500617785408
0.0527399318622265
0.05056214671284
0.0475670294782626
0.0499059659163694
0.0473874881770682
0.0478578815615999
0.0489241334450204
0.0529064790954526
0.0477886583306914
0.0515150596734993
0.0487719752384525
0.0495143510567717
0.0485441967955394
0.0514839006238342
0.0478868528814424
0.0486790307972946
0.0485062280840954
0.0500379280991991
0.047908441236099
0.0465806663962873
0.0506729882206223
0.0523165487451978
0.0508282182056551
0.0396349890110325
0.0660976432822683
0.0668627074171552
0.0581348991117973
0.0513173232596929
0.0501620206882896
0.0496787315223337
0.0482774466392876
0.0499610659542404
0.0536803328995281
0.0499079050933992
0.0519449578767361
0.0502549466198545
0.0511700451157545
0.0524029778007119
0.047100601793003
0.0593797084044086
0.0702586038091539
0.0596349984600574
0.0575056587680914
0.0445359793220173
0.0558643872227911
0.0713676831177012
0.055765922072183
0.0531250360706696
0.0535068637314984
0.0538940837955047
0.0497132187075111
0.0512273692643201
0.051779829921035
0.0581050490907943
0.0529569251478293
0.0539667775375102
0.0544721151253929
0.052621842214586
0.0518212376800526
0.0532153146203022
0.0567622467206232
0.0617690683213566
0.0558770156297371
0.0589658118807247
0.0563266073173499
0.0546387123662929
0.0540157890527766
0.0582791703909614
0.0518055339505054
0.0577736919099859
0.0605090241907364
0.0579801927359263
0.0629762623193611
0.066896132417403
0.0563096640986702
0.0590967286067557
0.0589315447100991
0.0684053857107448
0.0470165905138553
0.0622084873254029
0.0675513455346795
0.0773337956471776
0.0668872969375629
0.0637769377246201
0.0584224823798419
0.060778418318987
0.0560053271993537
0.0560669445012834
0.0699781924612582
0.0623520908160987
0.0641644236401749
0.0546572184646694
0.0640977655689659
0.0678653524784302
0.0665096266917695
0.0584678865999077
0.0623035859261619
0.0554037129639538
0.0770373610487319
0.0660413278613497
0.0595107361860902
0.0765077979169272
0.0758858746702902
0.0875156136046323
0.0668844511437769
0.0632479056127538
0.0779183638721435
0.0738190226180056
0.0691856378800686
0.063644449361284
0.0693128857012151
0.0582515325933958
0.0672813499647304
0.0917965427538473
0.0725334058099395
0.0704476143328294
0.0685942710061448
0.0682893124873518
0.0863584947491893
0.081077158929643
0.0724666452823256
0.071892610940137
0.0727156555619215
0.0601551712995895
0.101697325439629
0.0826084816801833
0.0862063640939094
0.0852838952444863
0.09409731697641
0.0845465595548985
0.0859629562231887
0.0754714106559472
0.0885139977135408
0.0886628117011315
0.0877497092531506
0.0710343317056033
0.0918838947897455
0.0948617270683046
0.0905789509001195
0.0893084805963107
0.086840186500101
0.0751656886950708
0.102829908293784
0.133638932941754
0.117456485782962
0.0971247371429351
0.0983050840790077
0.109117270753588
0.103829833281918
0.099028723384106
0.0984335222685551
0.101178982020983
0.100049642989652
0.100931076057732
0.109778864506287
0.10469754536076
0.113016815056201
0.103446255889037
0.108766980499086
0.114212280645977
0.154347438395419
0.135549334867476
0.120266373983738
0.123901763486042
0.13276340116612
0.130178562696591
0.122348200020855
0.123246752154604
0.123567091202707
0.130183978087953
0.128074197073702
0.126191416118283
0.144857677651929
0.132475393476837
0.155656854121382
0.150180151182002
0.149000667029865
0.127615205859722
0.136817566269043
0.245982855134108
0.178187017077701
0.170147866096971
0.144134303728956
0.173553247679991
0.20518801741773
0.193452347748043
0.171559646881828
0.179771321663688
0.177087061000575
0.186499097275295
0.190588573618127
0.201383090124734
0.209685850734713
0.207610274747945
0.188936211392346
0.214953539324089
0.256283259485497
0.282303866685579
0.245370459169415
0.2419227957249
0.251242545739638
0.263609790983884
0.247141201084573
0.267649581241512
0.247222053990553
0.27803106780348
0.305330089227442
0.300332470877415
0.278750423742481
0.295967324738049
0.301328867590236
0.295529182643589
0.339828047092002
0.338523276443268
0.334655073466979
0.32154895074288
0.33645629037728
0.331402583913838
0.340106935795946
0.362404739313993
0.366082837921853
0.363252612227709
0.359379159129408
0.373568329157653
0.368386734256435
0.378092079486109
0.376692559824352
0.379519341588296
0.378473140257598
0.404586604819503
0.546008195119717
0.423399558658697
0.408104721228572
0.391483818350125
0.398206941573724
0.405729147227152
0.408185041907247
0.446988973742832
0.43214060123388
0.411184651113019
0.403665651854027
0.412070353715865
0.403975467816235
0.414008050946888
0.405283300246142
0.405751595041885
0.41920018414471
0.390642208925174
0.427889671725908
0.454490151874437
0.434860437291795
0.405922296093885
0.415541963865224
0.408525348883281
0.413319999554103
0.391515289039695
0.412256623747996
0.418102594917536
0.405768376400362
0.396537736460135
0.391724511375647
0.410211173165235
0.410862675732915
0.398771256840332
0.385836374025211
0.385884368205097
0.388955027287963
0.362324208369431
0.382816600902478
0.414910335882596
0.384390331400453
0.367400860186123
0.371763436928954
0.375020417973695
0.376017557398093
0.359125078251317
0.368782535901319
0.363155955164522
0.364462324476511
0.367792070630726
0.36068349257243
0.361728666661996
0.35926240767179
0.364081347392121
0.35353239363476
0.365932876420743
0.361412934994557
0.361992548539333
0.356622297874515
0.355918702103513
0.354913127799339
0.358932778146397
0.366793956542933
0.359093594308352
0.353689738460489
0.358221929061749
0.353827906535372
0.358816369096051
0.353683358517525
0.356450707019998
0.354924918001788
0.3564642381403
0.348561091093293
0.350603251674179
0.345336956232253
0.357178487943366
0.347901342400709
0.349972277192402
0.344228225820942
0.3501563407948
0.335104506660982
0.323428551255967
0.386816971249681
0.358741906676098
0.344431278521681
0.326481180725175
0.339256072936058
0.32088579642392
0.314313235149505
0.340174005228062
0.344032860272822
0.320042757307057
0.313016906926626
0.303482456971767
0.318376062619585
0.311759346753632
0.306214620807059
0.297482072523894
0.275963206857793
0.32067003334403
0.299642455221124
0.378716274842379
0.34415314090593
0.316734507784643
0.263699515553556
0.303355171414795
0.298736929951524
0.290009737568523
0.268077039027409
0.262698815702488
0.282960873159134
0.274863031897199
0.271491093581814
0.260775028370684
0.250991830037712
0.270889076168492
0.278572298341959
0.253333667517806
0.273158866896826
0.264434445446718
0.249276325183086
0.258509151122553
0.315082006942505
0.276735072573815
0.242705574525654
0.247749715355468
0.230293044698091
0.246018415924449
0.255248524467632
0.246330465573692
0.243700671798239
0.223326848558279
0.227837505823032
0.220639660394296
0.242499363000379
0.210163555971487
0.228693643066556
0.236438507046168
0.225744311748228
0.220613344454263
0.218713476976405
0.250676602683916
0.247908143018344
0.229483050092766
0.196182088356747
0.239660401107736
0.229361565175617
0.227032319710273
0.216882484972414
0.201980307626062
0.210095049637001
0.220388126271324
0.203623779301677
0.214507243431495
0.206750426513981
0.220237938798056
0.217535775242831
0.244296902177489
0.241757386941195
0.214011603777356
0.201378563099993
0.199363696948002
0.205228029017369
0.202191044026963
0.187182446842273
0.223492128287861
0.198333334222839
0.216944990755428
0.217463306523032
0.22479479618957
0.21123073198153
0.211032330812552
0.20551031803835
0.217574998010357
0.236589893670346
0.262040588924356
0.219695262258305
0.23406332290497
0.233137533167506
0.244367070149214
0.230999749214368
0.245095760426994
0.235534673554861
0.246394469449546
0.253626168995857
0.264687494237875
0.25569688665988
0.271610608745043
0.251740661935051
0.299418739495598
0.288198100400822
0.292361859948185
0.296882834395567
0.314900872640331
0.338933953213365
0.323554971628183
0.316919113909257
0.318863346047587
0.325248913391667
0.332919621255717
0.318053439966692
0.348190958236563
0.351458426556017
0.356236670062137
0.349595700387576
0.353441813510211
0.351837677442169
0.359079613267646
0.376205708592837
0.366852154331534
0.417189407433409
0.395078575701692
0.400916445066116
0.373411321940713
0.375754093842386
0.38036734963911
0.381961402882273
0.385963536879341
0.379139186725904
0.39342728892656
0.406330940506114
0.395051843999499
0.391491503018369
0.39175192605452
0.397196395761769
0.398699812155067
0.400561803032203
0.405088331982096
0.405216272122592
0.41575698388938
0.397018351114367
0.40999712924396
0.470692016847438
0.437511694829519
0.426681017938997
0.427897131569786
0.438898564649062
0.431166973021491
0.43599481822876
0.446746050161605
0.456674562203282
0.451510374173011
0.451659949314947
0.454943218377375
0.449502520131768
0.471821723468755
0.476505584858333
0.46182773931056
0.472681601589492
0.447007359233898
0.510845015621946
0.489680112511184
0.50393820297323
0.475005304967268
0.487540757083238
0.479577971069142
0.489063229260696
0.477506371209849
0.480064993517727
0.485693201331034
0.488674477009734
0.487625995400886
0.485627282434119
0.488649130538037
0.479772200520428
0.482481189116026
0.490877250794026
0.482945623453779
0.483195079122505
0.482697431709424
0.482903066562693
0.473833239000118
0.49561338422855
0.492291343198132
0.493725559467319
0.473727023500363
0.476582339841518
0.495893391205939
0.49498400691677
0.480144359239704
0.478110976289826
0.472880697689669
0.486243388674384
0.469533663888258
0.483441395036324
0.490717958427301
0.499086367939226
0.480358901322376
0.499424080524719
0.492942966667415
0.500777131111553
0.49622509376457
0.501138948817728
0.499572230321878
0.509513793170847
0.510258994689038
0.507042075311306
0.508462051145959
0.511994814888
0.52480921419659
0.522061188520446
0.509012728211482
0.511617323377313
0.501536767520137
0.506935261683448
0.501500053847017
0.503896537317095
0.490477048918757
0.501066783501674
0.477562239375064
0.492774882419496
0.500142357416441
0.483620494185036
0.477977298035042
0.472118251194811
0.471621071092961
0.461961651383354
0.465435025886036
0.457441917975851
0.454515226455845
0.4540008375001
0.453340162941201
0.445882591902628
0.442298776409717
0.440159580085051
0.441079177987349
0.445092922323612
0.441327352295811
0.443657984815655
0.437973155537087
0.438526215820872
0.436048004451016
0.4342959065421
0.431380906587559
0.434227394181751
0.442801545185188
0.437621034219859
0.444007567240319
0.430635206785981
0.446175303947924
0.436096873229603
0.437321132379958
0.431602856578484
0.433710036517131
0.427543618279466
0.433351094606645
0.433455769026995
0.43448164040895
0.427489363120309
0.433563918803326
0.428458838678725
0.428825753961649
0.434996239695793
0.428016291833869
0.431979721892214
0.42847572111907
0.427931184357648
0.426615250005757
0.43140237403031
0.42671774967265
0.430506729971814
0.426166562915912
0.43007574716693
0.4284299740502
0.433053538822194
0.433442540538026
0.428009506819444
0.427407951926255
0.427566696077774
0.426998458554872
0.427700172432274
0.426382790000985
0.425222397172895
0.42420343706353
0.420364478581776
0.420697012861788
0.411948647203173
0.409978719445192
0.411086806993819
0.410237688782556
0.403216884399299
0.398225294614364
0.398524050296124
0.395122244594527
0.390457336907647
0.387119235900835
0.38847890102403
0.379773130295493
0.379495358468287
0.378196597117123
0.377703232330546
0.371546979117526
0.37198752721047
0.372064903337848
0.371697269004579
0.367840888227623
0.368661863323047
0.366049030509925
0.366455838881543
0.366341109365819
0.368399361388696
0.366404431920485
0.367331284722472
0.363311154965283
0.369554025271073
0.370553187191246
0.374707443203616
0.372711087897288
0.374874469750958
0.375139467520914
0.374666188606081
0.376935846303344
0.38257860400219
0.384308942734044
0.383845357798928
0.387565812459783
0.389860419627603
0.385018404120413
0.387877602242415
0.388951285647984
0.390465699270354
0.398058162868684
0.390739756055494
0.393948127838093
0.392437310362051
0.391165940172025
0.393219375706002
0.391145301387252
0.387461876599418
0.387942738498852
0.38680980768154
0.389333266551834
0.383706817785248
0.380731698922692
0.380086016161703
0.38321722378558
0.38161617288796
0.378023713498187
0.375767805623249
0.378413715730978
0.376902794661673
0.373060304180786
0.371889039872577
0.370808371534417
0.370287002541289
0.368722982416494
0.365765587603531
0.362454304364879
0.363813845473078
0.360877970374538
0.3596280152057
0.36163660359338
0.358782745976198
0.360284871434226
0.356296566906186
0.354990339139157
0.355864313429807
0.352969203261273
0.352391456210523
0.351447268334416
0.351823002153391
0.347477585733291
0.349148987529609
0.347428221524963
0.344628381748385
0.343596643143554
0.343516762075277
0.342392553717639
0.339531673939547
0.33705974787252
0.333384064082717
0.330280085184663
0.329696960911894
0.327033391927324
0.324281050044079
0.317989904791133
0.316530102078018
0.316866566559051
0.315199957600273
0.315066040408507
0.313991963150494
0.313627626411521
0.310839422509169
0.310504167701202
0.312564501694917
0.31029986591271
0.31205454398794
0.310882411573155
0.307190648861124
0.305568933437128
0.304383556058748
0.299402214827826
0.296960689176953
0.293356960668392
0.29122348980547
0.286036210089313
0.28301633457658
0.279541053645074
0.276745488006373
0.273625357687867
0.274699230963282
0.274561155255882
0.274432497690867
0.277108064400221
0.282164620416071
0.284355964172026
0.290708330176279
0.299323222230947
0.306191112603995
0.314985873607985
0.330105890540945
0.337623897912416
0.351071601804996
0.366194039696909
0.380579330694527
0.396254639975246
0.407706026960904
0.422986362226392
0.437668991348338
0.451939369574721
0.465664121445302
0.478978848488089
0.49153709233969
0.505222246626751
0.517612343471355
0.529771200695065
0.547684182905197
0.552169258214991
0.56188011927161
0.579544121095902
0.586712970852635
0.593351395091737
0.599876976524817
0.612666707593144
0.618686619256796
0.62121394450389
0.629884977700021
0.62774952779854
0.636467153773376
0.64204170289116
0.640126238276672
0.641719507757001
0.644378724601762
0.643550066315644
0.647324597127712
0.639992583947687
0.646288502579764
0.643410926041712
0.650108232869492
0.648237153399232
0.647673748145833
0.645896141387602
0.657524108520077
0.663109350744999
0.666472761990944
0.668376499381831
0.670846007870527
0.672668860370783
0.689288599109632
0.689371248157106
0.694926889034625
0.700990911475794
0.714811410340009
0.718708457368746
0.729937822689796
0.739728814005525
0.750041309006435
0.762905148375916
0.768152006431543
0.785156765957471
0.799671331773802
0.805273768840619
0.818675163607613
0.826048408340057
0.829616091505948
0.832775335625772
0.836910099115757
0.835954054466153
0.829101637348909
0.829688249690262
0.83408618570584
0.827829250312829
0.827040017399721
0.81326568351495
0.81168686632373
0.808152202395952
0.812253963614521
0.804996362502244
0.820888900584927
0.828741483398978
0.841214371612999
0.853171212388662
0.853744722796067
0.867929820013125
0.882496404265822
0.894215839465741
0.908389867532124
0.925291065078044
0.941758269981225
0.940245826360943
0.964045165100858
0.985094895188158
1.00018427454971
0.993782092463525
1.024960072694
1.03321961950336
1.06003992340293
1.06018651954041
1.07243728658745
1.10213872583296
1.12085272801848
1.13910591364734
1.156849286044
1.1859950930749
1.21285256882732
1.23235256498783
1.25791230945376
1.2473152710273
1.28413108970499
1.29499145485931
1.32400992391026
1.30412882453824
1.35137206924328
1.34578876769389
1.36810924174543
1.35590740279834
1.38580077334131
1.35445237221948
1.37415000766479
1.39740916495325
1.4589192876344
1.3867232908829
1.3807246631727
1.36465921886547
1.36215421386972
1.36730581581575
1.36781338145281
1.36782675332444
1.36712061974182
1.35170765839633
1.37686351619501
1.39147456097999
1.37416925865722
1.3386658012064
1.35389888463186
1.42566745256651
1.43321106689914
1.42354382377131
1.41724531832778
1.45269207355052
1.46596042531678
1.45144296784801
1.51403842610691
1.52924127804755
1.52568213349179
1.5294825606183
1.5649155592445
1.51135321020497
1.61814833759226
1.51749652692297
1.59730953939557
1.52147607750891
1.62964777394323
1.62439144158197
1.70731344205578
1.59338493345162
1.61570910919721
1.63519207045554
1.57296764581661
1.61354829178163
1.66986895753673
1.64609330303079
1.68596003354838
1.70644287280822
1.67643443504752
1.60810014156269
1.6972214801571
1.62296515358884
1.60164422188077
1.60419022961536
1.66611560684819
1.55264810286441
1.61516509007526
1.6228857151975
1.56460011662622
1.54104688596533
1.54686983546445
1.49542910180785
1.47740300623619
1.40723381585763
1.3752342649545
1.28972078054928
1.29743302985805
1.24911475874507
1.16990973378819
1.14390386177532
1.08207485923588
1.06960676713255
1.05615596565719
1.01447482036345
1.03077569853892
1.01069266750802
0.992188929657728
0.987236063330336
0.989971595913439
0.967478447565299
0.963672888585447
0.92966683833097
0.955697057287064
0.92192831656904
0.929936509117415
0.898569642603602
0.899915046282669
0.867898036136032
0.85657852790073
0.82693592049325
0.815103468485011
0.790501964569355
0.761183169940096
0.7318033116513
0.713759659562643
0.686968174632334
0.663373987145379
0.633153839053341
0.608216567713094
0.570946648652133
0.552797337559311
0.528351731852321
0.501838421205061
0.475282271074229
0.461631615934541
0.433335116364149
0.417899195620593
0.402985126401835
0.395354115157013
0.377039081506997
0.367674184574238
0.353984409832499
0.34370973498889
0.335139018234998
0.330951436185378
0.322626773705725
0.31967378490728
0.30970988069639
0.312797420054355
0.306308165569622
0.311606813695767
0.307947719655996
0.307999458477001
0.31251726373908
0.313859431845192
0.306987002032712
0.309827736364253
0.311857367891774
0.319062305062028
0.320839393229431
0.314276922430114
0.321808158314729
0.325147184246166
0.319740035187535
0.31666026843208
0.317592171045954
0.319302644620062
0.31314756535674
0.312242194349781
0.304810549959829
0.304290644486751
0.303747502549275
0.305004426222107
0.298233176183744
0.295499676250592
0.293331236102135
0.295552847352942
0.297086303240202
0.299590836703624
0.300129321260634
0.304368855710071
0.303223223700265
0.305507458643825
0.305816650631748
0.314608381131829
0.314950017925865
0.317111586115589
0.310167899449592
0.318293806042008
0.323069716862899
0.325489353221188
0.325601929671647
0.331793559560875
0.338561117490705
0.337173045560462
0.335449763720394
0.34532626220304
0.331822217926686
0.339074567738938
0.332366463562179
0.339065813283111
0.336703903905496
0.343702253448285
0.350676316795737
0.346574617056266
0.351629357968835
0.355638057956522
0.358532064869382
0.374282791993095
0.367226160422139
0.387729411743936
0.391071790299756
0.396349702814106
0.420453675948458
0.425234040616634
0.435748226150428
0.456761514250162
0.450429210933242
0.457508205391726
0.463493155981315
0.474172382961044
0.459321684325347
0.466781692099146
0.458426300603071
0.455169966984734
0.444051197636419
0.439538966733064
0.426914472272086
0.417710597281137
0.410612169905545
0.426972879350383
0.417445792526106
0.408170513045376
0.412028977009066
0.426930049927034
0.418745754484355
0.415161227570919
0.423571104739888
0.424853785142688
0.413889302655243
0.41376075342205
0.402508044543081
0.403868086108254
0.401031834106002
0.400898878850304
0.397893612581931
0.386929401373304
0.387379851881416
0.386727453095196
0.382361030795623
0.379029293509454
0.386308335968636
0.381671653002855
0.375054554617099
0.369071194989962
0.36719802296672
0.367800120041297
0.361046500369255
0.368205387240365
0.366033039248078
0.355034203005974
0.360552285359526
0.359229425327315
0.358061482207716
0.35200492979057
0.351200543665821
0.361013397914613
0.351095908731194
0.352846426703663
0.343126725509547
0.339405834389109
0.337382141216489
0.353214815918878
0.34567983423684
0.344068575639998
0.354577336022403
0.345437337573282
0.339101628932468
0.334567503910887
0.337241005524014
0.34335801930073
0.327389242419207
0.342265207208702
0.335496529670266
0.338024510985639
0.32685701835784
0.333916528757057
0.325903287916744
0.332986086612362
0.350003079148751
0.347689982454089
0.33420939091169
0.342067369019815
0.3357748238048
0.349984800081594
0.3310944095292
0.34670311947924
0.337984452304064
0.342407305105184
0.353793448046949
0.346740118488937
0.352365969015029
0.359915034267847
0.356249658545178
0.370359437854665
0.359089212046304
0.367352849842481
0.359611052799569
0.373744238130039
0.364037283587577
0.377260085588297
0.3781346067968
0.387067152970513
0.388444102042797
0.404554873655781
0.399581057874487
0.400039856932943
0.414793636721423
0.430931533875996
0.413441064669641
0.436399137969674
0.432821176224074
0.445854011346281
0.441845913602145
0.483496478226872
0.47505600981262
0.499412292541628
0.516602245239669
0.543401713242059
0.533483352495149
0.53939284913389
0.543157716514665
0.572080378045593
0.580870183546154
0.596852691875197
0.57723582590521
0.589624823965648
0.579038672664499
0.617223940260349
0.604230757289619
0.622734448520415
0.555372291235301
0.631799782633085
0.571541601909772
0.579929334117334
0.563208234678165
0.590995339773188
0.574006580997584
0.624319139331949
0.577956089385634
0.557419458007207
0.538576084888227
0.582964791712875
0.563820106346202
0.562471229651128
0.561506815205973
0.567934321058982
0.533963313057383
0.562013399201378
0.548364938281032
0.555944585841094
0.519264034833347
0.584795145900078
0.546972009106363
0.54564001210267
0.507025616015274
0.546498830007899
0.491405600343324
0.517708828198693
0.525265073339461
0.540668481677285
0.516329151090357
0.562779632831174
0.514476627884386
0.55671758314023
0.485903319293945
0.541102940371501
0.519898538885657
0.534717088506861
0.518534131825171
0.5243243928529
0.531109455753034
0.527120237416042
0.533412518829137
0.568508681903982
0.537664628417233
0.568717517497165
0.527357785993057
0.611767335776742
0.528236750434428
0.570851238771255
0.538840519055575
0.559351658947173
0.511632964813738
0.541869017524023
0.539241220706816
0.578937701040616
0.552398952046401
0.604081619926357
0.539645758665319
0.613579305748741
0.554590880870855
0.640463026389269
0.581521801567796
0.571487578494841
0.56526355203523
0.656246906628851
0.596755829249519
0.634558966573852
0.638459913478881
0.661319637065623
0.562713991849643
0.632545827860372
0.633527965192308
0.713446938326189
0.627840829468354
0.792887817718919
0.849026718536084
0.689819619002532
0.661121002296944
0.696933243518453
0.748825382851597
0.871074881596705
0.722638950464183
0.848621900766286
0.724140119447558
0.673252136710919
0.618439252344166
0.73097371885624
0.644884796248866
0.786306994075429
0.703464978463219
0.749476172313671
0.65236592797409
0.818965833266031
0.622565681791844
0.800535292531675
0.743455527956052
0.656125464026272
0.703023251781665
0.684299118204765
0.684863662407118
0.6187909070726
0.684391823235664
0.972450326547572
0.637768558610844
0.902441669864731
0.759290838598174
1.12414241700564
0.589904985835162
0.719420949484703
0.601328797766835
0.722316938113178
0.755878529505582
0.768020354434286
0.582650035306834
0.959376827599897
0.452288645205063
0.616764590956158
0.677539668380665
1.02953493582654
0.141656812408748
0.587514420794959
0.577846121893925
0.772848161354014
0.759604392272535
2.6627464279656
0.752146796843449
1.31152890452389
0.594046316431728
0.800882531256175
0.509421050829475
1.02895182775997
0.307802800360733
1.46655737789387
0.476597322805752
5
1.31751507690922
1.04130765101786
0.235227671297504
1.83754743404947
