3596
4000.36533379555
650.420452594757
1
2
2
0.0528284252691169
0.0390887240769011
0.0503703864254402
0.031823155848359
0.054479723151127
0.031947866653376
0.0454280247583112
0.0351136978334143
0.045738322369545
0.0413194946443337
0.0425181966707341
0.0337747036846783
0.0526083026635696
0.035698573153506
0.0533818122099769
0.0464636027287696
0.0477913538627134
0.0390037875240453
0.0454514939412986
0.0370823475204374
0.0511988133396528
0.0424355367154931
0.0531962821975141
0.0422702157404814
0.0447931944434331
0.0462052780766246
0.0558951539299181
0.0346862256375305
0.0525203192105999
0.0425541937694953
0.0502332460944586
0.035313037526318
0.0569025653287599
0.0328596310467226
0.0523376614681637
0.0379673823609306
0.0506875608288804
0.0387966039352852
0.0524251344630405
0.0381111651966115
0.0484975346934221
0.0334459972582655
0.0585435774620094
0.0373690517244755
0.0521626303523775
0.0380900308403085
0.0514780452275334
0.0397851382876445
0.0448169163674574
0.0367557782095225
0.0533546841122083
0.0399505006783958
0.0576926182542112
0.0483747836059057
0.0567819946443977
0.0535150105673407
0.0576789617637553
0.0390392319077272
0.054805180089517
0.0395893994947407
0.0574131256963275
0.0608962425868706
0.0510661003035731
0.0397012231450284
0.0456731866451974
0.0428463640182523
0.0545938500415998
0.0391983329054013
0.0489437909334326
0.0426997668339077
0.0512255935911351
0.0334039885757382
0.069622866479555
0.0397980670769784
0.0574644289556432
0.0414793207624227
0.044768957636954
0.0404063990316177
0.039295799683713
0.0441111026592632
0.0708055112803696
0.0427739662550268
0.0528615058838409
0.0354165283135095
0.0592416845969229
0.0482127756421233
0.0433786091156874
0.0349645545221454
0.0776806871243773
0.0508578962661617
0.0544896116884176
0.0288060968926838
0.0506258685901663
0.0299532824370821
0.0468806063016914
0.032644469785562
0.0483959732081468
0.0359811143753733
0.0426879449712365
0.0357222392231825
0.0676512240375384
0.0330591641846585
0.106809622594165
0.0371264088840197
0.094499671026687
0.067785344719186
0.0383991487852942
0.0904558157153214
0.0717982459855167
0.0458738979052182
0.0468157794604296
0.0438768926423808
0.0506404027771404
0.0464492491667012
0.0451776759121148
0.0551403685754416
0.0927214183113102
0.0512938671804224
0.0546306231986215
0.0326278604996568
0.0421760680026469
0.0438953793441132
0.112446651211022
0.0318295360072882
0.0715086524597531
0.0443753568255764
0.0448425080566894
0.0505250119339822
0.0962639646155219
0.0447920758073832
0.0524992001894292
0.028437031175375
0.0497851847908339
0.0215787362117299
0.0921742010606754
0.0607896060701068
0.0561409977863126
0.0248514439382145
0.0557315921922276
0.101220267169648
0.0744518270493112
0.042512912885249
0.0424093224850397
0.033001690123886
0.101564785485221
0.0483773459404455
0.0396279492989138
0.0447384068122319
0.0733335417018379
0.0350790555042624
0.0474551608214425
0.0319693695555271
0.0709840417429152
0.0409348159735429
0.0191894112118691
0.0282796212913712
0.164709030152311
0.0355481540129989
0.130841789412345
0.0497062647016266
0.0639231647391538
0.0438029881098464
0.0463491715860995
0.0432788660069262
0.0516474177857886
0.0343835720338821
0.047764233009068
0.0709630642379991
0.0474309906569244
0.0419435716936063
0.0826586819992279
0.0518674126963978
0.0352413888828682
0.0918858072753552
0.0850140143785648
0.020522607370193
0.0952620435358636
0.0586080855562926
0.0417447572242697
0.0342366966463023
0.0899398120885682
0.0386831422243721
0.0561940297292859
0.0317349101750693
0.0568858536821305
0.0582567386133702
0.0660407373086255
0.0332088672107655
0.0496814082328999
0.0135003507359781
0.0658460892538444
0.071963912299753
0.103990299048514
0.0436980599307472
0.059298401671624
0.00498887192243298
0.0645330235310541
0.0898573289726795
0.0545138283749531
0.0417394284091907
0.0482488168231849
0.0358764029209129
0.0536005460248513
0.0324420215214224
0.0441704526248085
0.00995881362973939
0.0911877738343473
0.0644656141758702
0.0499077021884472
0.0318417382576031
0.0460307076328817
0.0324036825905951
0.0995186598863335
0.0926436350168129
0.0482663265476601
0.0542824992924797
0.0434228190344081
0.052801819617165
0.0700166136760514
0.0420947917860235
0.0454215046717927
0.0326508346279589
0.0444321664943759
0.034667476220281
0.0458592082337736
0.0408001436160849
0.0481567562639176
0.0341788940728736
0.048566196474285
0.0380529275123213
0.0518384293007642
0.0441086170311089
0.0456924975560004
0.036951927272848
0.0409739743474841
0.0388764644012316
0.0794610410588566
0.0307589170127806
0.0516378685527374
0.0386224608704974
0.0419391804684957
0.0306083314562885
0.0512195425140295
0.0389330932933212
0.0471740229266187
0.0202878617030298
0.0910290447192069
0.0606134650815287
0.0447593037954876
0.0327416555140874
0.0584314284844256
0.0635741545576983
0.0381583433001754
0.0442503292977843
0.0405468274383178
0.029626908493241
0.0335774812595921
0.0755860083116551
0.0557720323986207
0.0361787903346737
0.0594001943602794
0.0604772396311851
0.0382074342179774
0.0374972118768795
0.0196983517295918
0.100203451873858
0.075555006970902
0.0153384763676093
0.121863779817134
0.0755199194578809
0.0546177276749534
0.0533294348838625
-0.00301976792947444
0.125289109514248
0.118488898419936
0.0445417919746129
0.0546359876277661
0.0599578600009166
0.0533906938123114
0.0399348723380655
0.0570150863721925
0.0345825444985553
0.0926555041559642
0.0775393409364227
0.12120224303064
0.0365125446153437
0.0683590443964014
0.0867709842612178
0.0480794697239993
0.0439364444883778
0.0414654704563002
0.0400837288031038
0.057824164758382
0.0660819122944355
0.0602629773209416
0.0523202197368158
0.0456167429228074
0.070666078816622
0.0581791467750114
0.0456636417887727
0.0491160107569429
0.0560124758955801
0.0416987580469672
0.0409842993395679
0.0430410912024126
0.0413859471286417
0.0438290104478838
0.0199801535137917
0.0993082015316151
0.0671825399343787
0.0419373443898951
0.0766172638124941
0.052673554784427
0.041639281008924
0.0445052459844787
0.0377823729840806
0.0381951597884727
0.0356506423946055
0.0268005393236295
0.0652515223759003
0.0636716870514324
0.0294413862911078
0.0471771793443303
0.0345816674089979
0.0464612484645058
0.0351256525312569
0.0491255699708737
0.0337592429619419
0.0413697099338551
0.0272820797249527
0.0609289977803324
0.0749873346959132
0.0313538653671587
0.0533521653235886
0.102445567351191
0.0380441506815673
0.051173232171626
0.025266488522265
0.0528223761440645
0.0395270308083159
0.0402185584596518
0.0353731220656458
0.0386654561147156
0.0498719371484806
0.0615409433683982
0.0275582133121944
0.0483593637909428
0.0884795380287824
0.128297136499842
0.0576376951522315
0.0510464640789353
0.0243251632865442
0.0539366236394067
0.0891652672615252
0.0506405822955522
0.0829411925339847
0.0465905003920353
0.0497902324318635
0.0404665935377645
0.0381427981925728
0.0413220858021483
0.0370995383285914
0.0469044805496568
0.0313444417664587
0.0482628740613445
0.0392110296174901
0.0410403328667928
0.023382037527074
0.0808313301017561
0.0596599901539067
0.0426849900061853
0.0435251838275582
0.0356580205604141
0.033091208502819
0.090976180216673
0.0697199794568534
0.109858934769388
0.0406114451515354
0.11505173277367
0.0514291781217834
0.0591542217667943
0.031508748820773
0.0475315264015475
0.0421053128464155
0.0529280226755066
0.0380334543011006
0.0507843163294192
0.0430301028024521
0.0565168761064009
0.0387047452865088
0.0516329314586165
0.0244548915038528
0.0624044108051022
0.0538843177120794
0.0497588955207285
0.0449917722963341
0.0400115918129053
0.0866276142200842
0.102571264117752
0.0709137482897149
0.0530879447178575
0.0527432274828166
0.0378043435344287
0.0516289807317328
0.0426719877483569
0.050898638811598
0.0473597418467951
0.0602971620047928
0.0851483758670509
0.0567561333125403
0.073483060429979
0.0273726998973589
0.0691599830565918
0.0593017515243671
0.0534646352862661
0.0713009869422315
0.0646715730105759
0.0373650615450142
0.0588906280389467
0.0809420866142333
0.0529526911564383
0.0857439336483781
0.0565648712451924
0.0448309978943005
0.0529807375530298
0.0521900407856438
0.0583586799900982
0.0486898547434064
0.0668159935902182
0.0551456098077272
0.0674716366106894
0.052956610367905
0.0655698382100096
0.0647469909072264
0.0736566542351511
0.0490954358460527
0.0778623963974783
0.0489572298950018
0.0660849417083736
0.0447135367731535
0.0570925611810618
0.0911091331987496
0.0727970104928906
0.0908819728069367
0.0625668762073724
0.0542616660146197
0.0631611448895529
0.0556963971290849
0.0604896465592523
0.0552307268864881
0.0669663348109032
0.0592851745815385
0.0602615049810232
0.0582824178232756
0.0647763093033312
0.045665974418646
0.0717822202536882
0.0567062586400278
0.0737417961826239
0.0558179091205843
0.0672266012530868
0.0538478421962468
0.0872010985587817
0.10331574564377
0.0891234404589682
0.105147361832255
0.0819593670238669
0.0656752690159022
0.0767728038673656
0.0661445436429836
0.0778026258072992
0.0742800633769393
0.0811099001223684
0.0640638557429173
0.0761285951026439
0.0638497325672611
0.0746404372455717
0.0620498211424849
0.0804168568384358
0.077589526483875
0.0877399825876569
0.065716981848723
0.0819105525308995
0.0737263582599609
0.0753005419651704
0.0902166110227743
0.103423375032363
0.0968155681568758
0.0958663925716759
0.0771489964056523
0.0863818116752411
0.0748755372038865
0.0822700209030949
0.0739071004152762
0.082735024372636
0.0730280157687727
0.0897753561846267
0.0932406043993712
0.0966884760519789
0.0813326141297244
0.0958374958532312
0.076107156287948
0.107409929094495
0.0890286548150125
0.0950907465282604
0.0896792993728042
0.104122983968431
0.0838401881376148
0.10622821388996
0.090119663808154
0.100928732032053
0.0984523282541545
0.116566056426417
0.0878183423625035
0.0953729285794711
0.0897124587061917
0.109416828052178
0.0914230575618127
0.0955702033367276
0.0905564158482342
0.103372726573297
0.103365878442881
0.108028994723301
0.095968929534485
0.115531513564266
0.104047125301095
0.127367978916122
0.104644367950021
0.113433395772893
0.0995985337425552
0.113082478617969
0.108222761289786
0.134592682198656
0.110115267128641
0.123334600430241
0.104380162388707
0.114779379144737
0.112456699910491
0.122085081071468
0.111708816391078
0.114506914011057
0.118721139255915
0.129594645865614
0.112876766605637
0.12014133825357
0.117510463521696
0.131191783610144
0.108411207036062
0.133328279079623
0.126443439632706
0.133637859026699
0.117363802386645
0.127089438153466
0.122297135911402
0.135017836652284
0.125330939971749
0.130748183019173
0.131812066366469
0.138988714119115
0.125930493144398
0.134389690178052
0.123497315623888
0.131230758683111
0.125358997244873
0.13597013478354
0.131870026465843
0.131681182606499
0.12590082015416
0.143994774660841
0.120910019904874
0.139524587500938
0.143088753583361
0.155864197344911
0.135138311158353
0.144783466871482
0.136179644265595
0.157988719085146
0.132183057167275
0.143522669119366
0.134572586914117
0.145563276672189
0.137405485177903
0.149621859564142
0.135181690796049
0.156331212496903
0.142672627775905
0.145333207306417
0.138423433533221
0.15969621087437
0.139978329633429
0.161113712506587
0.145576038958918
0.156730531099462
0.150377266003442
0.143985922595218
0.15407117345336
0.163690039225294
0.143558947276284
0.165506730591468
0.153380988544885
0.166347461812802
0.151458830251042
0.165116970127198
0.154025748214633
0.15793000340275
0.157341670805191
0.166827570423502
0.149161464523714
0.158525253723347
0.146869707225083
0.15543433097003
0.157392643044985
0.17342080354553
0.162957074047731
0.171281597483023
0.161559301437755
0.17298349561166
0.165702996210369
0.173148820671457
0.161320813361644
0.172709201787175
0.154186705259344
0.171105708372043
0.171515659920986
0.169611194035652
0.163196185888088
0.180494183191015
0.161695209282313
0.171277039298533
0.169726481677315
0.174839215744354
0.159032162901547
0.180516293866017
0.175732132840858
0.177660061572727
0.164678597536626
0.178985317937615
0.172080102128245
0.177724174179351
0.16234104147084
0.174490436812193
0.169848974956126
0.17700486026009
0.161040500604472
0.17569985247686
0.167424901606825
0.184601580365425
0.174006781361805
0.18018499587203
0.17315375125289
0.175124893976162
0.177891446579158
0.189638348086561
0.169404959742779
0.184642227504585
0.180739805141645
0.178162860679015
0.174355399708317
0.183404622591765
0.171948619250174
0.186978978743139
0.176674819396231
0.181386044475263
0.174958603522719
0.188827850285998
0.174826474421931
0.174213760100068
0.172547809060189
0.18477695717415
0.17194951457618
0.179813346388921
0.175691161922358
0.18383716600029
0.181490215611824
0.183229037771913
0.17308747772194
0.181921894744917
0.176023386449266
0.176350660033567
0.180400784781479
0.18711464284964
0.177422805018812
0.18222127550448
0.184083064448498
0.183317148413506
0.177853424695665
0.190049196856707
0.176079651760128
0.183365009329895
0.175988740340089
0.177570062554671
0.174186076233073
0.186179432961837
0.176384876526298
0.177947931699527
0.172097899476573
0.175947300939445
0.171850357150611
0.182387096504083
0.167338237756832
0.181976018073035
0.171420971785861
0.178748775382922
0.173372757451438
0.179443925269272
0.178166915643736
0.190101914969053
0.177363080236956
0.179440994455779
0.174421457987034
0.18555629126674
0.168997623391344
0.179309980756142
0.174446628497867
0.184103621038982
0.173164687358784
0.185705576542365
0.176773904549831
0.182425598820781
0.176743523288979
0.179429905003961
0.181112655089713
0.185208310059148
0.171458916530122
0.170691014719537
0.159585007661029
0.174036949534055
0.169700362687964
0.172125139626475
0.178582398475144
0.177826975021351
0.167707133928076
0.174818915554925
0.175796425675054
0.170740099273991
0.170273667265281
0.181398809535228
0.172622464592607
0.168290665166251
0.170625365229213
0.177986098546153
0.161220627831691
0.170131155567479
0.164577749041675
0.166706033200743
0.158330136163635
0.170257403632513
0.161615523512995
0.161380825264562
0.169351317353835
0.17430286962103
0.1576815684665
0.159273895527769
0.15300256971099
0.168301629580179
0.165206035259825
0.163116341976164
0.157802185397671
0.161559555370201
0.1532172751768
0.16266853793551
0.149284392609187
0.151126521132037
0.157623684869009
0.161002363102399
0.149376196783848
0.156186387561639
0.149569326496509
0.160243572649759
0.153833666612346
0.157809761113191
0.1540861737377
0.157590395754661
0.150795015936195
0.160443874354279
0.155497727028219
0.151471940283348
0.14351216113298
0.146354254831083
0.148530203196871
0.150478776138927
0.142819440449284
0.151484089615867
0.151613788128739
0.145470780384004
0.142519013722774
0.150590532223716
0.141630713687896
0.148223953873456
0.145892821231849
0.14975208539038
0.14555095870857
0.146071547348472
0.139207881988712
0.146808449236636
0.143518964210067
0.150789819035029
0.140562289125224
0.135418359124424
0.128589316584016
0.145751779695046
0.135756549971059
0.139041634295617
0.136049635937196
0.1354316519973
0.136743956363946
0.1425264300501
0.135676571811065
0.133817721987889
0.133027793380731
0.135822583862096
0.129774727071112
0.132910788998924
0.127842963959111
0.129242487714491
0.124999929572588
0.135263940740753
0.126419758558193
0.12491945560276
0.121524668748015
0.129446302474333
0.122298283925647
0.127024597088085
0.121796565927248
0.127830276299114
0.125203839432279
0.120680374817946
0.117492112137757
0.125016233477658
0.120320382849694
0.126247290980675
0.116348396119607
0.12276064493092
0.118203460995553
0.119915429755696
0.114382807534859
0.115071986049357
0.114867571146672
0.114192072435483
0.116076998810931
0.110205871713047
0.112935751730568
0.112801470713026
0.112952660051066
0.123425194742073
0.110688428382077
0.110969251165622
0.109046737819782
0.113928448656589
0.108531745386538
0.113354646318078
0.110930230674204
0.109504651140066
0.099275236950044
0.107055238287778
0.106006823271225
0.113346551445147
0.103808376435416
0.103162896506715
0.107538978022871
0.0982927045285644
0.0966496980822215
0.107977888890765
0.100776875177187
0.102998589297541
0.0975285864501568
0.102176690282781
0.0896209965085798
0.0995603922989614
0.0955538158790737
0.0976363908193775
0.0941796412266808
0.0968944814922475
0.0964290223745471
0.0962059701076392
0.0866016867634694
0.0926291262317602
0.0946514812964301
0.0938482488231284
0.0910420944388119
0.0927865765909745
0.0868273640048322
0.0951064251267204
0.0885240942641469
0.0830611101462449
0.0878886957879565
0.0924289653282082
0.0848844863084593
0.0878747236588624
0.0873578267834619
0.0824674707326922
0.0784452147038356
0.0815278220235206
0.0835654826864188
0.0866704535785308
0.0771864045870772
0.0841557408326744
0.0785648350786978
0.0787871230004172
0.0786968532058083
0.0830973147565587
0.0815678549779401
0.0843410866915421
0.0761269789420915
0.0822766191468612
0.0833060327197818
0.0813305602945386
0.0809608512047659
0.0738303352138311
0.0727835907818344
0.0758674878896909
0.0751703668709247
0.0736658223691183
0.0749432159728695
0.0687608802037336
0.0707043705611102
0.0675274706533679
0.0648326223170305
0.0709308816998426
0.0694277328766344
0.074121303350376
0.0713846915976177
0.0709058819443574
0.0707521450587427
0.0678355368877249
0.0684608044870789
0.0660225119678622
0.0624896606252702
0.0696078696399851
0.0652198707880833
0.0715066332153418
0.0645864888710757
0.0630072458477853
0.0602871535903456
0.0650695150507032
0.0557118559640974
0.0643213703148961
0.0639229839895647
0.0686511041597019
0.0635640376946339
0.058296408057193
0.0605855502753077
0.0627207524224826
0.0547576498334344
0.0597015442236607
0.0599711782117887
0.0567157250398343
0.0538196337039881
0.0612850269233569
0.0569196457688891
0.0564091356773118
0.0523228742630325
0.0619916822924942
0.0592242236193881
0.0563665618539866
0.0589225709265616
0.0606501755804445
0.0512321347885008
0.0589613794236061
0.0542683409078992
0.0610436054785639
0.0539110502621694
0.0522618554697466
0.0534851584452978
0.0528945834954555
0.0543692252837884
0.0588685240381245
0.0534796467160292
0.0520554536218172
0.0518128418839292
0.0531054398496569
0.0501237496955267
0.0526719337503105
0.0506304828549651
0.0503938763153187
0.0493416874277484
0.0521148796548786
0.0486683516868077
0.0473779405784515
0.0475213689636045
0.0507111560839037
0.0530552865360034
0.0491294317153055
0.0455476465072517
0.0514618520539888
0.0460588166995703
0.0478670807313392
0.0492929294319275
0.0463816570892976
0.0446083834125689
0.0572058229090374
0.0494494625434071
0.0424619847070651
0.0459302216903708
0.0455140667660816
0.0400832888271239
0.0426842214344876
0.0438450931939933
0.0424289067654512
0.0452300832007533
0.0438034238617891
0.043316140145572
0.0406373660817287
0.0416194247793111
0.0478222320224632
0.0453901986395848
0.041151611756158
0.0431072618814928
0.043997277065645
0.0415907618302857
0.0411398524506343
0.0430004308337443
0.0426615492515148
0.0393237414312048
0.0451729810985919
0.0443658058878466
0.0379244180354572
0.0413719338777294
0.0390055839190941
0.0394613192764355
0.0437562557194337
0.0442421663760511
0.0412861561912717
0.0411614652868533
0.0402425891704018
0.0367025994700826
0.0394572797116808
0.0382229861467716
0.0385609056091073
0.0351366568352464
0.0391050906936401
0.0380503950676799
0.0419031019462
0.0377025396845012
0.0384579813049865
0.0364437618375873
0.0355956466633865
0.0345542526373258
0.0345992076858233
0.0365299344221176
0.0375230118674696
0.0344078919573986
0.0390821913457882
0.0381743785235238
0.0348116783176584
0.0325374271943402
0.0365604830481114
0.0350194299980573
0.031301992958063
0.0320616765457242
0.038125568014822
0.04009298469866
0.0356755044263159
0.0341227404046086
0.0345719889906973
0.0334765466090327
0.0357654135623469
0.0323722033801708
0.030284694419246
0.0359644308070668
0.0357743676797572
0.0345629516010879
0.0360704431006958
0.0329718043052959
0.0312732535891796
0.0343233325887025
0.0382007830623945
0.0366160116638636
0.032346280734474
0.0327667576144407
0.0331484420164774
0.0343558252808461
0.0355071465916466
0.033976962386285
0.0347041879332253
0.0317199836601314
0.0315396502348625
0.0363401304699263
0.0369125356978805
0.0338175335200364
0.0338808291375305
0.0325092484521687
0.0346736869549995
0.0349507861526641
0.0381170247984102
0.0359412981967316
0.0371387395451507
0.0319660795981501
0.0322690533431996
0.0333225374160302
0.0353731158271307
0.0358201461211122
0.037561650517127
0.0361365052233034
0.0353277700488908
0.0392273947220951
0.0376370911444326
0.0340493468188731
0.035796237102618
0.0316232386033522
0.0350938813968635
0.0368717565075021
0.0377008287118502
0.0351305113591521
0.0379408162512677
0.0371076518044742
0.0339039931978631
0.0372549585695173
0.0379674985481559
0.0324229407168242
0.040292326858807
0.0408267957965467
0.0397936428892535
0.0372080096483389
0.0398412696146204
0.0327647925186756
0.0357020322643578
0.0385718737851354
0.0392605040889206
0.0393870589534934
0.0406380764338974
0.0387928162427117
0.0433059609847774
0.0376620964633895
0.0376058257094725
0.0422971287033575
0.0412006462604594
0.0370157213776501
0.0374302801322002
0.0409181335535365
0.0415979246303102
0.0407468098156641
0.0460324619853444
0.0415860583048079
0.043877326988522
0.0481357098480809
0.0445299725050047
0.0443602744948256
0.0427295420866113
0.0493629707232255
0.0448929872804668
0.043225869190833
0.0463639618919404
0.0492622879541305
0.0444714431679354
0.0492368625931425
0.0480993735761614
0.0494915454942824
0.043222659558652
0.0452398852298255
0.048111877019498
0.0441431259427759
0.0449214037916917
0.0472235842608987
0.0494170655225832
0.0451172843406972
0.0457574888043328
0.0446500197975086
0.0465130643482442
0.0462992697012762
0.0442244580271743
0.0470100858357639
0.0454778307857606
0.0428295404631128
0.044288251159605
0.0467582949068622
0.0444338310107015
0.0438865473504435
0.0449553556863561
0.0452595964473382
0.0455692799887905
0.0447071671556963
0.0471712698561175
0.0472930085150068
0.0459823168741125
0.04527944688392
0.043097597014786
0.0421036469592869
0.0459032626448848
0.0429703913573577
0.044225407580884
0.0444162854051121
0.0443471066766955
0.0433636279464136
0.0402113684352178
0.0461303112857355
0.0425640931662623
0.0449160171280187
0.0403796151100321
0.0419987772708137
0.0448163156161633
0.0430914333232874
0.0462187489280451
0.0487342292164633
0.0451032952128737
0.0422800045140701
0.0467954858081834
0.0468107412736829
0.0455353440532888
0.047744865891903
0.0495749947485027
0.0448771812020459
0.0450664384383427
0.0434843752169618
0.0447012433494247
0.0475231746361014
0.0468132175698732
0.0421156011757714
0.0430734876487605
0.0402200936460173
0.0445491371013865
0.0447575447201937
0.0405503493022498
0.0428286093851473
0.0412062624902197
0.0393293251339515
0.0365898484807738
0.0406118230738471
0.0419042248063007
0.0392216621438967
0.0422161337971272
0.0404365412350821
0.0358831695477551
0.0372232896932618
0.0378366000168563
0.0372961104823887
0.0350177118777008
0.0412736969030704
0.0330383994498174
0.0348038304156156
0.0385213702002763
0.0400274852521786
0.0339132234473218
0.0349242207874204
0.032457744679903
0.0325359867866475
0.032113835303331
0.032779705037809
0.031512938280746
0.0314693375138399
0.0294843617536808
0.0360671210887952
0.0316675262636573
0.0310586855449429
0.0307630708407321
0.0309663819550197
0.0292024681224914
0.0298929578389314
0.0332224537171321
0.0310111509964643
0.0273349810327166
0.0282848964202512
0.0295863440641587
0.031039241736465
0.0270216513672878
0.0327188068243001
0.0312443345081373
0.0302201842218816
0.0229842019191144
0.0333005203502223
0.0318655514453063
0.0332683247131829
0.0292077010377253
0.0307413933991716
0.0256614766460675
0.0309042763097532
0.0258972831853007
0.0256105777345036
0.0271068402681746
0.0268416191596989
0.0249670847630328
0.0240634435647953
0.0262187427960024
0.0286885716090657
0.0285196799709635
0.0273681565195835
0.0242350085041473
0.0264082699047869
0.0266598376714067
0.0274312493187569
0.0260899418413117
0.028703559390581
0.027895783217029
0.0280400947769583
0.0264087251535335
0.0283501401047259
0.024487314556185
0.0206624337450532
0.0242499296186918
0.0244061026616836
0.0248445170764384
0.0258705760861063
0.023801621381634
0.0237739868541442
0.0223794897701992
0.0242933085498614
0.0234708685579316
0.025067696464612
0.0248312577691853
0.0243751731344623
0.0242422071840321
0.0271278751023192
0.0222354897345608
0.0233073067957401
0.0204707309197569
0.0261406721128308
0.0224743055933118
0.0226528560334451
0.0232995228627602
0.0265125197745008
0.0283580658253989
0.0251218206268401
0.0239116853432393
0.0222121947894392
0.0239072078067087
0.0260026934668829
0.0254468402797789
0.0268747645560543
0.0216395115121768
0.0235111431350227
0.0262520007928134
0.026586148197419
0.025019676943401
0.0238839289493092
0.0265030773233624
0.0230056504502371
0.0224480019464145
0.0262651452935452
0.0237709795670598
0.0271463705168053
0.0260476059223857
0.0268886900123925
0.0287191164191894
0.0202318636908269
0.0240076909280377
0.0269400541306289
0.0230175558023683
0.0225884125896266
0.023405082310697
0.0244751994172006
0.0274608513072404
0.025026997717726
0.022027808789647
0.0237653179302201
0.0240958132025129
0.0208940938246649
0.0228449083379961
0.0210496467261051
0.0258221958235715
0.0214880512579288
0.0199894784216882
0.0230052845871822
0.0187151738443676
0.0222096532641199
0.0195092285636382
0.0242427446728637
0.0204865225021966
0.0232339562141144
0.0207684917068465
0.0198030405898706
0.0216520871476049
0.02369765747363
0.0220789134342839
0.0225897620602507
0.0215530247568649
0.0236935792853831
0.0221477318939529
0.022532076062263
0.0244183034831499
0.023661912246069
0.0208281862652473
0.0205505269817693
0.0213962523867446
0.0254748797739318
0.0208506909734423
0.0247927406063246
0.0266747138034245
0.021516991177513
0.0222341258318071
0.0250223617737182
0.0242265986038205
0.0270037763208856
0.0251050037297213
0.0238976359724342
0.0205679005530442
0.02212557506426
0.0205704300259824
0.0220699648033096
0.0210169522480251
0.0233481059378044
0.022501775723694
0.0224907044462937
0.0242556100290831
0.0222241297365359
0.0217654169890693
0.0209007656456391
0.0218639993826748
0.0217363600795001
0.0218261050019005
0.0207717359936217
0.021355910959742
0.0196738878100163
0.0210431384302066
0.0216982551086213
0.0203740282441588
0.019692945419064
0.0177046719856779
0.022051433657584
0.0163432132802264
0.0199073500536262
0.0216836276237177
0.0234976806906994
0.0181305240134196
0.0185389025772925
0.0196669986961215
0.0196076966639878
0.021037721513617
0.020258182399771
0.019087596189769
0.0207199131193589
0.0202231149401574
0.0189731155647678
0.0178777557559015
0.0205796114888167
0.0171952119296253
0.0222135348671852
0.0156278399654655
0.0177644413409798
0.0182538493625138
0.0176919175909329
0.0220488079475945
0.0235900580089154
0.0196943385618595
0.0205541287109567
0.0197764981463678
0.0216998163697298
0.0203494407370079
0.0236105429770654
0.0220606435312375
0.0230803676503098
0.0208271848061787
0.0223217188122077
0.0208742663017551
0.0210158147943156
0.0196452427949983
0.0204576311633017
0.0221560885045404
0.0204172897710197
0.0172810565229508
0.0214381625058948
0.0200566321808187
0.0219554099643115
0.0188328621437291
0.0177039822287501
0.0171939820938429
0.0203201461342363
0.0191975138143749
0.0202042873364702
0.0206017084632951
0.0192665000763534
0.019524034506662
0.0189237368433623
0.0166937435513407
0.0193261859572007
0.0156425188492951
0.0158864303138492
0.0175081672724203
0.0180165357664273
0.015980927460321
0.0198622393450953
0.0145581614270539
0.0181937090476621
0.0156522355686029
0.0206947867949887
0.0179765047471835
0.015917978643871
0.016334188100793
0.0208351716231808
0.0144314532239874
0.0183625801264318
0.0178621560663575
0.0182214120181097
0.0157773237604995
0.0185364330410152
0.0165333411555282
0.0174081164486609
0.0120319217427408
0.0200777931439686
0.0172447177576866
0.017823149029242
0.0171719334877399
0.0223720367797503
0.0204243791772036
0.0157013178110699
0.017322811181264
0.0194842566098363
0.0177729585665709
0.0191935665465175
0.0169330684785031
0.0171733316325832
0.0159280467386351
0.0198342361545243
0.0144166756439668
0.0161504317419774
0.0170612248778083
0.0200155131460137
0.0183209863250273
0.0185340299143733
0.0160230333612706
0.0174795512497207
0.0171150080636166
0.0212161636780933
0.0183856340803667
0.0194787272125459
0.019832312126607
0.021546041102483
0.0143882891293183
0.0164650039601018
0.0134518966616048
0.0186881104016085
0.0146511249477856
0.0160854514584753
0.0165990281560664
0.0155825030452305
0.015324785282413
0.0167769797949662
0.0128330701132373
0.0158137005612737
0.014757031280611
0.0182743237984681
0.0154218999199297
0.0141204846363756
0.0165597330522199
0.0164245745867067
0.0160198554800106
0.0172207880889172
0.0160013217997317
0.0165548720727307
0.0154105314793487
0.0171677463328238
0.014398197667672
0.0175942989580943
0.0153499463155698
0.018063025691608
0.0150325836334125
0.0141698315307888
0.0130830306668313
0.0193594041764832
0.014880949202092
0.0185473020444064
0.016130822871276
0.0167732461878502
0.0163824351317286
0.0197720722893448
0.0158349606294895
0.0164413470001496
0.0157051543210638
0.0168277304791338
0.0161649108564029
0.0175020945443756
0.018790935426716
0.0169592469452743
0.0162271823364324
0.0172507835856532
0.0165656001789056
0.0180313134272385
0.014958478345223
0.0193659907020539
0.0157956491503042
0.0178490891673332
0.0148020904385935
0.0163893172855616
0.0148960354229613
0.0195516871080522
0.0148538913798683
0.0163196569024406
0.0140698758660033
0.0149221288802223
0.0138858748547128
0.0146865637868324
0.0139173056139791
0.0179021467524418
0.0129696761801515
0.014796035733221
0.0151223851082262
0.0170852049622337
0.01488726865889
0.0165371297651169
0.0136348713152709
0.0155356812631761
0.0116513844412999
0.0167401067870193
0.0139782524251089
0.0152078745387121
0.0139255001152193
0.0179662361689303
0.0138425528939639
0.0128016465313147
0.0143761563913737
0.0155458512886494
0.012449785440325
0.0157859532386425
0.0133952456869888
0.0158030600236703
0.0131199316756316
0.0145888507839566
0.0120786020477319
0.01645715865391
0.014365954593981
0.0153479876652526
0.0131732756239911
0.0161275704773612
0.0147216387544859
0.0159215199904796
0.0134979640930291
0.0182280456636632
0.0171061026336487
0.0168015088251713
0.0141245788876413
0.0165391482681377
0.0157975432146714
0.0202210652499171
0.0112907655512683
0.0171925142922225
0.0141969176370145
0.0170351001858324
0.014866346965355
0.0152945298045146
0.0126238991587801
0.0164387956007214
0.0138238623371844
0.01723368490545
0.0165926559037352
0.0186234054180246
0.015747802710002
0.0171042854156851
0.0145126940760479
0.0160868660298681
0.0141359062742632
0.0179465377416204
0.0111035308622121
0.0142937739591357
0.0104693669622997
0.0188857996141176
0.0129443458209881
0.0149872421290817
0.0114041817495596
0.0145669853226418
0.00818524376083918
0.0134040914745172
0.0142796886911224
0.0153270089177537
0.0097046437893719
0.0158042364157321
0.0128903057798004
0.014541746503903
0.0111898097121311
0.0150773514355663
0.0112915936161243
0.0150039199178729
0.0140587153196552
0.0159730571385541
0.0122860652135731
0.0152952933961554
0.0122062894581541
0.0149308413232106
0.0130466806472544
0.0176040507777191
0.0119781623183197
0.0160794760981474
0.0133943831381026
0.0156860138975102
0.0126682786120413
0.0173008478124406
0.0139853140187162
0.0161434578432143
0.01084091631686
0.0142683932860346
0.0139117253248218
0.0193859423071325
0.0141830521112099
0.0154925978147423
0.0147433162596929
0.0145123643585924
0.0136777961493087
0.0170079093353359
0.010174945885696
0.0171563845031891
0.0130126993417677
0.0154471854918371
0.012380722783462
0.0155033087396033
0.012979096936756
0.0150723912697731
0.0110692734578948
0.0163682742167578
0.0136796667200334
0.0146655451063347
0.0115877582737002
0.0154972793467037
0.0115288726026336
0.0132662141315734
0.0107635892329443
0.0116588664062077
0.0105313876814703
0.0166185146086889
0.0138674767104102
0.0143892770139029
0.0082072984771372
0.0153885286985109
0.00907411469830494
0.016700535684245
0.011953347176799
0.0139500253690127
0.0106549674467049
0.0166396555674231
0.0131562690343034
0.0133676456306492
0.00970691653834375
0.0160208278070237
0.0102049877022871
0.0131238054526438
0.0101721436574387
0.0152873162041756
0.0135474296890006
0.0157681762635
0.0122983500685908
0.0147138350639192
0.0101358606765326
0.0165144458841847
0.0104586994070929
0.0167095827492076
0.0117663965668299
0.0149164581904259
0.0097615662447087
0.0170572661758839
0.0125013686762674
0.0177741132666253
0.0116954582229793
0.0157754007360484
0.0101867221533079
0.0175344871894062
0.00846540794987826
0.0158515718328037
0.0106077793813544
0.0133447697372156
0.00698679259843997
0.0106893811481225
0.00407697203737671
0.00820140743987511
0.0055115737529894
0.0138451672696692
0.00256408386477693
0.00848205945420621
-0.00241454297737562
0.00753158179659686
0.00287919872094573
0.00735043812098487
-0.00290919374672873
0.00779750558677163
-0.00440160253579448
0.00671931122095194
-0.00157033709330893
0.00753703085679785
-0.00661495292920481
0.0126427523887152
-4.02351306437536E-05
0.0124717039395025
0.00382165503017642
0.017286520440323
0.00622548413958522
0.0213915996725015
0.00127939074471941
0.0133616880610169
-0.0043628390663831
0.0140170423641769
-0.00661646968018698
0.0165842596379814
-0.00666659892425404
0.0205531078065649
-0.00835005693827433
0.016670559963618
-0.0102897872287651
0.022165073465682
-0.0108464246977277
0.0246050808831262
-0.0140507440172088
0.0281758141179776
-0.0145652899966401
0.0268007705467536
-0.0168586182374712
0.0301462185109153
-0.0166870838347381
0.034479614082821
-0.015636032708737
0.03862903097785
-0.0168768316856161
0.0375075010196503
-0.00653356539694627
0.0351144599444084
-0.00931967506695889
0.0242734975348185
0.0041777011004833
0.0208821633564781
0.0118932000306192
0.00537803498608765
0.0246750966177109
-0.00165428101438397
0.0318521197850745
-0.00388472665104864
0.0360352559225655
-0.00537008064340828
0.0322547877780548
-0.00418818333691126
0.0253290859108886
0.00786626965610812
0.0196723320152247
0.0120194107058436
0.0117934027702897
0.0168591846216694
0.0109875088357478
0.0140771739851755
0.0157448939577015
0.0108178040450166
0.0155572029999982
0.00726878972563413
0.0158319861445576
0.00923675155449553
0.0154522897302995
0.0094792817472641
0.0130820369106371
0.0103454477335634
0.0124150295882275
0.0089326672367397
0.0131119869930156
0.00977384869316225
0.012183022166044
0.0103036263482626
0.0121298839043229
0.00916420654682988
0.0114264627138936
0.0103668345359452
0.0092976154130883
0.00877803460386915
0.0113550052523357
0.00988453085898944
0.0140676359364161
0.0124198695216129
0.0134626110659081
0.011213336693627
0.00906240307152507
0.00841444928993004
0.010734229719936
0.0109386004073338
0.0130784125129934
0.0131079110696393
0.0132853472934999
0.0084924912588026
0.013643766020109
0.0111938070198399
0.00921963928971601
0.0113741966768136
0.0126638531564227
0.0127821830661228
0.0126049758676601
0.0104230915222932
0.0133071169826069
0.0103961717589085
0.00989348113455767
0.0109467740702442
0.0142111121311269
0.011084176958563
0.0136369116337764
0.0112393278349121
0.0139505271276264
0.00999942706861817
0.0127067417834748
0.0111244745191117
0.00921110358265088
0.0113626696448721
0.0123674717799276
0.00929460239792948
0.0108376006705616
0.0124290774645255
0.0130755847211905
0.00929470768096573
0.00828525235789262
0.0118541295536039
0.0107774186651068
0.0119435056381398
0.0116356121588026
0.00990558924940486
0.00962144525190879
0.0111331053591602
0.012660994360929
0.0110230452814908
0.00995740226798447
0.0107685675995204
0.0117428269384244
0.00931318930037984
0.0114437958985427
0.00890416746719909
0.0090122341273055
0.0110681004065159
0.00925970652135382
0.00864141695379778
0.00852495781693357
0.0130687944267743
0.0128280935129705
0.0103704145029734
0.00930587980639431
0.011297463882382
0.010063236174074
0.0104013739162598
0.0142079343945284
0.0106452486054182
0.00962793507425734
0.0112519907255613
0.0104312364279982
0.0104273180927927
0.0119547955229667
0.0115892641459036
0.0107119080481552
0.0126065814991812
0.0102757049095833
0.0102410612640764
0.0120115597113244
0.0123273085417373
0.0131091687675449
0.010623756038757
0.0112563843903514
0.0120272362482202
0.011184619675626
0.00970665438456971
0.0126248552680648
0.010402226158112
0.00993421520162884
0.0116681397978218
0.0105564780987581
0.00876079526680713
0.00997029561065124
0.0116625943106963
0.0107313770913185
0.0104176808277328
0.00949555894598631
0.0108929581200439
0.0103322284597188
0.00887143209535167
0.0098736772645406
0.00994025897952657
0.00809496609546459
0.00916911480038558
0.011457267480655
0.0123233137183842
0.00920398189040757
0.00976073911350816
0.0107715901766708
0.0109682593169909
0.00818405555655384
0.0115189407389701
0.00934122496624419
0.01272336848383
0.00935175818302849
0.00905500547324895
0.00886569007559637
0.00885176170526758
0.00879200969520946
0.0098894621975272
0.00837784099677412
0.00921279055343755
0.0103354772385515
0.0110061777222639
0.00990386604126446
0.0107173910781022
0.0100655595068331
0.00859099605586689
0.00869214716725477
0.0121991645772106
0.00997345341638139
0.00973724806302019
0.01126137227235
0.00904580812532446
0.00889458394047655
0.0107178719544251
0.0107076384059095
0.011379785674588
0.00956034026162706
0.0105836026891494
0.0116994858576497
0.0074201927964167
0.010335847400471
0.0106847432833143
0.00907737536076295
0.0109472701946863
0.0100860163216774
0.0108906536770444
0.0069874728408529
0.0101661152691758
0.0106531313749589
0.0111107605381202
0.0109267582189892
0.0114848640164525
0.00977868838705469
0.0100548792621777
0.010971688956843
0.00923472273634523
0.00941145738900126
0.00991756281494647
0.00862147968149437
0.00902458708391451
0.00859270285307864
0.00879623441845207
0.00951101717874949
0.00933457986955921
0.00974784405172001
0.00932455844759999
0.00857477409851551
0.00831331010475477
0.00841370626655077
0.00977318168456007
0.00899936792068396
0.0109696265718
0.00950525556760112
0.00840100282576238
0.009466455930231
0.00855270783810566
0.00783760150158921
0.00742694534280953
0.00916023055104664
0.0101513640328735
0.00831400278615081
0.00954372217004275
0.00667288970497136
0.0092522574387648
0.0103110047925779
0.011018124057208
0.0104349648982806
0.00969500863616294
0.00878389058665923
0.0108500585578867
0.00930677869678217
0.0106345970813439
0.0086786958034446
0.00954262743085025
0.00932374539962277
0.0104337167997295
0.0113152766365884
0.00998733493342695
0.00770852030203983
0.0100889437376933
0.00871456753689548
0.0109102377047477
0.00948567624883836
0.00855181334905315
0.00782092678688077
0.0094924482754481
0.0103466810595851
0.0101004934172121
0.00639205783118493
0.00926690970925106
0.00847018162701825
0.00911290279072726
0.00997376957914775
0.00987923378971926
0.00723080465063512
0.00972752699473035
0.00485064541573805
0.00940656338614373
0.009770645069085
0.00866273724675136
0.00887559661579271
0.0102197489663086
0.00748707224773803
0.00795266515646696
0.0105818968036161
0.0100680954405169
0.0102415517527185
0.0107009740203999
0.00793458112196664
0.0112821982448717
0.00862157288394427
0.00962916257254832
0.00750465439479936
0.00699289448650407
0.00900830360337134
0.0106272101592541
0.00778695753132551
0.0101762300707193
0.00990498510942706
0.0102917937598126
0.00926602647509728
0.0100330838296179
0.00776310310109556
0.00656134562883184
0.00782464957300663
0.00863650118910559
0.008232182808764
0.0104497423358628
0.00898677026648333
0.0109108373525014
0.0079741541082139
0.0109283587001164
0.0100922442005605
0.00844487214921675
0.00906242568171518
0.00784874924553239
0.0078536350163785
0.00971255840063858
0.01023680050089
0.0109125118767545
0.00754356237517468
0.00934633509991032
0.0104689308430561
0.0107512220571417
0.00842135806099271
0.0113692146016952
0.0102905354749421
0.011751369610191
0.00953305511153548
0.00836182682247073
0.00812615899717528
0.0082111679623848
0.00727352212556297
0.011255080581653
0.00961114484019059
0.0107677929012926
0.0109206849995093
0.00908543138212914
0.013822442772074
0.00930248633825106
0.00870491699548272
0.00952107234274636
0.00866949343312371
0.0101831155707323
0.00893426061624308
0.00841569169673288
0.00807406455463391
0.00911485462182326
0.0102432450906417
0.00914611647049562
0.00797759232190668
0.00782931939212225
0.00776426951684562
0.0094883147248218
0.00713280193084645
0.00905110325832883
0.00444585583437613
0.00948147908272689
0.00895409176925762
0.00762224115285551
0.0085475818261926
0.00976361379611607
0.00917881258203736
0.0078410976142778
0.0125606543173678
0.0218191175032998
0.00899860413945973
0.0130771227059288
0.0102712278654382
0.0141996048716148
0.0072653391811043
0.0119537237161258
0.00743197007630431
0.00656178763088465
0.00837683540807959
0.0125469447098913
0.006852742892865
0.00674703929559338
0.00673357133348535
0.0102972449008686
0.00822056125757609
0.0102378765714415
0.00863457321291722
0.00917291101204534
0.00593499133501338
0.00927921087544963
0.00721455266566213
0.0093384385984224
0.00736423334426971
0.00873275064817709
0.00530734615359615
0.0157912685204553
0.0128398885908069
0.0124178588607005
0.006797560716526
0.0094532598565582
0.00758810169976703
0.0104662651617647
0.00871343154286362
0.00774833823148772
0.00678196345514791
0.0110555335054341
0.00788075832902588
0.00884072923690652
0.00783268444181396
0.00875203950537199
0.00705251166057419
0.00827404870804619
0.00535540471512421
0.0100912508778609
0.00566777405004483
0.0080068499068897
0.00429765349951361
0.012285796674532
0.0075714576232559
0.0123019646009842
0.00831402340848795
0.0100864112158813
0.0296591494465148
0.00851446718619105
0.0110716876251252
0.00599864518584233
0.00861801139881037
0.0073232783900011
0.0087659817171946
0.00761131206145381
0.00862503871557663
0.00838059473984695
0.00902355916656882
0.00649734302179171
0.00796978806767227
0.00740302671179631
0.00872153942992092
0.00711035544000302
0.00916607074161228
0.00607238071227396
0.0102028909469921
0.00650167830684566
0.0105667804410701
0.0183711390068197
0.0151322060098903
0.00965060234810603
0.0140088877496006
-0.00296698398367172
0.0333247970437442
0.0155221362146216
0.00798503090140445
0.0108652545748553
0.00721606703583826
0.00729559481391684
0.00803819736422601
0.00805128709594711
0.00404192083037316
0.0174234428301508
0.00636147708096995
0.0149818925875779
0.00766539379881543
0.00936860603251296
0.00876237746304224
0.00981796379168534
0.00525416414896622
0.00864921093880797
0.00793706897791816
0.0059935412892646
0.00750905633813682
0.00548026731843085
0.00821079385713315
0.00622282750905717
0.00950496268796582
0.0137588660924162
0.00628754329548856
0.00853786362653452
0.00856857611569898
0.00675607667912834
0.00997280672855497
0.0331363935995688
0.00145677269278641
0.0140786956578269
0.00447972515997082
0.0118460704025094
0.00488512152998485
0.0114489283405823
0.00472980180064928
0.0089601698912356
0.00513404636394832
0.0100328109518464
0.00607805265545196
0.0083172337190876
0.00468719622623715
0.0102959583029463
0.00516911612873289
0.0070503845413155
0.0104815349940837
0.00428743649956955
0.00855915811438976
0.00537627914322649
0.0219773471167535
0.0317633127388998
0.0151000939244206
0.021211710694964
0.0102976658820907
0.0110857825171202
0.00535274699344917
0.0106470923886966
0.00210240223701707
0.0132654251230595
0.00510859959702595
0.00991335520230054
0.00776650251300654
0.0109138894738266
0.00168492927553215
0.0111945255953201
0.00378986099306551
0.0130378405790154
-0.000781532323298395
0.0122675724302357
0.00110911184632139
0.0126435943547869
-0.00190989487640891
0.0194370067574799
0.0076278242266762
0.0174501810579355
-0.00964899285971552
0.038647735183867
0.0341568103408843
0.00958974324324633
0.0191598935573589
0.00335429322053305
0.00926296421460644
0.00414066968391296
0.00817583197971055
0.0134658004503705
0.00823904524589827
0.0069231382321308
0.00834054345130273
0.0087439792012297
0.0101176150305996
0.0020735251893457
0.0120295549461846
0.0407602278990987
0.0129190876075879
0.0142366752217804
0.00347133199178364
0.0083634127690735
0.0422968681943401
0.00651709888923913
0.0111061279191188
0.00924195502700079
0.00904182612540342
0.00749024284243558
0.00575569600939051
0.00683727283434711
0.0122580557331173
0.00980720215272918
0.0037956622720675
0.0106069129885448
0.00302029980167956
0.0129887792472128
0.00604120043742846
0.0151647955149518
0.0199822156105202
0.00572599193318247
0.0113836323865685
0.0123885357102211
0.00562604667942944
0.00904393825228359
0.00910505459747969
0.00633701361036457
0.0121624772765006
0.0243956007844019
0.00663391226654496
0.0213639325561365
0.0197713593408395
0.00578383552918577
0.0108843373319146
0.0129666512073663
0.0203846689039412
0.00120984233602395
0.00962457756064306
0.0472903401237026
0.00924427992801233
0.0406351956118475
0.00118973341107502
0.0173505616134332
0.000893916552000314
0.0148966838791767
-0.00775541330920951
0.0323617420807085
0.00294676814572726
0.0161480309265318
-0.000568321726929346
0.0179171414673549
0.0197670292191706
0.0122723764780088
0.00897345359329872
0.00973819573538017
0.00259170544361413
0.0214901915962546
0.0168440243121776
-0.00393495856034356
0.0405348846736141
0.0283618880095995
0.0305137301841444
0.0185598355458048
-0.00455841544414647
0.0508927449523754
0.00810991511290438
0.0147503476466229
0.00507855438067881
0.0101652296664676
0.00268472649178358
0.00320427910091636
0.0422803888557558
0.0172956125155829
0.00367573932472813
0.0185354147077312
-0.00134105083973004
0.0374065868062836
0.0165376340917207
0.0120082989873603
0.00465319377078622
0.0182024239038349
-0.00920595000383151
0.0544969954080251
0.0284155588248532
0.014909586604664
0.0390181493105641
0.0213145985096945
0.0311280693297825
0.0161107461314671
0.011397143098649
0.0179998504955572
0.032406885948432
0.0144487317912423
0.00164257734686816
0.0190601934272816
0.0431680289779822
0.00475803701716557
0.0203189931949088
0.00600302034338932
-0.000277711822459823
0.0344667008292966
0.0757219243087331
0.0394353982610532
0.0177080594186582
0.00979604269887409
0.0423156611621535
0.0124044371958008
0.00958096825744663
0.00972228484189591
0.0073341378575962
0.00792515950922632
0.00463503539441498
0.0221066350211101
0.00868728866301473
0.0116598655865593
0.00975631781009567
0.00165446944989336
0.0291711879993729
0.055063454047404
0.0583709447932206
0.0120985268838716
0.050346810026896
0.0283129665552698
0.0215265135222598
0.013004900579847
0.00672721226340405
0.0196706031639908
0.0144927863616943
0.0128532790433206
0.00572603136197061
0.0322029112819304
0.0236537015956331
0.0191719985982452
0.0460266007710417
0.00675166570576787
0.020164554790435
-0.0213438310560478
0.204114657201072
0.03189568259508
0.0328273980796588
0.0159750375505027
0.0160052225752657
0.10219922903947
0.0260249451930864
0.0137503503665333
0.0131364298562555
0.00702923107872239
0.0116987638674018
0.0172744958928989
0.0208225244684965
0.026707346992329
0.0158736651578733
0.00110557277638652
0.0226996350185162
0.0852839572714155
0.0690578109728476
0.0430445345365129
0.0162234087064124
0.0323337195464933
0.0322121417796872
0.0121279046351581
0.0171176289401535
0.00752193787155422
0.00423662462423588
0.0773546014267095
0.016248917393322
0.0233226477307829
0.00321222872046033
0.0492206701057019
-0.0031857583721979
0.0723722434584362
0.0459715308808489
0.0247973617284746
0.0182424102176226
0.0123638798816428
0.01321985841241
0.00220493507578613
0.0456781183512187
0.0286384582327243
0.0159604583603042
0.0162100521390196
0.0146398030513344
0.0159316415008086
0.0132207243014172
0.0208861858326463
0.00482632981404738
0.0495209126588244
0.0146446967158356
0.175524348462183
0.0551929449368987
0.0221468847607529
0.0249394810140187
0.00911885728532582
0.0532944545859023
0.0252779963548402
0.0574431281345042
0.0516260277581154
0.0118647063213785
0.0215904449348062
0.0138163640983093
0.0240407962596931
0.0102181676020041
0.0232766909897001
0.00080140165322102
0.0439362679065899
0.0104804123526408
0.0240673394621058
0.0885481021616983
0.0266687855328229
0.014644576647016
0.013741124195662
0.0139813505292054
0.0134435872377412
0.010381407864542
0.011675950981516
0.0394649260686428
0.0105642640803553
0.0195059401045249
0.00249205656382952
0.0383980249591883
0.0417481988094438
0.0123485350512909
0.0231995129231474
0.0115109411229753
0.021947188535375
0.00551862203125106
0.0107530542421224
0.071095886794795
0.0214514540611534
0.0225627886431323
0.0123918273074916
0.0163968298616878
0.0206505949547927
0.014151928009728
0.0180777943861274
0.0237213413255854
0.0116743169257226
0.0258211364323156
0.0142295246936706
0.0180733046109624
0.0149713160977762
0.0208857081868265
0.0154941972231087
0.0194527482442464
0.0211208724011453
0.0166073490538935
0.0169194658077127
0.0177331567959281
0.0189688153076158
0.018180057058393
0.0198603992615311
0.0232628878378252
0.0159640887226627
0.0185504118481658
0.0203079708202861
0.0184855356822282
0.0197816865932594
0.0182212115727044
0.0172012608400055
0.0128862243055546
0.0166768711890988
0.0137418085227144
0.0148058797995317
0.0147381843797385
0.0151271810574903
0.0144717505907552
0.0185751416489629
0.0117322332326032
0.0231561288422429
0.000558676023043453
0.0592368158812887
0.0490013814654282
0.0184811004356748
0.0177743657612986
0.00912707698420747
0.0197642518463299
0.000612132588547632
0.0455404498631538
0.0452563739896387
0.0165446713977348
0.0153131130108015
0.0103138504234591
0.0198797668299396
0.0242331956510291
0.00665148758371301
0.0221214800671701
-0.00587555624178369
0.0400205594422275
0.0803870396996598
0.064616903086715
0.112634276026978
0.0392284593860417
0.0130871171720377
0.0175078220905487
0.0620652311590849
0.0119056268318428
0.0143032125639183
0.00389428126150571
0.0456826098250961
0.0264316377936496
0.00751564781986046
0.0127562676571642
0.00122297361231739
0.0215258548942645
0.0460008844321832
0.0201153943831686
0.0292675517335635
0.0555861954394522
0.0192101444623289
0.0518356317693644
0.0942298263699845
0.0546118280276716
0.0166616217292508
0.0189950527965261
0.0131669202243986
0.0127712850388507
0.0684975378503911
0.0273607026114135
0.0277528438858998
0.0115052559797945
0.00825066235738898
0.0195799479443719
0.031086870672284
0.0253157261529985
0.0105889278805237
0.0528597565490037
0.0136415433497949
0.0274740814419293
0.0292270428592627
0.0518155707100532
0.0705838462247181
0.0297369499743674
0.00559907414899409
0.0381477488812273
0.0611705527849801
0.0259570372329046
0.0327815693923591
0.00880109139563172
0.0102747105730275
0.037222625743912
0.0133091974644513
0.0257086531724249
0.0343044463852339
0.0344168765641774
0.0657025905377874
0.0757818938527333
0.0735843425185024
0.0318519508537662
0.00991375561110997
0.0145032690777277
0.0154239838574373
0.0166637090476492
0.00150290558255168
0.0257607355944846
0.0242017151227685
0.00705836488044427
0.0585765151853271
0.0245327119658706
0.0127105810828439
0.0113971552645975
0.0049955083446736
0.016757466724441
0.0456383481074683
0.0548736919739076
0.0287195767062502
0.0179806077080363
0.0383432284819256
0.0152052655559054
0.0159611755830968
0.00936740705614429
0.0131679166981537
0.00714835028625147
0.0218490909708624
0.0163204335011306
0.0110100637614837
0.0130044646566611
0.00910566495481249
0.0302877185795192
0.0511672533374282
0.0100873504131834
0.0384115985774832
0.0358286795461793
0.0620064202729234
0.0389400386630955
0.0183988073011095
0.0195368433419907
0.0160540831145657
0.0163856341356893
0.0121827977298807
0.0208356008541084
0.0516488669575967
0.0173205679211976
0.0200615423654002
0.0149696448699708
0.0184484416617516
0.0138910283739685
0.0456140537942307
0.0384916322071902
0.0628367538388479
0.0734481315885022
0.0416730103606018
0.0285392005725303
0.0159336595481357
0.0281864938533061
0.0238448745187412
0.0160934840015712
0.0170365628836203
0.0155911954323249
0.0429508587962133
0.0244620089306411
0.0187227813566139
0.0159374078219155
0.0180123533554931
0.0206627694869491
0.0190994095955478
0.0164417110564964
0.0172889873470798
0.019099312693587
0.017137235246025
0.012091661846776
0.0872885525883509
0.0438841777751601
0.0194365740136305
0.0255706805481855
0.0288007158832682
0.0271214301508301
0.0163818884941563
0.0352110835358046
0.0375465553739199
0.0259202060659752
0.026570954047612
0.0235065371852232
0.0242474324329148
0.0340914257042655
0.0501049942190398
0.0236648419715847
0.0261555473965301
0.0153526427949725
0.0429071576754451
0.075111181063939
0.0417990854034683
0.0442557432979755
0.0356867203603907
0.0267407962249951
0.0248192641652466
0.0256601078124086
0.0262902721196303
0.0276001094449443
0.0233349650350322
0.0252726378992957
0.0227015864442353
0.0245186700166589
0.022660147884529
0.0231097527849638
0.0412295758040865
0.0285553557004472
0.0234582920934465
0.0246537155639774
0.0227721480182205
0.0224521154586521
0.0431808964374325
0.0421232381287991
0.0307111970722453
0.0292059750014185
0.030245922321563
0.0480445802489208
0.0416911993388341
0.0233988022891218
0.0233653148086807
0.0214557001103638
0.019745254433081
0.0195127142430397
0.0233724149345834
0.0430253999655575
0.0332923603319573
0.0233513159340261
0.0227752142433518
0.0211960226406695
0.0212080344403242
0.0215852906772917
0.0211912571815662
0.0249018947966374
0.0274833585789169
0.0269565816840403
0.0210209136132834
0.0253643881416526
0.034938923887589
0.0345251160590503
0.0371589204747982
0.0243390049381216
0.0211524374739333
0.0205093946453284
0.0205506018104671
0.0315006346783978
0.0258649600291891
0.0178654241658846
0.0204119622313697
0.0170037424812282
0.0228152891822508
0.0446875378829541
0.0290511465134855
0.0254233266554917
0.0241314846773764
0.0151348167936011
0.0199686708541305
0.0169522979731881
0.0171262285094126
0.0136915803074421
0.0179713020636761
0.0148998084268165
0.0150490947637086
0.0158017043369845
0.0128875666222872
0.0127510256328214
0.0177968704069236
0.0168807908195549
0.0157085575846349
0.0122133741919508
0.0144967256690333
0.012882634764375
0.0126127225830749
0.0120005326172835
0.0144016602680985
0.022141316487592
0.0310603016555867
0.0266152111572525
0.018930926221694
0.0217014149647821
0.0191416150984876
0.0117977084455137
0.0153441887265974
0.013344758474582
0.0136089475454228
0.0129778250076038
0.0146941403593035
0.0140202608688467
0.0141246577747826
0.0144298134068435
0.0171708939755179
0.0138489329653097
0.0143465949399506
0.0152780422184635
0.0164156272875245
0.0134095464734289
0.0168058909430558
0.0191499723282203
0.0230005885230732
0.0175337377142868
0.0193902338745627
0.0197022728785164
0.0165734120673366
0.0186644348912985
0.0197523970468351
0.0207910804760375
0.0188796800959577
0.0157617924111863
0.016205149514718
0.0155194722446441
0.0170251479144789
0.0169573381973528
0.0152156370920424
0.0158910558145138
0.015314713856806
0.0156270917670635
0.014877755665543
0.0130984108613916
0.0172499792744368
0.0149949372537901
0.0127622782206263
0.0137929314617133
0.0147527629214442
0.0139684349001992
0.0144181413845706
0.0160289476383965
0.0128636199796727
0.0100183235061609
0.0129922893469325
0.0137038235917667
0.0134814204774314
0.0118999450714045
0.0136128302908011
0.0125001825887153
0.0134486470236174
0.0116631552314067
0.010595204625477
0.00937317472932791
0.011632951206918
0.0112944183202915
0.0117522731522827
0.0124864664281098
0.0135625870347542
0.00996378861436042
0.0116606523095875
0.011946675997048
0.0120480002765934
0.0113956524139882
0.0136829137456218
0.0156670258114734
0.0152511954027746
0.0138287864482954
0.0160490294899741
0.0141934924241698
0.0128395127351829
0.0148736383631698
0.0170753962577956
0.015376274283572
0.0153255457081347
0.0140150921323454
0.0160149986385264
0.017173706710831
0.0160783162583961
0.0132574455104157
0.0129963782006105
0.0134211255174987
0.0147843802069712
0.0148171124728212
0.0146053806186841
0.014610218641529
0.0159586419558619
0.0140499420211513
0.0137542443465045
0.0132991671519289
0.0143773811233069
0.0136494351631256
0.0141188795147295
0.0135218721617987
0.0137759515628212
0.0150982259754686
0.0151863077495509
0.0152299779154005
0.0152144623146594
0.012702189641293
0.0120837996728742
0.0136571901278758
0.0141371356098843
0.0122502856729177
0.0139043857768896
0.012720656667343
0.0118392299260777
0.0125029381354459
0.0142670774762484
0.0132784050402748
0.0127550279313442
0.013773903124755
0.0133589828960104
0.0129456730349705
0.0147545269061735
0.0146876515531452
0.0134152948266709
0.0125040842419172
0.0152507712616949
0.0144604389052252
0.0130820239664497
0.0144805250514178
0.0155721832425736
0.0146787864117437
0.0144615623687146
0.0147462645816952
0.0146911666237329
0.0129599399338045
0.0132814010540965
0.0148525467208412
0.0140013274002999
0.0129383727964266
0.0126350279508382
0.0124319080671071
0.0133329921464947
0.0125061078056174
0.0118250092985238
0.0121056230363365
0.0122049608268704
0.0120048811984654
0.0126307943652944
0.0127072018743427
0.0132288215191097
0.0143079659680488
0.0136651253907231
0.0135013089468364
0.0139907599724926
0.0130479952166774
0.0131592963763594
0.0127997656460958
0.0133443038454435
0.0131681734728418
0.0135775486209989
0.0132243952095477
0.0146350438609219
0.0151834990630964
0.0152469788524479
0.013870036968422
0.0123798216799862
0.0139881605893599
0.0160812273642732
0.0146592473846504
0.0173288975108419
0.019000099931948
0.0193306963873396
0.0194063367069088
0.0215201877096987
0.0219617166164485
0.0232369726598078
0.0252131656904056
0.0271332795086283
0.0269180065368875
0.0283825584325115
0.0292665815195027
0.0308862015755677
0.0301205989184068
0.0317903044539367
0.033383690886235
0.033182559172239
0.0346996663633196
0.0346592321562276
0.0335413145219442
0.0343287699977816
0.0337778800636739
0.0340286905762504
0.0328335640752489
0.0329684694477421
0.0348025561366162
0.033472874223615
0.0313077579480016
0.032911721543692
0.0317920068666265
0.0315166209000294
0.0329351722864808
0.0318305374737827
0.0305102396638067
0.029264470431233
0.030173580720215
0.0321869681725976
0.0295691805048921
0.0307301611823683
0.0318393135170029
0.0332225167861823
0.0338166125495636
0.0344993900686052
0.0366539208365667
0.035822312801178
0.0354139483136486
0.0373753370487844
0.0378185526562667
0.0383982761153636
0.0400920203945556
0.0410290002408254
0.0409021054204512
0.0440746601762442
0.0463677760117349
0.0445932991094332
0.0452569387026668
0.0476616141224358
0.0476270051116364
0.0478987873362668
0.0494163802367684
0.0522938174657438
0.0511202502561315
0.0510335751807406
0.0539083751803738
0.054676111756794
0.0545123711098459
0.057507802989736
0.056721807966598
0.0563519106901745
0.0561513795069284
0.0561970968054875
0.0557702274433823
0.0557294703207766
0.0565808273730174
0.056555925799962
0.0536443134755657
0.0529511557719785
0.0547622333230469
0.0546944605871146
0.0527643203038956
0.0529551191732531
0.0544313370779212
0.053286028996095
0.0551233076334873
0.0576115968847254
0.0583507006229497
0.0609264113367336
0.063812642272901
0.0653319656815043
0.0651729842675214
0.0692029948727642
0.0724890574752719
0.0717907067640635
0.0733744449547036
0.0779891427436897
0.0784989172378894
0.0798938532356229
0.0806261865363314
0.0849765780893678
0.0839933250273139
0.0854883760406907
0.0876212401312174
0.0869778991388402
0.0885326521775875
0.0903081433319567
0.0938335300957659
0.0955874256676899
0.0948923490077215
0.0956310339881449
0.096426954677465
0.0976336718239272
0.0979613095949145
0.100222519762424
0.0980141203352097
0.102037230993431
0.102361559388798
0.103129048337308
0.102417408539201
0.102008865254382
0.103979386771825
0.103589822680322
0.100411799328984
0.10537701025504
0.102480085244675
0.0998253215999996
0.100769703338873
0.0969870327869338
0.0955869674124866
0.0932463442185775
0.0921501576339883
0.0905424241294458
0.0888005892805957
0.0912553380772102
0.0874605052538811
0.0862177648700327
0.0877680794753533
0.0895279547348135
0.0883235245372913
0.0863343891822958
0.0918740148224408
0.0897812011700815
0.088000212161032
0.0911381870737197
0.0928393965164721
0.0913874429994307
0.0903735712231111
0.0907829257102624
0.0913629875384146
0.0908712374485694
0.0862748646329588
0.0893251098149874
0.0887250761347606
0.0874805273291081
0.0869994429431302
0.0865700918615861
0.0830550332490615
0.0790948687605514
0.0767750707568686
0.0769069384889681
0.0732280681074686
0.07203581573289
0.0712786061268953
0.0672182256698804
0.0656222463269575
0.0646067300956235
0.0608277082476465
0.0578607095518349
0.0561207430712991
0.0535645575562984
0.0499080523074452
0.0447778306161807
0.0426754412292796
0.0412374214208632
0.035113155901452
0.0356390044176259
0.0321446158086165
0.027069694979198
0.0225706191841572
0.0202950902659926
0.0129382399513529
0.0117051591794854
0.00756790963726493
-0.00058684347962308
-0.000955116915824738
-0.00689393128575522
-0.0110898142769752
-0.0165118119821145
-0.0188408970027199
-0.024493295920904
-0.0267002493539264
-0.0271035847043556
-0.030950622346205
-0.0323156299040191
-0.0320748889443939
-0.0315426991833365
-0.0320737274930843
-0.0303830437400404
-0.0358248352355953
-0.0379004189538063
-0.0340873865899669
-0.0374034719811881
-0.0386586396481891
-0.0355891883942686
-0.0392788158497105
-0.0379181876157989
-0.0338302800891365
-0.0357571163735965
-0.034079355563365
-0.0347716421633034
-0.0343659426492323
-0.0346930882609341
-0.0365125839006871
-0.0362214457865531
-0.036042252970678
-0.035345699828369
-0.0346799408668137
-0.0330361117020654
-0.0329666073372303
-0.0352017726930047
-0.0339811590402108
-0.0329241409607571
-0.0328971757263499
-0.0327824872706703
-0.0294864096821389
-0.0302843397870809
-0.0298905730926835
-0.0300355183066053
-0.0278241300404759
-0.0248598794668122
-0.0264043277116701
-0.0249215248878848
-0.0256743166102842
-0.0260256675487164
-0.0217748465410872
-0.0222919552782017
-0.0234306739264683
-0.0202440346064364
-0.0228745953026745
-0.0207461498296351
-0.0241185526175966
-0.0224870669202617
-0.0228957598779671
-0.0221949414149608
-0.0196762960157431
-0.0187960041748498
-0.0177580468508194
-0.019254422488311
-0.0198295441977273
-0.0182278993671594
-0.0191332328081106
-0.0206608956993358
-0.0158015410101612
-0.0159372694386144
-0.0194812625754649
-0.0181269375650968
-0.0206484748467792
-0.0206007405488866
-0.0208312478414803
-0.0206343655380904
-0.0186151455991381
-0.0213436302499782
-0.0198101327580624
-0.0217649614957539
-0.0226830486841671
-0.0253868289944278
-0.0231704366958725
-0.0189912961252118
-0.0229992625288821
-0.0237186133828021
-0.0233358630813079
-0.0200643150548694
-0.0236712001706165
-0.0236043733026001
-0.0193182460339763
-0.0194127977650782
-0.0215274442738762
-0.019815877497473
-0.019568064205461
-0.0208470575790052
-0.0178994127212553
-0.0168864360072469
-0.0186394731990914
-0.0173141173371296
-0.0186152968560423
-0.0173239927964265
-0.0167932797264333
-0.0139167281563319
-0.0182168387038822
-0.0149038266216434
-0.0167247451509104
-0.0141508786126872
-0.0114486772204207
-0.0137419839683221
-0.0141159739078816
-0.0125146082331569
-0.015611170689618
-0.0123037858329591
-0.0107243635151994
-0.0143500903645093
-0.0138306276451334
-0.00713183072448144
-0.0123309723562795
-0.0177924563651184
-0.0131505697978595
-0.0130402685330671
-0.00829902122843817
-0.00838928630162162
-0.010206634999332
-0.0105923159165566
-0.00961665447839957
-0.0112383019580487
-0.00669411294861938
-0.0108512329639822
-0.00813314407736878
-0.0057764238850698
-0.0084778004127623
-0.0097439166529544
-0.00934327519919168
-0.00998618169853585
-0.0113435364937912
-0.00803980020268519
-0.0084575684393523
-0.0126640967054273
-0.0125897365559566
-0.00647667131325662
-0.00996953782099744
-0.0133222488876474
-0.0101674288908014
-0.00766231249372796
-0.00768737905627216
-0.00893144464422834
-0.0163138691948432
-0.0127984332686157
-0.011559804421474
-0.0147815191631152
-0.0133457729037853
-0.0168526740777933
-0.0122153939334347
-0.0115843596817867
-0.0162342610186171
-0.0132835227663347
-0.0156115424635334
-0.0150515646914374
-0.0159337516602618
-0.0223205590253228
-0.0168907851866899
-0.0135296132158887
-0.020399502935347
-0.0174335776671828
-0.0165132721601379
-0.0223254683763922
-0.0145149536702645
-0.0173928604576391
-0.0184448871453522
-0.0203279815538875
-0.0120702806688459
-0.0227535743657956
-0.0215246184855452
-0.0145230474805542
-0.0151554610093827
-0.0226510376097491
-0.0204264364825937
-0.02020154137353
-0.0196814136252594
-0.0183799715262015
-0.0254474886907515
-0.022717272841261
-0.0165951194559656
-0.0240362384228141
-0.0206960272181835
-0.021421260559006
-0.0240109327290207
-0.0153336772864256
-0.0137452696775889
-0.0263874743559646
-0.027058657466542
-0.0171643995957473
-0.0167946663630242
-0.0241127348582251
-0.0194737571415158
-0.0165294644013559
-0.0220501134871796
-0.0297587456139883
-0.0141114180666358
-0.0125206048341253
-0.0199609683384019
-0.0136819570321061
-0.0150325568514554
-0.0216623854910808
-0.0181565767095631
-0.0217912934156798
-0.0220642998383062
-0.0257480581969117
-0.018127442310085
-0.0150911711303924
-0.0174633922365252
-0.0189177521689944
-0.0147410281414196
-0.0138784245760693
-0.0126573897549918
-0.0130232331956999
-0.0127186551435525
-0.0202772583733176
-0.00952359741637696
-0.00730725967299047
-0.0169446024128082
-0.0188377953069285
-0.00756533480118212
-0.014983184184104
-0.0168366250404901
-0.0127543852155923
-0.0135123943444164
-0.0177858098006127
-0.00340113860103893
-0.00496423503905141
-0.0106176751508006
-0.019329661071154
-0.0128860338431853
-0.00785221625358695
-0.0099955271809053
-0.0119882638084602
-0.012695680829215
-0.0116469055126928
-0.0166287171424822
0.00260374754866123
-0.00349152894954714
-0.0126231132592589
-0.00756650266860682
0.00395005822321817
-0.00830358141037712
-0.0204270857901293
-0.0137415472480298
-0.0221854057577266
-0.0232846353650188
-0.0132022724899227
-0.0182543419972816
-0.0130039986422836
-0.0222810937586014
-0.0247914230909253
-0.0199985318930493
-0.0333185512325954
-0.0208066894060626
-0.0134673942001048
-0.0257105581957817
-0.0253828205450424
-0.013495174205373
-0.011350345840312
-0.0263914696116997
-0.0182603578064576
-0.0160901772287097
-0.0218483896922229
-0.0193100509177996
-0.0161647529110266
-0.0124967317471934
-0.0232310764723041
-0.0246015619090411
-0.0358512592081345
-0.0345180943242102
-0.0261726337967441
-0.0308141791130799
-0.0242763418348466
-0.0202002226305758
-0.0157183832794053
-0.0240494362443338
-0.0135420198317353
-0.0199792724854432
-0.0169748626195434
-0.0226761130468086
-0.0265615489682369
-0.0211233560916872
-0.0196321786856964
-0.0327374501983308
-0.00335946337995945
0.00120463966222762
-0.00356014876137775
-0.0273469442113212
-0.0330659221489847
-0.0119963917580849
-0.0115778799667626
-0.01094638781243
-0.0139171372941101
-0.00513582705430861
-0.0186526415160074
-0.0129690076096021
-0.0217246098347775
-0.0328010662438721
-0.0163443146556469
-0.0188956677957301
-0.0266962949445463
-0.0364715133810941
-0.0245025692469165
-0.0340467223275221
-0.0143592564681963
-0.00119873842050296
-0.0218155901245361
-0.0212959291927057
-0.0189867816979795
-0.0232845526538588
-0.0355155493300886
-0.0230057734474245
-0.00555712430846449
-0.00419002767493256
-0.00515127312071235
-0.030288671615772
-0.0390474725274191
-0.00412094644731015
0.0157318270178016
-0.0231855112132516
0.00461966514255568
-0.0231654910509647
-0.0460522922059174
-0.0160457041730152
-0.000975116698263422
0.00168241061268355
-0.0301625118051414
-0.0149222785101736
-0.017305361713522
0.00785745982041086
-0.00859793557704101
-0.0250090322333273
-0.0159623720365205
-0.0187550416776803
-0.0182797721801629
-0.00910571831200021
-0.00408777023387427
-0.0382691693343257
0.00817824457929323
-0.0159432404751733
0.0361210846367391
-0.0267399957831313
-0.0185101580600943
-0.0313485718696113
0.0170818664886053
0.00256155536759262
-0.0100117515612179
-0.0375519586187653
-0.0122938632139954
-0.00704621974965117
0.0106966231584284
0.0459746295207352
-0.0351951125394945
-0.0117630656263
0.0571167442177861
-0.0134442956790403
-0.0326940218107774
-0.0821115145268075
0.0232141627430602
-0.0985572919254548
-0.00418530956095904
-0.0788347464701391
-0.0166683607353981
-0.208042868623591
-0.0950581444549512
0.0391939578586293
-0.0365869747348487
0.0133700452018643
0.0544302202000775
0.00651674906659692
-0.048290509680256
0.0210225720169075
0.0166050329383603
0.0587792738179474
-0.0799120476178696
-0.00749868047314985
0.115479709959534
-0.0916973246461991
-0.126433102298724
0.105785319090594
-0.105880620975642
-0.258820869442758
0.113510280877777
