3596
4000.36533379555
650.420452594757
1
2
2
0.0718677649639848
0.0573741984538972
0.0792142610581545
0.0575995626974088
0.0792754129885709
0.0594472187264419
0.0757298487342253
0.0623472953975357
0.0755002013044188
0.0553104842375543
0.0671157791578988
0.0577966060898089
0.0740801499922457
0.0603428955715357
0.0763286235276217
0.0621310936442371
0.0749955988145311
0.0630878141820463
0.0688028505243544
0.0594967289414922
0.0724509975369038
0.0616188950804301
0.0763100435908289
0.0617675107909096
0.0699408527200906
0.0672245215090901
0.0749341514626454
0.0569009998525718
0.0702264644774269
0.0648444713528998
0.077190154898606
0.0629033086473772
0.0790546169611143
0.054443946074093
0.0713419261479029
0.0604042552738474
0.0782249751191737
0.058960359291202
0.0638457412737476
0.0701851223592825
0.0683601348081178
0.0594603156076352
0.0801875863126214
0.0657911078712946
0.0739993771093677
0.0682095313168294
0.0733642946827472
0.061206682028774
0.067320155606267
0.0586542027934227
0.0763305784242532
0.0664645125837006
0.0849936213462898
0.0650209686652347
0.0774438754298249
0.0742406242962987
0.0871067738907713
0.0591193564531107
0.0769403834263958
0.0570449097231424
0.0833894452652874
0.0811852779927366
0.0691209198469648
0.0546698353930075
0.0711448822090425
0.0650235209140866
0.0714334089158446
0.0596498625071125
0.0768306304534071
0.065940718256939
0.0647502523071075
0.0505146633657131
0.0883401744333971
0.0587978885242721
0.0830635408564112
0.0552940144585442
0.0675887584560885
0.0604976206308249
0.0644686596019084
0.0653248693701045
0.0862029562201206
0.0615485048032381
0.0735719800202673
0.0466124023350575
0.0797622876394987
0.0677706804623267
0.0688645836248909
0.0536308569044695
0.0972304082480271
0.0660107731923179
0.0708586666973166
0.0507352361953745
0.0674211816390337
0.0497228488737004
0.070016582009477
0.0501336974988278
0.0692686089734656
0.0571946346047981
0.0590259706799365
0.0518586954595711
0.0860321629917476
0.0615621742955402
0.114089825607599
0.0423945047979019
0.12383126808112
0.0784050811900774
0.0613108818894442
0.103992487119654
0.0856740004102665
0.0699742307519707
0.063926545753142
0.0587975636832517
0.072648515154782
0.0659245214999255
0.0654633042652736
0.0780337044122868
0.103312745773288
0.0633991423023115
0.0775582200753975
0.0515121626990491
0.0557349594575596
0.0590802342572866
0.121372307201902
0.0515598015457746
0.0857119499431595
0.0656351226680473
0.064770677681678
0.0751902766753819
0.108964548462456
0.0539413691493498
0.0641218730413783
0.0446772830419485
0.068054366203177
0.0454040293959948
0.115596968414825
0.068246129264809
0.0735568178761215
0.0397560053617954
0.0804285456804736
0.117019512230996
0.0840550045746523
0.0590696013952969
0.0563756820139259
0.0521587710276467
0.125852415882533
0.0704987098515464
0.0572930385412129
0.0647660145192047
0.0865899114551165
0.0487770428375262
0.0648532170985275
0.0427662657817698
0.0862894716911032
0.0595598601430747
0.0339701811937705
0.0449240951159647
0.158757442650907
0.0489994403959053
0.142639728459153
0.0562204460173304
0.0789481267320796
0.0607188981489267
0.0710099977641701
0.044286425894886
0.0715084106641522
0.0488522001989818
0.0708796241943297
0.0897170187668486
0.0658950636739501
0.060398391593279
0.0930227982058766
0.0647815897449417
0.0522947464754367
0.108206939876702
0.0927362765078516
0.0359417691281523
0.10576634599647
0.0729614972457522
0.0575591518608063
0.055852688556834
0.106267244817032
0.0528296970503743
0.0704940053836863
0.0483133716275844
0.0782914845011989
0.0737071940785947
0.0808240226941042
0.050689115742905
0.0686519000273201
0.0340952422044262
0.0852656307468861
0.0902712202801268
0.106226506930164
0.0604438287625456
0.0762423231850209
0.0252210520616999
0.0979115801288807
0.0975736963882633
0.0720240101230452
0.0514644403864347
0.0632453833864097
0.049699679828045
0.064796321616947
0.0485346413271472
0.0573818173323752
0.0257609346155894
0.123541929442089
0.0744714877322118
0.0663002083851534
0.0450817862223103
0.0631782604923097
0.0418034126271599
0.106282343264518
0.0966233122838142
0.0657347596525543
0.063306002594321
0.0580694816642525
0.0726716031023441
0.0953282823713459
0.053547182968894
0.0625200209819566
0.0511543310825266
0.0583287108082773
0.0483479693027344
0.0632378979338191
0.0534221625767534
0.0616722161081381
0.053600944312805
0.0664825798696282
0.0483584125737445
0.0675629018268246
0.0653255485966549
0.0614695191406977
0.0522399860628728
0.057364606875755
0.0548653165426796
0.0983202456745639
0.0527561674948144
0.069864553369834
0.0443192176402227
0.0617112134335512
0.0469666495077484
0.0681485398070283
0.0574637378194872
0.0618194903816441
0.0374752218547153
0.112377205221791
0.0677691175388973
0.0679911888365602
0.0426403431084715
0.0783875545442992
0.0784874078461868
0.0607556361219233
0.0576243200033534
0.0607930057461708
0.0536322804112993
0.0554737065853567
0.0874863087061119
0.0725632079378686
0.0492177847230686
0.0827849360259422
0.0719936983579077
0.0543855934701979
0.053466739538013
0.0415830266359928
0.128825452767685
0.0867000768143638
0.0278665141406708
0.145248110662082
0.088493601990753
0.0785551190770328
0.063443487720118
0.0116532448591016
0.130486068098084
0.135312964957687
0.0645718547492298
0.0757292881462141
0.0748539283908512
0.0652849922771278
0.0622100993518063
0.0787161422968637
0.0511267751841968
0.111350961815698
0.0898531891719972
0.149606556079366
0.0477300883552354
0.0851624058613147
0.095713299665504
0.0701010123767103
0.0670535910243474
0.0643781032399581
0.0567278402639721
0.0833759246775713
0.0852209073492524
0.0726612592425649
0.0711358774151347
0.062328182076021
0.0942781070756816
0.0795784181617785
0.060228314720112
0.0720323383034474
0.082398018564195
0.0609187427437809
0.0598639018744609
0.0634889174160182
0.0665842905968556
0.0652226633684058
0.0386909441806345
0.128985836894036
0.0928658903121438
0.0682474333521153
0.096984783803047
0.0749634868013853
0.0613353214176295
0.0687851273370719
0.0614100933625914
0.0668795967368741
0.0578700809137455
0.0504693684159279
0.0897865167150404
0.0856647033198751
0.0495914179825495
0.0696962158294883
0.0533570806930966
0.0715713951032851
0.0578271733760973
0.0684700054598833
0.0568560257564434
0.0659232264089663
0.0454650551400933
0.0902130518844352
0.0998298270037836
0.0493354992096454
0.0827835797864541
0.124246225485981
0.064893876033419
0.0818593651177888
0.0594081519270974
0.083157809942242
0.0666165123591343
0.0736980678012586
0.0634015319189641
0.0758731521264319
0.0834433383501433
0.091620430843285
0.0548930932680257
0.0927106574108841
0.130367207518297
0.162587085667945
0.102950547334242
0.0940456695406754
0.0580167209344942
0.110282600993996
0.125211830238808
0.0941400404557074
0.122799640176811
0.076625846214327
0.0918463080486279
0.0866232695814726
0.0857616241557676
0.0811507788121998
0.0841257672739561
0.0911824694582611
0.0766967410580962
0.0994945357710724
0.0861093852250118
0.0932118437864211
0.0873581929861822
0.143801589702872
0.113382454851896
0.0960089045974593
0.0978022240882254
0.0946848274104109
0.105314933419632
0.151130659771864
0.139655860682965
0.169670639621411
0.103099111547356
0.183076783817541
0.110929820994025
0.126123802277497
0.102165692064237
0.123939308740102
0.11561124216422
0.127682361363511
0.109603949021955
0.130215877233797
0.118657103913694
0.135682869880192
0.117003935226383
0.146898684587859
0.11098036516803
0.153696850762716
0.13669446496875
0.142083750273692
0.125917416484835
0.149014689315349
0.181205916803983
0.198020747017883
0.151099057420434
0.151157537342978
0.1478271394398
0.147091119818186
0.157515454270516
0.148396373461619
0.155419950332356
0.163682019727449
0.178626448195106
0.201401008863286
0.172531755359871
0.190508099533721
0.144804903522743
0.193924124813357
0.174777479029521
0.186571595534121
0.199218577115036
0.195299856980945
0.159094848504621
0.206546874837264
0.222853282915401
0.194503338154726
0.216447866444804
0.193272377479328
0.186069953326545
0.196103681616504
0.200517347760817
0.2038783429254
0.207325550728232
0.227612701028362
0.202558098437447
0.219472306802556
0.211002640488635
0.220169840071424
0.224839046116297
0.234145280795476
0.209641732866654
0.241408517787877
0.205062626811219
0.243174511467207
0.214788443599378
0.248579632561811
0.263896272871838
0.256300499559905
0.25994073402681
0.247681320387634
0.247725416247566
0.247676400964174
0.247528383712679
0.258019979919007
0.246330117824714
0.259428733467967
0.255893528528347
0.265030131062492
0.255416356967032
0.276388260835671
0.253678290672364
0.284773339955627
0.27486483516258
0.290913687339004
0.275224284368312
0.299314128927726
0.285414824293873
0.323273488715253
0.337502135153255
0.324800133481723
0.338395838433522
0.315424915237477
0.296812131686068
0.325704090120526
0.31499976825449
0.306545650795674
0.306598176820007
0.334502924505725
0.316211002749735
0.334444148293105
0.323415399428551
0.356684197088125
0.343696226741681
0.35815213179909
0.34999520111997
0.370548898657016
0.346278384913925
0.358539966910197
0.347046899894363
0.371196987031859
0.372758671778617
0.388872544839219
0.386439429067599
0.390778905628931
0.373120445177292
0.386926453432657
0.360569054724037
0.401599254224314
0.374668264260298
0.398251664241698
0.386198797451148
0.399316213689307
0.399303425935151
0.423894444216245
0.420215192335916
0.434803556470515
0.403059350238349
0.458189771959142
0.430588677362642
0.445132873258438
0.438610218659042
0.454875617624881
0.437173538299878
0.477449495956489
0.435672114225911
0.465791475224272
0.467240727978377
0.486545762012126
0.451839478083205
0.457886173052759
0.456883930606168
0.503259381347463
0.455441682648299
0.482570261605411
0.498400225216264
0.511950573298437
0.512676178721668
0.531606699562692
0.472623441304689
0.519418314995415
0.521735948100413
0.541865104171312
0.50596071167928
0.545723495753364
0.497080811393555
0.553402821123175
0.516229366843654
0.573753082490943
0.537099317884952
0.576978545568665
0.526641043527405
0.569501482278204
0.548845631711542
0.577614748218701
0.557318532983391
0.600876790481081
0.568756517931339
0.595997922902389
0.597888425285939
0.592674540452903
0.593334129881759
0.612762644047195
0.561260374215466
0.614906005384842
0.598143000380013
0.592227822693565
0.611670075075813
0.652897343429096
0.595833629194263
0.636237394479342
0.627754457536102
0.657296218774883
0.631224781363368
0.639883054584601
0.639337190494143
0.716761709036318
0.616757296023073
0.640365641627527
0.646769199957861
0.672646568120079
0.655771519192172
0.682656431495783
0.648689662637936
0.679237139214559
0.689663329490998
0.708652807753176
0.689486600904585
0.721086019136148
0.708284090177922
0.735998316944697
0.707894012330168
0.792779815423194
0.697992317979789
0.74711684273769
0.727078585450446
0.788030233572439
0.737647868722767
0.756361300015649
0.726575836507654
0.754979866664999
0.755667012709994
0.723209655690828
0.706938574922599
0.794657953115059
0.756759805611319
0.805982603573375
0.773624877153963
0.776319420404361
0.770713101696492
0.821901419757099
0.791978199065575
0.792270407745152
0.811690412292899
0.880897783358503
0.786359982075136
0.78962130607658
0.798508626763049
0.822860513612429
0.796400010683299
0.834068583297044
0.787001745908514
0.832595618562717
0.821067220554972
0.847457938817135
0.804928714661237
0.85390249873643
0.844305327098447
0.894064535608469
0.857925845967249
0.883125404029674
0.849963733817271
0.916824403741906
0.85749244384103
0.886952742374452
0.874747729161391
0.888055268285377
0.874201718439304
0.891969996530295
0.896919089053048
0.925862748205477
0.87901281525987
0.957535835000678
0.900000535621255
0.875519173835906
0.865294299626833
0.909929364755403
0.899212085375028
0.962544303515529
0.950073255151807
0.959953742156801
0.938118519144034
0.975135892532765
0.911325486625055
0.966201919291176
0.93489533941687
0.916609558406623
0.915107000040559
0.9215248962767
0.878086738126579
1.03283652912724
0.967800600708947
1.03135412560438
1.02718889011384
0.969429508447994
0.939306359142024
0.986386275838007
0.980621822811569
0.957005395890756
1.01788716153247
1.02868823430843
0.953740233323683
1.03989410233593
1.01189315861102
1.02233776188425
0.988740845370932
1.02623992160268
0.978024103607021
1.04391604459211
1.02971291341429
1.04406456536855
0.968368520550107
1.03380378148517
1.05538750476138
1.09661991631442
0.983146515512387
1.01837505154493
1.0051220228306
1.00958067975333
1.02154056737778
1.07646438514396
1.04027033129192
1.06636646258061
1.023860876062
1.04078567313212
1.01243960102294
1.09690923413217
1.0550812839048
1.12587196096429
1.14236313680507
1.06572953612606
1.03085681623296
1.12366374656095
1.10975584081971
1.1306777399814
1.06978588960611
1.12647364750544
0.988521744941376
1.07080442257081
1.06704195345375
1.05310305254706
1.00149655021251
1.13703617925946
1.16735664887561
1.11464135855773
1.07214212804799
1.13442225821639
1.08933962312136
1.10411709275409
1.09011387093512
1.13081017834301
1.08386648448829
1.110502809778
1.09737827705261
1.08814620525559
1.04374387942346
1.10987731350708
1.12776907863779
1.10320310282542
1.07209323164463
1.1865209243184
1.10014228936191
1.11464573088956
1.11547769065634
1.13781809568299
1.07229700967393
1.08980965358956
1.10015589413946
1.11214535965987
1.08634681859387
1.13255789720598
1.12762440988463
1.1644842585314
1.09916864080193
1.10283896777127
1.06871709910151
1.10576504630077
1.07409702456406
1.1511279387584
1.17129267513171
1.07575250962954
1.04417029879653
1.15845952121955
1.08025722223893
1.11971665286275
1.08824483198318
1.09181538243748
1.09334335304654
1.09530012311281
1.0821775564318
1.13082261437975
1.13005537288825
1.11598283105324
1.10403442455948
1.14854031514194
1.07280197855037
1.13294543640891
1.10689632162281
1.13479008863462
1.14566321774298
1.11332531343859
1.12037484469004
1.12040034085146
1.06778952065933
1.11714495904899
1.0761524094111
1.11424012467679
1.1025572431144
1.13359997332787
1.10980856138529
1.0970254266897
1.07032805082278
1.10973098139638
1.07294727653856
1.12676914744579
1.08616384071443
1.12168197543977
1.1218591487636
1.10750158385853
1.06202469363926
1.07437969269366
1.01774272257147
1.03882964399787
1.10241454076141
1.13483161548496
1.08034912692534
1.11368767692707
1.07774411926112
1.09722291777053
1.09363945563127
1.08141160890156
1.07033950488611
1.13683416731974
1.15308882662817
1.10580676886531
1.11611544250943
1.13847723142845
1.04926526711953
1.06000709917069
1.08440391651553
1.10268704825017
1.06217670958822
1.10487105641261
1.07951305459208
1.06498049723957
1.05971792865277
1.07160338719884
1.03038378645272
1.07540040305727
1.08346296615498
1.03022083548246
1.03634400687806
1.08797737528645
1.09771614808159
1.06555674584638
1.03000120323893
1.02863468452963
1.01374359230545
1.05918062785196
1.0681141876702
1.09023270687206
1.01987249900231
1.05147726565394
1.09157877675604
1.06267941075543
1.02371048207445
1.05973761925097
1.00307762694938
1.05150387169502
1.0519074909917
1.02828309603582
1.03475744887688
1.04622476783856
1.03384421230949
1.00324531929268
1.03144396377993
1.02407782965855
0.999279554098578
1.02833262843713
0.97503698724824
0.9961348379144
1.00445843170193
1.02563704763607
0.981214580593481
1.0090220554448
1.0019461467469
0.964248753846878
1.00107506648821
1.00924268222032
0.974876307415688
0.989483589874022
0.970085369043685
0.958227827453151
0.952718176232894
0.945218857815469
0.949958181370578
0.992466431477162
0.960377628163755
0.933690866223015
0.917264619315243
0.941019923250987
0.928951653219591
0.968217396842047
0.963522497160319
0.942536477145949
0.968593577511174
0.934644655750322
0.911715685027083
0.946685191545172
0.926925602696884
0.915365148324925
0.897678206850432
0.903400338758419
0.876362247265144
0.901147769549685
0.929548231107142
0.931093701350309
0.913892466988183
0.909202231018778
0.903011816119069
0.896996304293776
0.879180523999527
0.903242006751743
0.880116949633763
0.874466073810627
0.86453247607214
0.886041547609134
0.855971054628317
0.854120177750939
0.850731339344676
0.822313833290129
0.834889605543967
0.850708863398566
0.835754302348023
0.841305318422709
0.830367566411751
0.814746708606024
0.805499690176016
0.826211207518308
0.830972552647692
0.806775388391717
0.788157133877016
0.822252283809916
0.837094340662182
0.827170434108373
0.793864806806567
0.781462440147196
0.791881980295273
0.796195045910796
0.784843252747611
0.812443811941587
0.785267829346286
0.781234984898451
0.780676281989571
0.759700762295297
0.756075232616545
0.743354414495988
0.75694071100207
0.76103215181214
0.750966892822468
0.753612438077163
0.750309422946523
0.729185198923603
0.726426618143893
0.751362097351103
0.734971243860768
0.728984117907366
0.71445435115722
0.718543758957904
0.722802843373224
0.7169222595192
0.715015730023698
0.693861233956488
0.682482788490573
0.699856609994985
0.701610935242461
0.690190417461861
0.687108678604986
0.693768173436041
0.677740970335165
0.684318878280561
0.672142995856386
0.671573904003053
0.669698918637148
0.654480896419203
0.652382347220593
0.664694044762114
0.654758701780279
0.654605385837981
0.63331680507189
0.629212260210947
0.640783561057971
0.637794275327185
0.625801269530381
0.631728744848907
0.630100509978463
0.631970004599729
0.622127327987293
0.625988995730236
0.611406517441793
0.603505415775458
0.609616243881843
0.604975141331741
0.600538451783789
0.595636206622606
0.595589426001052
0.609545876843634
0.600506092106293
0.597638799354057
0.586453361258939
0.580756012871669
0.576664379123367
0.581296886790069
0.57687871601238
0.571946247664789
0.56088521041891
0.562246033789264
0.56232870638727
0.568316335975253
0.563268303601506
0.556614495245664
0.552908734151768
0.554286616957774
0.549949449454462
0.549729940681382
0.539863973788598
0.53504251824058
0.53597720363106
0.531153159292727
0.52534857858848
0.525850779395098
0.521746970161675
0.521468376262143
0.511258835572494
0.512249083073954
0.517904420125811
0.521361984125831
0.519925392374397
0.517468935050359
0.505392056724536
0.504983685352864
0.498973301534374
0.494046583477306
0.490357924164484
0.491273844232163
0.490631936356784
0.477304974863994
0.486517481678306
0.492588584199047
0.484906116931092
0.485258192313855
0.474309507331836
0.480775920267794
0.47747997721284
0.472873770163497
0.470446583715815
0.465509727981845
0.461973105588271
0.465412015222383
0.466596677240298
0.462724860533298
0.45864624911541
0.445293694507775
0.450276991769027
0.451218377265605
0.446613204599172
0.446883104314667
0.446390155224507
0.437754309336142
0.442019097609572
0.439307917396231
0.431091564733494
0.434683177199389
0.423022377393051
0.426281857375539
0.42954503550404
0.428907822775164
0.4240815490277
0.42758876716606
0.422425090711811
0.417884078609066
0.41605914745729
0.413743605443035
0.406278460464049
0.409566447272998
0.406751978303927
0.407123007225159
0.398514359362313
0.394292580910866
0.397123217757336
0.396041675429317
0.394903202060293
0.390266038333922
0.387900784663438
0.385111685525743
0.374528548830595
0.386491963101012
0.394769905480307
0.377223967256663
0.381777727783173
0.383357301647426
0.373326869037921
0.377071703834275
0.377121529715345
0.370014606675469
0.371153472894354
0.369589082113544
0.373383866918011
0.377280450764416
0.364760103331817
0.362817188432592
0.368137831893092
0.374795930973662
0.376372718370869
0.360285792256368
0.36289687489671
0.363835419691611
0.359030607368606
0.360446664162303
0.35744801248997
0.354715359481243
0.356164934434644
0.355944067036426
0.35261801777163
0.355364472174164
0.348204342043502
0.354227071269267
0.359010227063414
0.352857155262802
0.343637843643649
0.352560747664633
0.353062452012527
0.349962516688655
0.354795415862158
0.353471909204072
0.352754716311849
0.35396597174714
0.359280879252762
0.361925374331541
0.359016828074684
0.354894529417556
0.366391395450462
0.363858459927137
0.361817814725805
0.361923508409506
0.359026637483449
0.368870615569033
0.366104272108644
0.36214920520154
0.37406485449751
0.372067108791068
0.363032317236946
0.365718254739651
0.367569753503285
0.370195354004144
0.368354678495467
0.373456839439701
0.382351741170214
0.379133463329098
0.368359147648767
0.378350447517788
0.384429046400683
0.389576100695862
0.380186117362592
0.381282764703469
0.392812862828863
0.38886160479477
0.396362752983583
0.397964856293542
0.39425015106338
0.408155970971772
0.406890129998446
0.407841208784592
0.404730688615175
0.408613597612747
0.410585814061471
0.416762622776404
0.423100097863729
0.426601106868946
0.42367560810698
0.428350553699433
0.434371908192236
0.431955926493607
0.444479797264732
0.44749214140834
0.447287312677318
0.441609171645111
0.44699385050185
0.456540401500103
0.463318311151468
0.456681017055512
0.459033254616381
0.448892604509454
0.462510755823658
0.457106688727188
0.456733827671977
0.468658062777511
0.462173890948699
0.463568674588484
0.461630641988448
0.458607517788718
0.462422736952465
0.455885768858352
0.468111461289554
0.46911586503781
0.464432905756383
0.458080329393862
0.46323252768867
0.46535920907537
0.469638678173072
0.46269316937804
0.463974926610597
0.457453495594221
0.463041635824162
0.465303406370844
0.462957083001279
0.463707549725323
0.469306294648422
0.463173740827855
0.466138571610496
0.46039673954511
0.464406762820129
0.466130385938771
0.464818560906196
0.464112034852113
0.463586990719966
0.462535127771483
0.467712360667362
0.458751577009086
0.457044636260242
0.456955207291465
0.468217874942031
0.464835374309097
0.474472978928276
0.472976495970779
0.468792048790165
0.466173331152133
0.468352483909505
0.468404693129536
0.473821769170794
0.465896141934663
0.466874286544238
0.473138366140378
0.474105445665054
0.46619545889155
0.471564265971557
0.475374307162543
0.470542115311091
0.467991957333712
0.470738920687683
0.46073427844767
0.462004825265474
0.460655695016474
0.451951681088609
0.45641787295138
0.456124898192515
0.453260132530189
0.455459765940934
0.451144005408028
0.449209602822239
0.43818454171868
0.446985988765686
0.438984990189106
0.430862567429014
0.427974406288151
0.427713609753593
0.435570559498003
0.43423069234053
0.425336851404332
0.423176613793025
0.418228252665299
0.415840457409483
0.411092200687387
0.414315939721139
0.398072977320226
0.401105686278665
0.405090501057253
0.397386651102764
0.39164349799119
0.398037180529437
0.390135239545427
0.386953880997413
0.37983913216343
0.389845129133753
0.375819766995329
0.38076381562739
0.374556845590346
0.378880629249522
0.373798764513154
0.37250523224384
0.366464308425884
0.366633980420275
0.356318628818615
0.35995039926806
0.362429808505383
0.357172042864651
0.35081147022879
0.352540461545302
0.344865574425974
0.348180513045854
0.349052398287304
0.346711900532784
0.3393495482166
0.343253425008522
0.338402052657961
0.339292830946681
0.332684656401115
0.344559690669019
0.336778786872673
0.331334163190847
0.333625838723299
0.335165174444796
0.325489496131931
0.327618404080487
0.323574820481748
0.319782028242665
0.318508915108735
0.328038007117436
0.320507133158541
0.318525453005839
0.316821404519199
0.326176116958306
0.312631554607325
0.314756617785803
0.30937939425531
0.311521339590761
0.309160858586206
0.309077781203242
0.310931262476282
0.311139032051774
0.3039008679097
0.306648261884332
0.305601700375525
0.299459848976778
0.298700797180965
0.301252542145453
0.300388036248811
0.298012887864582
0.297826094406389
0.295282849667637
0.295984590634235
0.295473494174304
0.290960304007528
0.2954826698623
0.288149139830312
0.289398076823151
0.290926741969496
0.288746814390796
0.286806415896742
0.289236947903235
0.279473465186958
0.285223438218893
0.280712072175214
0.283229918242266
0.281944677021442
0.286957108548709
0.28275312333874
0.284059495152199
0.27775861190936
0.276799329616527
0.277049220428255
0.280360588941929
0.274043827281471
0.274400172445084
0.271563357708717
0.274958991904235
0.272381663818445
0.274353172629663
0.271453677314545
0.274533380769206
0.275212169576721
0.269129113985357
0.26598205717522
0.268225043271556
0.267055822257661
0.268621836637481
0.269942321728458
0.267882724048214
0.262229428157519
0.2602881321387
0.265193372475965
0.262374046746594
0.264497288588385
0.259844580363844
0.26185111127566
0.259263227561143
0.260763091920838
0.261627124912637
0.257975034229875
0.259592915489255
0.256449139222771
0.259543193459655
0.253572208629718
0.252078664894726
0.257865394603658
0.257331783116942
0.257732862270776
0.256526969931486
0.247156097895846
0.253623158888766
0.249255505976803
0.255142924085986
0.25110932512053
0.246726628818844
0.253671853608165
0.257607732195219
0.24929517634135
0.253174561631307
0.250965657850323
0.249983113891985
0.248201865264425
0.252151369385233
0.248539096782648
0.248002465457242
0.247036795098715
0.248271779562889
0.247157647986743
0.248550832789135
0.247990163274838
0.24934682424555
0.243864875547431
0.25070275609694
0.249516098445252
0.247805699089587
0.244318603605487
0.247126095714012
0.242040325541619
0.246349916624557
0.242278091132069
0.243499282828064
0.238255675829811
0.241402319329528
0.23772721716165
0.241774678533371
0.238198399241775
0.239999808674168
0.238747538727569
0.237191382071609
0.238380362795874
0.239155190666694
0.23782376385839
0.235619939378597
0.231801351584806
0.232522665548503
0.233283520716456
0.229013660919267
0.228084547983137
0.231238855197515
0.227467261735361
0.230255835131579
0.23004948567882
0.231743424516954
0.225028435781109
0.231791425914877
0.222888119319523
0.222833961996396
0.226511966692483
0.22902012147562
0.221520988995671
0.220592004312693
0.220893569104304
0.220053327366926
0.215436046777399
0.216317658231375
0.218549891194493
0.222188630373625
0.222301871650905
0.216432040531272
0.213299540809016
0.217459876384404
0.21706755017306
0.215666516733072
0.211416704192155
0.214114467050807
0.212596380726448
0.212888816471738
0.209531569131964
0.21020906963063
0.21282305528384
0.208644311182986
0.206680709455119
0.209652227269043
0.206021741283954
0.208879119726462
0.207537355037932
0.210883628422011
0.203948744740555
0.204149411208394
0.203109991612503
0.203450987009885
0.201818728857454
0.205259719251767
0.201010524506706
0.199985340876912
0.19769546252668
0.198996446689512
0.196465612125836
0.19656131370229
0.194558421437218
0.193149353796877
0.191040223167446
0.191491626759165
0.18850746735221
0.193184847749192
0.187822520898074
0.191640790832535
0.190041407243481
0.188528632764356
0.187406576412274
0.186047233862444
0.180376268479274
0.182014178819722
0.18140166636284
0.18069994264707
0.178359991214214
0.17899180340404
0.176293456168553
0.179133026494992
0.179101272290507
0.177447844840852
0.174697191607963
0.1735469851076
0.174827002742226
0.177319954868801
0.171611336940253
0.175929634940236
0.173404164339766
0.173999928853507
0.169928220490637
0.16768938155378
0.168009425141593
0.170669709156679
0.164407955878857
0.17069665181406
0.167864011905958
0.169614875563189
0.165497583716805
0.170940059919532
0.164447927089341
0.1651783274041
0.165385955768417
0.167222545961295
0.162242740911381
0.163004249866237
0.162078283714732
0.161709764415754
0.158386286662701
0.16060873849397
0.159107827397927
0.155149666812748
0.159039423171176
0.161374898206698
0.153971261768899
0.154319980903735
0.158542317840265
0.158133596182027
0.157035197904329
0.159524055630475
0.154015681153133
0.15687761501523
0.152394226074246
0.155430203087126
0.151363684989945
0.151597914416817
0.149975989642908
0.152826099369551
0.146722063141098
0.151467663819438
0.147425746092184
0.151154670821831
0.150445519536658
0.149054227368434
0.144796219188139
0.148420042892211
0.144785763796659
0.14777867048617
0.143654447517104
0.143426222202299
0.143321093118479
0.146394565918141
0.145116769863519
0.143115296086791
0.143911222062377
0.141541311533039
0.143226324960217
0.146785755898519
0.142589433941493
0.144411794627151
0.143841829894707
0.14492716710722
0.138861808959274
0.14022198391001
0.138102287405347
0.142536405634042
0.138602072957061
0.14279764684381
0.140160812010133
0.141885741799313
0.136654057075607
0.141339789750885
0.136677330456921
0.140370581172322
0.138322818218808
0.139162579378287
0.13824789598214
0.138506806738482
0.138217075164652
0.13912656565334
0.139002499539764
0.137208136666725
0.138501398768733
0.139484504600667
0.133678344900146
0.13492312549148
0.134183569973489
0.13772162682058
0.134495220811009
0.138051372154735
0.133185365013038
0.133926823044653
0.12913377872497
0.137395361578871
0.131378309151505
0.1308265040386
0.127363410258154
0.131775280193165
0.129683007351221
0.130271676533218
0.128517833913381
0.126595857018205
0.127044159489401
0.131518119517383
0.125928984856185
0.129740855302467
0.127812642822933
0.128883506432172
0.123589489786569
0.129085542112993
0.124171067991349
0.126714704944138
0.127012802072337
0.125681879571601
0.124160386046536
0.12083481383121
0.125139603985423
0.125467065467761
0.120970328349104
0.125552192662668
0.121743609725004
0.123038367002792
0.119329642655469
0.124881597966328
0.118136647611379
0.122335863920692
0.12137339572036
0.123232841856097
0.11983401033271
0.121996907046357
0.121101221806713
0.122343926601752
0.118757354593615
0.125430440417549
0.120377042467034
0.12019560303236
0.11719771744154
0.119095057684255
0.118688145455114
0.122381890449376
0.114557892618891
0.117639528463155
0.114186231341133
0.12054712641424
0.115166453196618
0.118149957122751
0.11223586716601
0.11786858067017
0.11230399889501
0.117690116869517
0.111931959020859
0.114516966673545
0.112786625555563
0.113708384906021
0.109781214519346
0.112663303425835
0.10824375237606
0.110756927728698
0.108477633860886
0.108975332742143
0.106686697155557
0.111426208886497
0.106681854458767
0.108904881878615
0.104158896266179
0.110010105072636
0.104614673220819
0.10537816935769
0.104909862671876
0.104766944892028
0.100685637180025
0.105344703530397
0.104914680851032
0.105103170283798
0.100345533540492
0.103003947984055
0.0978224709147692
0.105396631621431
0.101005879889259
0.102019082431716
0.0987356219366752
0.100895816161714
0.0955727620503688
0.098926165349605
0.0980197589276985
0.100312484265649
0.0971184372252218
0.0975135800248298
0.09608028405184
0.100836850605077
0.0969286213304299
0.100090921159757
0.0947720299684838
0.0990332204884126
0.0974714925189349
0.0936081869781359
0.0968534614202806
0.0971967811824302
0.0939207455646492
0.0986096533664203
0.0923714093284501
0.0954028869566234
0.0913813778600478
0.0937368855684445
0.0896417863110853
0.0916292782836752
0.0901477263549973
0.0903996072831167
0.0923830770084402
0.0941713358001484
0.0877234404180947
0.0897413059160353
0.0896648073093887
0.0915286999189888
0.0890357758626803
0.0896627990975974
0.0872708175972714
0.0869351629319507
0.0828590364313532
0.0861211999012617
0.083098288067469
0.0872697599376009
0.0828462861461619
0.086016640552302
0.0855682852842969
0.0874726692783938
0.081856323703719
0.0848444583719673
0.0798133211140604
0.0844229388240575
0.0825716865010764
0.0835715929868082
0.0795836266475507
0.0862058937244265
0.0805522884391564
0.0821195211455324
0.0790284275825953
0.0834628705831897
0.081146562194625
0.0804322724946703
0.0783472917465627
0.0826999111844625
0.0782995844566263
0.0828269132693173
0.0784507204581719
0.0809651271672016
0.0782679847050697
0.0814617156227039
0.076646544498538
0.0801315663130971
0.0788746103938473
0.0812050546119945
0.077036445004939
0.0806918518062684
0.0771885029353069
0.0840336835363247
0.0766008046281927
0.0810397178190602
0.0752230002037409
0.0809529405152767
0.0733601848850335
0.079929621637005
0.0730481445415882
0.0757013360126272
0.0689214592570868
0.0731217632306997
0.0655254513122299
0.0745242291872847
0.0691013511550267
0.0763105357324991
0.0663325832109534
0.0719807738561255
0.0592992871915853
0.0694052174007937
0.064191508969791
0.0700008155602174
0.0584998357449201
0.0741968366622201
0.0574689537313573
0.0715582462799099
0.0595985493403877
0.0715095504564453
0.0512087674486173
0.0723520492314044
0.0596223645298926
0.0717052578962812
0.0659680791261149
0.0734035150032206
0.0696758379100302
0.0815362592589406
0.0616139142156731
0.0723570953158723
0.0573574432722839
0.0716895719570725
0.0551869799563255
0.0777457447878702
0.0539726398227935
0.0759991914640266
0.0508953683331535
0.0727385751699411
0.0536458205124774
0.0803368195688135
0.0512562309645568
0.0836342824195688
0.0475299313413633
0.083153830632332
0.0462163585743166
0.0870493897867766
0.0453036084132782
0.084805824085749
0.0434006013622932
0.0899384359295556
0.0448955805139381
0.0907253079494234
0.0405099505410281
0.0955339037161097
0.0499572179527415
0.0961966073227838
0.0478771578301179
0.0883353844588755
0.0578022028536295
0.0805779273660005
0.063584481649828
0.0703175714405902
0.0753704244373408
0.0643431126113974
0.0800953262893882
0.0574955208110111
0.088927701211675
0.0540866278539732
0.0852248233253815
0.0569590641628304
0.0805249783528371
0.0637135375035648
0.0750290267684138
0.0676522129992453
0.0685331716839132
0.0702304060455603
0.0688452644128947
0.073629235586005
0.0686281178315699
0.0692837492660708
0.0693518525139123
0.0633781632049648
0.0709699759596433
0.0662265916948121
0.0708843845670026
0.0669298163566737
0.0675011178630687
0.0654718713078911
0.0689324838320149
0.064734803219296
0.0680116144965617
0.0686679799377846
0.0674652817106934
0.0674591481855414
0.0697411524457275
0.0655676831201338
0.0678047641339528
0.0678227082178266
0.0684673248918968
0.0657165305031618
0.0658157956150151
0.0673884083068406
0.0689000707354301
0.0690848785828153
0.0679881855617966
0.0661666239034722
0.0668421024916614
0.064759981813645
0.0665387464496115
0.0697521073026873
0.0679654249147641
0.0692242743518823
0.0687630154706631
0.0659496268564967
0.066464688316974
0.067796136768895
0.0674360035195076
0.0661224885549724
0.0697702301130847
0.0696894558310116
0.0693240175740643
0.0690618916255176
0.0696002070853786
0.0668488840404977
0.0663596340186708
0.0678413259967206
0.0689399728003559
0.0671029838420571
0.0705553076318161
0.0703492428469213
0.0699713636095715
0.0678651447467662
0.0696738749075537
0.069225466290713
0.0666575271816562
0.0676425855567976
0.0692406286555148
0.0671978800006718
0.0687400696240817
0.0664883211391664
0.0675623355147928
0.0653517385347423
0.0671568077154578
0.0681328331849233
0.0681797748612127
0.0695464123621051
0.0702361073474441
0.067693477954661
0.0662024276994145
0.0696590938938715
0.0714303341385587
0.0688067821822698
0.0667703371248699
0.0679552038183718
0.0666391518487312
0.0696650448571234
0.0681837024508165
0.067225793414109
0.066684673491068
0.0689113476427087
0.0701504078125463
0.0664190330601839
0.0674402329472022
0.0713099347702767
0.0733924568672218
0.0700097199974166
0.0699044025014881
0.0709659123096941
0.0689180376965257
0.067814652996515
0.0716417301926925
0.0700313296138028
0.0694085809777433
0.072159933927093
0.0714467321810491
0.0704516604381921
0.0707324811486686
0.0711314139826443
0.0689710989276104
0.0712289541046447
0.0696001489717839
0.0731822814290362
0.0746413512402901
0.0742430377246157
0.072242068552546
0.0718440500981992
0.0710559629410363
0.0733132668161173
0.070136700722243
0.0703264164910096
0.0707092664050767
0.0734726561424966
0.070842874565232
0.0727069256644218
0.072640960099278
0.0705628561617771
0.0710324404742924
0.0743556756359522
0.0727549637136412
0.0720756441030986
0.0743162086910492
0.0761571156128705
0.0696788142717367
0.0729873365570259
0.0705253307587188
0.0738601376415716
0.0722732556705454
0.0724750832846928
0.072267610135725
0.07436589820727
0.074138704572544
0.0749236982322177
0.0728688133188912
0.0744839743296097
0.0708672042152782
0.0746425868543597
0.0726357359324679
0.0753611712885935
0.0732415528142624
0.0752316224141109
0.0715095113866779
0.0746598326396801
0.0775625680297934
0.073230629067648
0.0754777649910564
0.0753843045441115
0.0759617665390909
0.0769128772986306
0.0755859170933198
0.0748964263782352
0.0734276048318723
0.0761941679652145
0.0744534740448087
0.0768837730272998
0.0763988535891776
0.0749883796200011
0.0774729882244404
0.0776775246413817
0.0760689721907064
0.075885578235025
0.0764852700594365
0.0783727992478243
0.0753088779257953
0.0774104105062339
0.0760810425544329
0.0757325097510063
0.073887598364791
0.0773762283275551
0.0766105064344935
0.0743042536039729
0.0759068257647997
0.0759460014322521
0.0762016822599844
0.0760171336213011
0.0742469402707085
0.0765264181557527
0.0766356157132594
0.0756164690186162
0.0730907090981709
0.0760368397581592
0.0754322259876557
0.0744690475924854
0.0727994857137387
0.0747268521182736
0.0742202034455978
0.0735532589076707
0.0710159406200285
0.0720975140744125
0.0729908486581354
0.0719263604811258
0.0701968564455907
0.0741059637769214
0.0715078534327255
0.0721297785815766
0.0706281953269586
0.0738185071643265
0.0727535538242543
0.074054152292866
0.0693487166688195
0.0716731819734888
0.0706762216319916
0.0744497397030399
0.0707828447319292
0.0728753225378328
0.0719139690212403
0.0724221936290414
0.0703184260753615
0.07393135266186
0.0717065045757393
0.0717250119198012
0.0720945620637212
0.0718158697901324
0.0692259973003117
0.0724539230416332
0.0718783290866467
0.0710988726669267
0.0719245631822852
0.0712314380670576
0.0691062067682202
0.0715836275012978
0.0693974574451053
0.0722489864744935
0.0725676022152165
0.0724828805273765
0.0697063948379456
0.0736385834895725
0.0706239730695338
0.0714443246524348
0.0719723144827549
0.0722004249107235
0.0699304791450229
0.0705886924561138
0.0702559893243042
0.0728452979267202
0.0685829889899221
0.0695782706097444
0.0687601589030211
0.0702660011916008
0.0679783639702217
0.0702641019537644
0.067398632265445
0.0701194317154776
0.0677930332303792
0.069731932427935
0.0704591023344531
0.0700960996762378
0.0689741815192839
0.0711795000705825
0.0698359192635067
0.0688657622646719
0.0709563150424796
0.0722268674348748
0.0722650509441552
0.0713611143697109
0.0692045664578699
0.071136918898094
0.0682666667753399
0.0710098156994401
0.0682143554459164
0.0676865853575097
0.0686329779738196
0.0718573199431489
0.0688754394599942
0.069675501453229
0.0682719083508142
0.0704623764152294
0.0671579536920083
0.069250597297253
0.0687338268498927
0.0674860639992207
0.0672726670367028
0.0677219316662294
0.0660170293539975
0.0687406525789907
0.0666774590124763
0.0725818034492978
0.0692367378477167
0.0706100347825415
0.068341322721084
0.0687504794990868
0.0669660275262687
0.066330284345184
0.0670428365221848
0.0677240249646014
0.0672358360054636
0.0690180613058865
0.0666462892079463
0.0669439882672795
0.0653701894921848
0.0684294246492289
0.0648367292151756
0.0668630872399643
0.0662069535554909
0.0671266152698043
0.0656283349352716
0.0632145203921188
0.0639735514194756
0.0646820254526458
0.0656341918049063
0.065741635257057
0.0656151366425033
0.0638852918490518
0.0674528181289572
0.0637491435159072
0.0688902269834182
0.0635870924095454
0.0626025780355242
0.0630291134921315
0.0630752571772746
0.06376782455733
0.0620074336486007
0.0597790609778677
0.0611698681737955
0.0627195020460601
0.0635840129832908
0.062709751570496
0.0619995835215921
0.0604054905332875
0.0594101801138212
0.0600906941278297
0.0592652016966214
0.0590465040910116
0.0592623301115376
0.0626412106913104
0.0589915666269594
0.0601128074952404
0.0611247123225635
0.0600774208759033
0.060053409237733
0.0551874242314081
0.0633945922663525
0.0715290155620034
0.057660477586906
0.0633978217476443
0.0615502009292379
0.0638767002352303
0.0549451787937797
0.0630728540086877
0.0587976011259401
0.0608093248678444
0.0597462346475798
0.0635808162100532
0.0566692632801065
0.0584258403540566
0.0583248216298312
0.0606142774292631
0.0560210685687687
0.0611124173535713
0.0580169690693177
0.060098537247641
0.0550969149448408
0.060783656730173
0.0587430855212708
0.0592350314929142
0.0567802884259234
0.0586686532336891
0.0534727409037793
0.0680148500541529
0.0615305915077621
0.0611122414947878
0.055336132945981
0.0584945636918095
0.0565467706801489
0.0584514082443618
0.0567271742391869
0.0557067322563648
0.054049394146447
0.0577435917888195
0.0529810035778976
0.0560951868061757
0.0567702670689881
0.0581472365860947
0.0545715394735008
0.0566988479213934
0.0543221336667465
0.0578871341613015
0.0540420408818049
0.0569563340179548
0.0532792322975094
0.0590588267641523
0.0543479503587843
0.0592690807813076
0.0533512056804149
0.0576207394995626
0.0764582158194425
0.0563508231139428
0.0577701697458695
0.0541057062630912
0.0554278366602445
0.0537982500884693
0.0568834463013391
0.0538508713268977
0.0575097248371883
0.0541726164185271
0.0540385267592446
0.0523468528123712
0.0554203729902452
0.0544337978372316
0.0561706336664315
0.0536196315691828
0.0542633714247229
0.0524456976060017
0.0575418088324295
0.0535740783957368
0.0589998472613828
0.066846084345265
0.0595912871867325
0.0577638296875663
0.0587815295352956
0.0432450017332599
0.0795015663012927
0.0584369968220172
0.0540333954819155
0.0563665086304573
0.054970590182246
0.0543617236237861
0.0547182897396781
0.0542918968246881
0.0520376036711885
0.0630430951211707
0.0539994294905335
0.0629575541654347
0.0524258282028821
0.0561284745165252
0.0534590351384137
0.0555411829785157
0.0513797975366026
0.0564815079643799
0.0528634845670913
0.0522868554835915
0.0522610853434879
0.0516550380821701
0.0542681163286628
0.0521396277392912
0.0562621273291386
0.0629243852642621
0.0530679215576651
0.0556221498366261
0.0550599764215856
0.0531553040241488
0.0564950205437309
0.0789878765235549
0.045272883178353
0.0614447089294509
0.049605243797732
0.0582774779840448
0.0506719488735777
0.0547459352883746
0.0522034674628626
0.0550041463447483
0.0509543339436419
0.0572702772685632
0.0530400621808678
0.0546015241643631
0.0508561432482113
0.0555110436896043
0.0506890015567312
0.0539417216678315
0.0546693907883993
0.0513898968323574
0.0559285993209147
0.0496853046313144
0.0692282694855333
0.0780526884258517
0.0642635487661145
0.0675455019238582
0.0573493811406756
0.0558492799927952
0.0507332604690554
0.0574072617698873
0.0491938791539506
0.059565237847349
0.0526404331434826
0.0584860355656557
0.0520523792060593
0.0591380608770292
0.0503547583788061
0.0578136751550409
0.049638498557173
0.0603260132455672
0.0473084808328782
0.0587840036608307
0.0487834308232046
0.0593187453129914
0.0430431763180071
0.065990552142497
0.0513812018380405
0.0652828819669379
0.0364945337777419
0.0905353729543942
0.0758262371010564
0.0560194674341612
0.0651736483680444
0.0508564204519332
0.0569199110313714
0.0513466000057212
0.0548169999294683
0.0626611002100145
0.0557330027363913
0.0539083302743676
0.0567001899285747
0.0566067333269782
0.0592770911564012
0.0510325062320843
0.0612666950409956
0.0915547344987022
0.060090252528387
0.0644133546459467
0.0510970117539186
0.058691578792723
0.0903531236096005
0.0548391763756508
0.0621681148501987
0.0594167908071108
0.0550514250341521
0.0561641869162704
0.0535202411091337
0.0549108859384491
0.0629390088261473
0.0613725213909918
0.0548227482738254
0.0611975318043267
0.0517948486844741
0.0640014684821686
0.0541677936858392
0.0678390765458945
0.0714603063107688
0.0558457276710082
0.0627986373536852
0.0591929488407074
0.0545774829042562
0.0605972987360617
0.0572771866555487
0.0580271252383853
0.0626740162307495
0.0760916239595639
0.0575636661645296
0.0762081667488657
0.0725927305000051
0.0553591678697995
0.0658049066156089
0.0650955552540563
0.0719262575526914
0.050910061363484
0.0665721634629102
0.0982242634187681
0.0637869888084493
0.093397480153058
0.0536040733453248
0.0713147074087195
0.0517754376121532
0.0697659011882173
0.0443069475274545
0.0871836238077438
0.0544598827687634
0.0689671070163569
0.0516603319445048
0.0752670700306402
0.0729255953356539
0.069534524623572
0.0662213411868727
0.0665449540031684
0.0586268636797915
0.0811197085141579
0.0727443333755811
0.0536064714505604
0.101786160325867
0.0887705396377547
0.0873194600459967
0.0738856026874286
0.0544437951654849
0.114645135371777
0.0647981796999739
0.074448606463963
0.0611173642133962
0.072727371916154
0.0611259636028438
0.0691419263060342
0.105697405135135
0.0758592705073098
0.0642651164378196
0.0796680601455576
0.0574842782904665
0.10539829174807
0.0780924690191566
0.0767694382404337
0.0648280374139898
0.0817650051103645
0.0518443180454109
0.12645034026547
0.0862395747131857
0.081088190041375
0.106555928319272
0.0867290190418353
0.0936429298659722
0.0825926252145751
0.0807109488684119
0.088695531456481
0.0995158921273637
0.0845351100057196
0.0707853010199131
0.093857839536431
0.115980947794459
0.0732152986555686
0.0964622556718767
0.077389341008471
0.0770505609993693
0.11395148236357
0.151860433672817
0.120133698303826
0.098107744871049
0.0890044025307389
0.124881136022752
0.0940955588076684
0.0959606058460904
0.0944266920193372
0.0938619044322511
0.0952114069445057
0.0914213380901444
0.112099399599731
0.0969496439607792
0.10307219854299
0.101517094867178
0.0956137032307785
0.124249024233901
0.150882210149523
0.153019449509185
0.106295185802921
0.158658890320216
0.127773694485889
0.123620318645552
0.111252726762136
0.109969217925745
0.124685457156744
0.116016726850441
0.117414135172264
0.113204329483942
0.14559059954624
0.130554385380285
0.131352208503976
0.157071956308279
0.124604739941231
0.139173132563908
0.100295135432601
0.369627891355584
0.148597792571323
0.163938977510547
0.13866714764414
0.15046822898418
0.237009383057278
0.159590478478604
0.145578508078974
0.14999419546116
0.146621167137722
0.156751298444884
0.163528878381459
0.17073324254406
0.182452420353346
0.172735059543794
0.157741658050871
0.194145628497665
0.266057705563778
0.246746247652349
0.217378230398017
0.191525825946269
0.215804086644318
0.219664895135338
0.198661067822648
0.210755668377654
0.204517814972213
0.213974430952069
0.290319694281046
0.223943330170389
0.237380517633471
0.223475772185204
0.283008683580036
0.218821366259601
0.307721504965452
0.28228299378819
0.26461206261586
0.257856096435071
0.260766220928589
0.269759572850875
0.25740067663236
0.314763192301285
0.295400789911162
0.282246214288419
0.289141520814581
0.28213124487029
0.294165202063773
0.293524751440565
0.302491801959643
0.293837033053599
0.346585455641452
0.33086501783821
0.525762930563511
0.351638593822017
0.315110079260574
0.318137401755894
0.304334329308794
0.358374520095777
0.330598139098795
0.364857050569268
0.36082965787326
0.316454666294792
0.326076698300034
0.317266952762626
0.330144790052604
0.315182392574106
0.334365032422219
0.305051904456227
0.361026562850883
0.327567447712508
0.349587965089695
0.419876714649106
0.341612934509028
0.332167453952892
0.334997718071182
0.328734207782437
0.33012408055759
0.329919616830377
0.328736635260628
0.36594818321528
0.324213188632622
0.336616848267006
0.311422714381562
0.355761583167147
0.359915882512002
0.3156327037663
0.333907335715982
0.31768787272624
0.330285603598173
0.304562056721191
0.32546374309662
0.392515327543889
0.319806935742106
0.323501540570141
0.316161445767499
0.320946944684888
0.323850468252298
0.311218222804678
0.322298518909116
0.326712933868006
0.319120981045707
0.33270143470946
0.312420184058684
0.321560071381936
0.314969464121724
0.325768844351191
0.317495220653801
0.324612136456164
0.326124807644009
0.319421873372342
0.320827724070312
0.320232195279032
0.323819291158874
0.3216434903635
0.325298384772782
0.323162930751765
0.317052027933173
0.322906584477045
0.326382714630706
0.323368825554627
0.321372484425653
0.317990602024092
0.314636295168288
0.317156928922335
0.315443903424852
0.317180041145795
0.320699655254972
0.314088309532482
0.317341318757258
0.312405416508763
0.310376565825846
0.30806967954569
0.31204241718832
0.28992079879438
0.359763733598514
0.331295446780851
0.296883722700832
0.300447891840835
0.290160154225542
0.297910287702655
0.272675251540025
0.330163452383886
0.322574558793242
0.283228486911245
0.277645050320788
0.265847761139461
0.274200434851555
0.282209447990329
0.259871745261047
0.272866524470823
0.238443826680906
0.30559718397996
0.343132476417185
0.324446290395507
0.352233498373017
0.271793944798834
0.238268368747253
0.24853827113072
0.29737152625444
0.227265717761234
0.236911783408797
0.218762146057613
0.269749802872575
0.239731533884619
0.2181455222357
0.221808967456644
0.211170435569666
0.236970390854519
0.250539938975075
0.220345601761465
0.23738857374608
0.259960096305761
0.223335073507713
0.265177738472311
0.29934699789719
0.245294930635196
0.203828018703297
0.203881249678781
0.19946414273917
0.204920995321875
0.265895706647202
0.207172797847542
0.212470899910774
0.190151482825207
0.184987087178232
0.198473213282697
0.211383892364873
0.205319169214427
0.186704705577975
0.235647377730638
0.183835016497586
0.204594842197919
0.203580753168674
0.225359106370641
0.241153944290288
0.197153282536032
0.169632928979881
0.208467285906294
0.23458068878595
0.192372639556185
0.201485241337518
0.175509048736312
0.176416350385404
0.206769204003085
0.178842460474635
0.194925811524292
0.198248183527096
0.20500407331241
0.246612453826971
0.242811879755047
0.241911225661025
0.195583077057629
0.175010736307834
0.181006492309911
0.183960320495925
0.189032495375481
0.170095202274573
0.202905195572422
0.200050318229927
0.178405504293616
0.240898886090631
0.198436020577295
0.195469747663419
0.194599852721112
0.18974824164571
0.204140742044588
0.23889275144463
0.249792399145245
0.219273747615379
0.212307458160308
0.238558879044029
0.212954819448952
0.22358187602252
0.220517103436585
0.226043230277256
0.224973756971882
0.248001861088523
0.23830389523026
0.236593177212175
0.243914658428771
0.242578016256838
0.272681635026345
0.29777446851562
0.254902041941716
0.303760193805139
0.296053930931799
0.336962293566995
0.30353776134538
0.290474500725579
0.29827030769077
0.299672339814711
0.306399958850627
0.303271383108008
0.320017687958346
0.360269145781979
0.317771541098222
0.330263681762567
0.325198621642764
0.334087647559927
0.329942230777096
0.370603700738636
0.36158561070241
0.399913916188468
0.405878719601838
0.369271785272003
0.359747327398985
0.349925103443337
0.364253102314062
0.36191223733004
0.356375208668446
0.35771893790342
0.359415688466246
0.396029226687531
0.369990163964451
0.368641848004844
0.369912455126152
0.370925242373283
0.376113563663207
0.369265261817824
0.375901322867227
0.379802382441824
0.384355793682817
0.383853105466215
0.385417813791674
0.474145412197665
0.418419879609935
0.398430744855583
0.407995318895326
0.414846188242636
0.410408449984513
0.406945917915227
0.435900062714415
0.434394371719524
0.422675223522112
0.428097923987094
0.429456832957233
0.433245294386689
0.45349962126267
0.473640143249598
0.433234201071323
0.453950857585362
0.438348062707061
0.468187541208334
0.520561771381436
0.465187504237832
0.474231300808324
0.471060418805271
0.46200043395803
0.45752590268391
0.462975644565119
0.461298280701766
0.470426724942951
0.468925710644855
0.465759102515169
0.464538288245052
0.460922471210098
0.459676641588629
0.458364593242759
0.489841654735163
0.470141210740858
0.461577355034554
0.46033174099652
0.458313714730917
0.455111921665337
0.483077322388795
0.481924014700038
0.466968435909286
0.466729910833665
0.462141440533836
0.485383996181215
0.479284204524072
0.451884492034333
0.455352420997831
0.455386781617266
0.46033482512555
0.460063048976958
0.467514527518739
0.492212556597942
0.477195294285932
0.474460753256163
0.470385755349136
0.473914876571171
0.474987189745826
0.480318058733119
0.479660896682698
0.487126975190866
0.490563870394801
0.491905541039365
0.491302080210933
0.493290708989309
0.509435696102067
0.512710803037762
0.507416061593502
0.495734527024449
0.492539705948158
0.487198438372727
0.491117314750283
0.49747025391951
0.480267263273676
0.470749888694778
0.477972879789137
0.477481082265032
0.473661686200184
0.502885695431126
0.474874626916807
0.470050917277632
0.469182946744242
0.453655030056706
0.453787843542435
0.445146498583523
0.444512231894607
0.446821739171101
0.446280102527035
0.435471989857834
0.437238201800027
0.431655926599238
0.430815706381829
0.429789704613596
0.43280687924407
0.430099898524276
0.428317608314201
0.424477745310139
0.420844208629591
0.42357084897803
0.42439117138927
0.420222888861146
0.41990178244897
0.439384944034934
0.443387076530793
0.442767714109132
0.430478329302477
0.432774897790671
0.434065983245117
0.417353240432187
0.42518989732545
0.424333097634382
0.422891216221886
0.422174868709387
0.418106638872081
0.418326475375948
0.421653701843643
0.421696951980665
0.425045773383063
0.418734607063782
0.416555381601645
0.418695501020359
0.42083072235744
0.416168727702755
0.417625473690694
0.422612815563173
0.430051530947411
0.421363885724661
0.425803719953142
0.420856738188997
0.415840995564338
0.418329378924981
0.420966199576322
0.424965895683504
0.417249724820954
0.417477002274301
0.421398688405087
0.414489439622767
0.420703125058528
0.421325162189411
0.41236681458537
0.412112434601082
0.413106192851206
0.412022597620715
0.409198944379182
0.405744407139632
0.403447039545418
0.397883667999752
0.396790081676662
0.39130717855884
0.393967498352841
0.388847435156464
0.381999761753511
0.380625438038253
0.375663802595473
0.36943111810466
0.369001464753819
0.366421554332736
0.364023397970885
0.364841345454071
0.364250104123759
0.361537605596828
0.362385166720334
0.357893318433044
0.356303490575504
0.354065057685458
0.35593907262296
0.355202982463252
0.354625340957923
0.356141836150949
0.354042581003512
0.354664575129554
0.358584698674172
0.355892953089884
0.35741193014252
0.360347279773346
0.363537861850528
0.362751500936287
0.365767659340029
0.365123746991455
0.368389118001006
0.370696757768711
0.371395428579003
0.371912532423045
0.374973233391099
0.377056853188693
0.37405596667108
0.374767419621409
0.37903097294329
0.380711443441131
0.381489434644327
0.378439918735508
0.37716065915686
0.378431310527003
0.378527733974543
0.379374053489525
0.376575177960634
0.377207145413887
0.376916301175248
0.372491440022247
0.373752455936676
0.371268571069196
0.374766973986426
0.374750828904384
0.370026225085173
0.368011046538282
0.364703690895448
0.365646582966181
0.368438583034626
0.362581493258725
0.361107832586687
0.360155538736247
0.358549568942964
0.358318503270966
0.356961616876259
0.355421021543458
0.354697103022269
0.353000361485719
0.350711415807199
0.348539890862052
0.348922609233305
0.347697233481938
0.345776693474293
0.345244435569033
0.344527669402794
0.342946588250634
0.344660312177152
0.346183355674526
0.341495748502164
0.337757533038137
0.340803387026254
0.337490594531798
0.335700508572375
0.337484328075593
0.334995573481539
0.332951683289574
0.330194692056969
0.329340944201155
0.324326382169064
0.321251244367416
0.321786965044544
0.320284232687055
0.314905583539693
0.311406419160695
0.311871814815753
0.310077292353242
0.307951054523853
0.305439228889431
0.305102978804917
0.304290762408618
0.303098183691215
0.301264270240743
0.301838908762812
0.301717544944119
0.301315767046642
0.299817528736771
0.297704279126128
0.295777579203522
0.294016340534438
0.293505932137444
0.288636704501797
0.286648914112262
0.282965287361387
0.275757712894243
0.273741032117718
0.271247384883147
0.268511504042199
0.264449708523393
0.263445537490685
0.263221528903904
0.262923145685643
0.265024694441858
0.268167918555305
0.271486667673572
0.280255452248211
0.284843885831393
0.292369700551384
0.30009988993237
0.312137660663586
0.324053895389824
0.334307235727214
0.344788116342978
0.359795787298998
0.373895122389721
0.38725654187583
0.396953977070105
0.413149498310372
0.425538824805916
0.437280659680775
0.452269418121405
0.462599331056518
0.47567190779896
0.492143999332938
0.500458086312186
0.513557003899566
0.525083189797509
0.531594956172935
0.544824079458572
0.550068900834889
0.555927284867266
0.572042086428116
0.581446539112158
0.586383281152137
0.590287255143803
0.593267429576422
0.598439330641494
0.602825749214974
0.608419883178703
0.610256727136285
0.607878917880994
0.612525462440567
0.617301050090212
0.614622293879706
0.609535623760498
0.619124715166281
0.620828346666342
0.618858174631576
0.616323704830512
0.620438953187361
0.627884437523942
0.626886871621428
0.625240301186306
0.63306482016892
0.63588642167981
0.639920106915706
0.645645142571057
0.654246068812602
0.65980262128138
0.658277002263228
0.664546483692713
0.674315147912616
0.678870738490817
0.687689880662814
0.701879534034542
0.714781364271198
0.721255004618708
0.728671905174336
0.743480884006656
0.747782390011734
0.75926105088796
0.773224601599531
0.77476165683366
0.781988037137394
0.791703517204818
0.793351905141092
0.794306161339339
0.798506229241739
0.798155135042539
0.794228715502092
0.794961772544886
0.789681035913601
0.788230810395297
0.781100565316525
0.767857916861118
0.77323571578462
0.774272443371587
0.778234584536532
0.78822346479064
0.791979741002104
0.799640684225468
0.80498014902997
0.82464127233078
0.838664441525858
0.845214157755259
0.860226112738851
0.865382990967708
0.881051882725626
0.898960043240096
0.90915928169555
0.919881427303415
0.940121177960275
0.949584186079808
0.968889775631907
0.988516304981026
0.979835656149661
0.995464213685925
1.02580011582375
1.03603037941941
1.05280756149214
1.07414640614448
1.09106493687273
1.10375993202884
1.13152295264472
1.17434334352787
1.20120311390705
1.19550005501604
1.19404925823744
1.23539451882473
1.25488877122381
1.27238569559998
1.29664377491319
1.29579886130115
1.33537385543216
1.3358810763474
1.31671680833044
1.32512625119124
1.35143759262542
1.35193767996262
1.35789444956807
1.37026641944815
1.37787983339285
1.3353691177498
1.36185583240597
1.35649070605902
1.3169435643986
1.35245755365731
1.36074475037302
1.35401933697991
1.34572226371904
1.35492690081067
1.36113850099853
1.35842198809284
1.3540140423951
1.43534453357962
1.43193759162525
1.38609385864865
1.40500021798853
1.41253833092922
1.42966777029619
1.43565852252942
1.48826359884003
1.49936331990082
1.48180758644617
1.54135710883544
1.55041350338818
1.58132167363855
1.59498202607361
1.55273336784658
1.57788761137621
1.57061976327966
1.64579457073712
1.65661657769304
1.56162026826747
1.57106635198678
1.68192691271833
1.65892068454105
1.64357028172041
1.66661144596291
1.66156741612656
1.79364622580641
1.68915288000859
1.65497780960961
1.89137240152538
1.8357497251226
1.80494659344329
1.85511818158245
1.80941039588896
1.81146199689537
1.75882269166458
1.76319518792508
1.81784812677787
1.79482038831119
1.70423594124533
1.62011538686144
1.71472185701803
1.68411077221871
1.64543898251749
1.69195159887618
1.5852457292601
1.49941084951716
1.51255431467916
1.45997675556602
1.38585084950295
1.34910889267347
1.26430711281549
1.22543132736162
1.20607215652898
1.20268677689167
1.20877158278841
1.15249910545482
1.14776049737348
1.15848915621292
1.12456319321158
1.12992192809421
1.11665183894382
1.1053285869892
1.09709578793205
1.077465600865
1.05624331204159
1.03367129852855
1.03831107093928
1.00473620998953
0.986346581972258
0.967713469616405
0.95494868218089
0.925597005434007
0.892103353819996
0.871658702679597
0.842800108792731
0.817551765892103
0.783300197068548
0.751097330194935
0.717953736882611
0.68281922027312
0.653443251572161
0.618131281780798
0.588019256629001
0.559104568081039
0.524319916887956
0.503820389234698
0.483977062526523
0.466378804387571
0.448973879494819
0.428067663077622
0.417814984381837
0.399334870102511
0.387085404012211
0.377462205468897
0.367892075267278
0.359122104972116
0.351651391368803
0.339798892271992
0.338520382174964
0.333463456373901
0.331153024476687
0.330845185335954
0.329009094169365
0.328237242961524
0.33143503531282
0.331162617992352
0.329434995829135
0.335776001733473
0.33984674211292
0.336161244937022
0.335540160438891
0.34120976002879
0.346058769401888
0.342686683203248
0.340657289187459
0.339105003651356
0.339456915577527
0.334984696504364
0.333844084944043
0.332350349817177
0.323948085427343
0.325634242709708
0.324340125500681
0.31791681763925
0.31165498839027
0.313810555550235
0.313285768922973
0.310469495825549
0.312883388680893
0.31218054456879
0.316491972360516
0.315072929781531
0.320356099037796
0.322128731253482
0.321988348019811
0.328524168435637
0.3399621869379
0.338682780241801
0.329797569249473
0.337558750941278
0.344374039569459
0.344984709767665
0.345983065733774
0.346836893443324
0.348622876734879
0.349464152757286
0.351505068751107
0.338717643073063
0.351558574180029
0.351921380189582
0.347868794318059
0.34935507141238
0.35332044319302
0.359747348095054
0.363692753214642
0.363374889068623
0.367141995273923
0.376945895474972
0.384424363492175
0.393489774211806
0.402044504153002
0.403195828577229
0.413257492987357
0.423621898829116
0.437056115316544
0.456547769001187
0.465255901630015
0.476781659204214
0.481200773689998
0.484120304013258
0.488781566616895
0.480345087589021
0.474962545687302
0.475503291194906
0.4758163663249
0.465314884892399
0.448904940524329
0.441196679928244
0.440925516483864
0.429105063749676
0.429358640538785
0.429661742564988
0.433518145324684
0.422288715723107
0.433449373120234
0.434188992973234
0.436959440743777
0.428056278707519
0.43178755013019
0.428498403705809
0.424835557860954
0.428471380883517
0.421436212353352
0.413255968940923
0.409404205129731
0.408737721076022
0.407763844495233
0.405047172967888
0.4008526962004
0.384617397531416
0.39051659924809
0.380306747389546
0.380223996190634
0.3740120220147
0.364767742440631
0.374509360567204
0.379869012531245
0.372255717217354
0.362613925403486
0.364255594697214
0.363483977028407
0.35386234004469
0.353643194482539
0.357973371047059
0.353700517640447
0.359448193272698
0.349543167045438
0.346737859676294
0.348811340424973
0.341068281310825
0.336130524343605
0.330852382513818
0.338157715911451
0.333419824700099
0.334529093280506
0.336284550729568
0.329991751374258
0.323756053967887
0.325236261379548
0.324793969991747
0.324249734760762
0.312154406760192
0.331313828449688
0.321915948282544
0.304719255375853
0.31129901236532
0.309989266143832
0.309996609961576
0.309178135312857
0.325443512491798
0.328687437284133
0.299060435158393
0.315601869314525
0.329032248020987
0.313731361784392
0.31402627565314
0.33049234687163
0.30994400528077
0.313312257156006
0.330247867475731
0.326626567462421
0.326523621731739
0.329710820258226
0.331156590712015
0.334584281849159
0.329124535842186
0.336143679738579
0.348770452079224
0.356039236642171
0.358332195873865
0.353405841102513
0.361856009339245
0.358484544926694
0.361557652969265
0.36807282554771
0.372726631218166
0.38371825662135
0.392788095582935
0.388719813529104
0.386351240739931
0.402529615234381
0.410848201489531
0.421789506108
0.448584277540936
0.465261022422202
0.453085109584014
0.463757123719481
0.487310087474457
0.490536210453261
0.505374004091972
0.519438170995881
0.528744709227367
0.582456374647441
0.567928987424556
0.564042512101489
0.579642166631959
0.565629196809649
0.56826863158476
0.599792489671631
0.585298087490845
0.585021656297957
0.553308850328598
0.588184696111984
0.585474617934073
0.564498314612406
0.557081067712472
0.572948882690901
0.542385111368347
0.556938384490117
0.619570049615896
0.583022931296064
0.554348714681353
0.580133972645688
0.562631833850896
0.576284808304272
0.565536846493474
0.548695904526495
0.523973303701166
0.540737412662534
0.554782903093802
0.549211534732521
0.52313009039671
0.510897680093812
0.546289610434123
0.533626089086046
0.502815142891946
0.517137699769339
0.501316122559036
0.504547431757154
0.494123128219316
0.513059362651359
0.5006106724403
0.512546869766594
0.511207800660093
0.512945515322306
0.492057492834851
0.519502886503224
0.520962428959282
0.509512704645965
0.506998959319002
0.538205957122759
0.491566028731448
0.525858537617024
0.526949159455051
0.519025797299348
0.534282885678334
0.536404753332959
0.52277256895623
0.540714199007974
0.555742089504093
0.527695782808847
0.509572585098028
0.539144556464609
0.524890896913641
0.515567450753993
0.520506316894987
0.580272343114541
0.553757075647053
0.576886236983496
0.540355139538119
0.531399309978929
0.505000087090838
0.554618661948176
0.547720068227004
0.559463994720736
0.602801602236626
0.61645898261154
0.609114862223281
0.577036189402908
0.59445966768083
0.65611682058917
0.631684301519219
0.711275327990013
0.646955432662854
0.638512121987953
0.611296931582576
0.74321936718567
0.59671228130521
0.736044579334067
0.791513766784583
0.77825375322788
0.718747476786232
0.793288048875415
0.70416575353895
0.662112350039674
0.713674400611898
0.793564507068225
0.774683610061105
0.794739225354354
0.655718426610697
0.834150217103852
0.823318657271233
0.774387684320061
0.71037975777784
0.703199466287242
0.791589284888288
0.827288204583935
0.735298271951293
0.928456373100812
0.776179121585269
0.809110103021252
0.64903770276578
0.591553570350004
0.661039744995906
0.752341508654437
0.593587114600609
0.881982914220373
0.799032775965202
0.724023009073126
0.651671152544238
0.714542282617367
0.791442645728209
0.652121934124921
0.65240212633819
0.9714725568597
0.57367055254414
0.686015294924571
0.802292517270121
1.41598472490212
0.770581077225293
0.740896341798631
0.375162230460332
0.550533055912342
0.733080819670025
0.82949369044503
0.86829748324676
0.912611757667371
0.930813550146338
1.35719881144695
1.85416088760946
1.06240581139531
0.963302703504625
5
0.54493350740754
0.717358866957099
0.654717487542917
1.27855057383834
0.862260485799761
0.724826504322262
0.686525223119565
0.560797041910257
