3596
4000.36533379555
650.420452594757
1
2
2
0.0609575119086951
0.0501308379554383
0.0599748897279789
0.0455424706118897
0.0699123206979313
0.0440529408677582
0.0630240342750978
0.0446823198355614
0.0628008931417961
0.0490909853193246
0.0617979957199665
0.0451612840870506
0.0635224195340329
0.0388454111023551
0.0643083977806105
0.0472240342227615
0.0603136351698555
0.0473376713109847
0.0525513140512782
0.0475541593091795
0.0538682322754302
0.0447150299422851
0.0561604004663024
0.0501642195507511
0.0609685858549459
0.0482390003856102
0.0582903582797948
0.0499562235008127
0.0528758002321091
0.0472549536331058
0.0555916213067481
0.047103266579392
0.0678393131333433
0.0422107517908763
0.0634530674525735
0.0460504844820993
0.0612568699960416
0.044860734509761
0.055661617011884
0.0537396253251959
0.0604601404124038
0.0478226433613343
0.0659326752516952
0.0480168961484523
0.0603468130400638
0.0479786288982162
0.0662893581995374
0.0537138688368849
0.0577518889268746
0.0484768092635116
0.0639279512560706
0.0438621345217572
0.0616481106136274
0.0512469122325794
0.0627277462570238
0.0637259041862903
0.0749432712196717
0.0462875667899008
0.0626222775558399
0.0451728269490098
0.0754686577825418
0.0644441997801085
0.0618568576016674
0.0433665215277185
0.0588860207542249
0.052886535985992
0.0605953369046451
0.045339014974996
0.0538151886438543
0.0512730658192984
0.0578864073059064
0.0528327715599559
0.0774166327512168
0.0543774964124895
0.0689986967859018
0.0454143639827999
0.0536865093992682
0.0458609089100352
0.0506696834987047
0.0493343533846591
0.0744855624053578
0.0467382235705158
0.055154287082626
0.0371749308832725
0.0696884210301568
0.0595454427749586
0.0512606050089668
0.046721542106008
0.0833632831167045
0.0589133501600149
0.0579368958051842
0.0467788555669301
0.0568983461230446
0.0368518810314723
0.0563796362070226
0.0364232603897726
0.0499072345842302
0.0452676341507437
0.0510075222372203
0.0464699982845945
0.0737025059066499
0.0457194250500757
0.117150984157995
0.0328762061993435
0.112751763792626
0.067114214318543
0.0528314232224728
0.0921429509425561
0.0791959158721231
0.052592635318895
0.0556412655820848
0.0445672281502849
0.0648155958600932
0.0558780641779035
0.0555851913997331
0.0663260713492381
0.0904167589823841
0.0553647448036593
0.0598552950387738
0.0421751143322763
0.0431669511074905
0.0608323840106357
0.123438309090465
0.0474972779264035
0.0855143141574766
0.0492209533198827
0.0511612381605865
0.0639657053814594
0.0998123737544727
0.0531795650414098
0.0562538889695919
0.0378161760100218
0.0525315825770317
0.0352377110465531
0.107517947217175
0.0586002663304988
0.0612591292979139
0.0286820759051308
0.073472396911687
0.101081826206204
0.0733707900067421
0.0501602008910131
0.0439605435769588
0.0525139733979058
0.110788794274175
0.055011242734515
0.0499296268226509
0.0598926733591643
0.0702997977624339
0.0418816182557455
0.056170666983774
0.0324183245814771
0.0775558576641116
0.0508188546453552
0.0270884153872039
0.0726870987162261
0.152500571297348
0.0514957105606388
0.142003431424032
0.0515894986701587
0.0758784322433696
0.0449444403855586
0.058355451531793
0.038398065275333
0.0620797940794013
0.0346318654743651
0.0684256022594113
0.0754876839032775
0.0565685418434417
0.0494395726541213
0.0834594841082091
0.0582636536361469
0.0422117002212405
0.114025467642682
0.0795646041376771
0.0322470878519114
0.0960926486511448
0.0698301776865818
0.0458523587260552
0.04896872763571
0.0892909856712282
0.0441024679649087
0.0686616310831914
0.033559405437178
0.0675030872884718
0.0665929961899422
0.0707018955167749
0.0457858990054032
0.0687806679870467
0.0307456636855426
0.0807641282335004
0.0887458284738753
0.104176547153888
0.0388660835627017
0.070571931369528
0.0145253401531252
0.0932741605318164
0.0870776528484944
0.063674961875534
0.0390659177912024
0.0533711363901398
0.0371707805616044
0.0523779900013604
0.0396378402569791
0.0504544104785029
0.0159919337977031
0.111527687277309
0.0679213601751383
0.0568026046311942
0.0332458964257271
0.0624270496448907
0.0286736382566736
0.115130462457145
0.0895573266186134
0.0572850805202438
0.0547817710813987
0.0457441383583587
0.0628292668553645
0.0827420540929875
0.0469001845038021
0.0547886381412954
0.0425183276210358
0.0531921436371673
0.0415987570665939
0.0539958973708013
0.0413254880377974
0.0561609267732497
0.0431765162880539
0.0571114173830153
0.0362667386681933
0.062345216982922
0.0417497557984173
0.050060960029329
0.0475179926510005
0.0465759404444863
0.0469113013835945
0.0891138378880597
0.0458996354939192
0.0572631603483504
0.0358370716344443
0.0537961007516444
0.0388982463419855
0.0505301433973955
0.0449488750843115
0.0551517120157642
0.0244310532904853
0.103879513959149
0.0539227946934509
0.0557397254894146
0.0349619407208343
0.0762684739126987
0.0659190939689125
0.0519367256112579
0.0445722432396426
0.0521222407392897
0.0389542928744701
0.0486700221955809
0.0803104982523202
0.0621783098615334
0.038395855402705
0.0682819146744537
0.0587967101680163
0.050352196855296
0.0462302274727941
0.0317830040099851
0.126176377817096
0.0740178223868843
0.0303684247813024
0.147349098394844
0.0735339626222534
0.0735431600655936
0.0522773767725343
0.00557412043267862
0.146889847286189
0.129083228587393
0.052024241090181
0.0607224674648536
0.0655983567174605
0.0574034661266126
0.052894519765839
0.0653356227968269
0.0492577952349755
0.0999296403519253
0.0719777115898184
0.135227779732871
0.0331948782060908
0.0756525011405184
0.0840107807949822
0.060743813788047
0.0491057107905252
0.0530877816644705
0.0452413331183644
0.0811691911672078
0.0742557371098257
0.0718585841630729
0.0541917937212087
0.0514388893070145
0.0756275831378964
0.066563075495886
0.0515753097250237
0.0641650694532029
0.0641839460915851
0.0508825070353127
0.0519900807381643
0.0490052830318347
0.0518855351837903
0.0515314329661076
0.025881644146513
0.110943753100941
0.0734916031268811
0.050409464832188
0.083478496690347
0.0586471622679003
0.0438990412158281
0.0584822614598688
0.0472271023576651
0.0502757387382259
0.0450859873425451
0.037514375471907
0.0801962479201418
0.0692473039108129
0.0388762446784021
0.0547053864043347
0.0366950441397422
0.0581571716458566
0.0424274053528013
0.0529626942567141
0.0405270252576019
0.0537560492072203
0.0302169185044754
0.0671650689515528
0.0813841006065763
0.037719904047812
0.0730239079271675
0.10983313919007
0.0451211383693917
0.060101019290403
0.0343603533051308
0.0623895775199475
0.0450448507023729
0.0561160473966723
0.0412497427484944
0.0562816798741787
0.0623375568516056
0.0756329507729345
0.0334786878177034
0.0631886045810179
0.105912725511826
0.142627596236327
0.0666188552279482
0.0654106405648331
0.0289173880064186
0.0821303904886846
0.0987371645224276
0.075065988039698
0.0944094659073205
0.0555191222105271
0.0582450010124803
0.0508995872412072
0.0522537497494771
0.0543943022177954
0.0535399693901465
0.0597296817355911
0.0471241353515681
0.0642207122628771
0.0575918614661421
0.0575342110958224
0.0467847726641921
0.104018775984878
0.0717633122162999
0.0588208111538794
0.0591717060308051
0.055221276486854
0.0665180066887868
0.0974079011459889
0.0952153340519497
0.126417940772045
0.0650656574426076
0.136907297409157
0.0660462888733937
0.0826029946316941
0.0495905565710933
0.0708962295340761
0.0594499982391058
0.0773347438953924
0.057099029301892
0.0725988596265855
0.0610972775373937
0.0826520570508115
0.0503763128078335
0.0800716304203069
0.0495162004569977
0.10179632236818
0.0737883257753474
0.0853944560239342
0.0668995774408194
0.0846267749002327
0.113921493886421
0.143084220384159
0.0846911754328691
0.084496909821813
0.0846111785451499
0.0773647054919561
0.0826231189077429
0.0763699515414606
0.078481787975807
0.0879281572753003
0.0950699284060761
0.127407109971053
0.0953096986453248
0.119140632866904
0.0595872780298251
0.115463716662705
0.10006798368194
0.101548076513115
0.109157755278945
0.109638113840344
0.0790797867449292
0.12066727982857
0.121704688160631
0.0998909469159411
0.124899991664746
0.103762531327629
0.0969200479303562
0.102866878391207
0.104411197188386
0.109003198551563
0.102275162474528
0.119062059648786
0.109485402206529
0.120522285614723
0.0991179436264236
0.119658126537546
0.119003829335481
0.13798203859506
0.113326664791939
0.138992131265234
0.103590472257374
0.134657353207943
0.108743220898282
0.135474029604433
0.150311147799946
0.144920709398126
0.149441676244848
0.129556331435477
0.117358813879768
0.130361365647205
0.135096881217039
0.125645346146357
0.127792759017726
0.140974988678649
0.129487804231902
0.138681712520526
0.138989380524348
0.152194255683281
0.126579468063503
0.161279520965164
0.143665410414806
0.160903055428962
0.139474714181448
0.165871896365389
0.145733152940839
0.190232172222064
0.187756526829434
0.184441326847299
0.199126633735901
0.17030976106696
0.165461838501988
0.178786591990818
0.170947955682968
0.180344834826872
0.185814182604879
0.18590656244746
0.166542548162473
0.188257934721188
0.164324158517654
0.186673411148052
0.185932887139932
0.19902980109459
0.190780037980025
0.209387265947739
0.19691360243707
0.203574691305476
0.186540033364188
0.203908253914112
0.215933604670193
0.228277918457413
0.212223786379817
0.232451703731266
0.206984089279079
0.240839167123674
0.214804322420809
0.221398655847014
0.20570725508699
0.222614159809346
0.216175945823525
0.244650212216929
0.230417368265926
0.247816982675715
0.226062276677299
0.251836963353468
0.223864970960349
0.251503485664981
0.237556627752494
0.254126549701411
0.246077159170658
0.259855156622373
0.26045826670639
0.276469957946075
0.262235232666544
0.286746617661833
0.270184617718709
0.289933723041628
0.255646353462997
0.27598415524022
0.262189260556062
0.285967015265968
0.278163698559766
0.30007145552855
0.276546331376829
0.292873829098397
0.278377144033644
0.303464911972622
0.290130898591903
0.303792378808129
0.29210078908016
0.315232665750073
0.299281870996658
0.333451678994553
0.296702500916708
0.318471959404398
0.311210132817956
0.339396705597189
0.321159759611434
0.339291361890054
0.324709563172285
0.337362703862389
0.323718199913533
0.337606164775012
0.330874151689245
0.359811213158762
0.331655408511152
0.361768051628743
0.341771867587798
0.372684141769141
0.352293240872433
0.385789421663718
0.356818236764411
0.374536678880791
0.352915279147542
0.376011905217249
0.366558420294589
0.392903924856265
0.365197348679056
0.387029701181704
0.383344276706099
0.384643176194132
0.379633368417151
0.410197433083653
0.384875821383917
0.400174609413765
0.373446156844394
0.404752866529934
0.404053433200664
0.407733957115727
0.405481161176343
0.418026315704246
0.394084154547818
0.424749755149447
0.384065975070504
0.416870141230285
0.396897391935174
0.443055395596618
0.422037414331235
0.444391707869497
0.43548119985511
0.462689484445558
0.419621509578433
0.440161237712005
0.422126408173517
0.460178215835779
0.447606798863792
0.466652996171243
0.456476441810898
0.474542496638022
0.450520857721359
0.475067442328481
0.452368867701588
0.478149753939686
0.465319453361675
0.492580663819686
0.465354987257154
0.48719897137067
0.46749081436175
0.479200608265556
0.476519006774634
0.498742139353323
0.47866009658881
0.503264547082507
0.470028387866908
0.504528927476108
0.499942676523025
0.509298928879627
0.471729484527571
0.50236406340886
0.476807539499018
0.538244088865717
0.516024987541399
0.544871055362043
0.514701235372998
0.527292448216747
0.513699098861862
0.52006927301027
0.52183111821158
0.533050838079288
0.517642646071911
0.52521919685182
0.519580047035947
0.552510626084054
0.517392164935383
0.537573309908959
0.529115442654251
0.561815679401069
0.540341127241552
0.558483312290256
0.533698906532958
0.5672719822899
0.542577195251662
0.550272575849568
0.512471670877121
0.550796830717291
0.544884415076163
0.561449441096924
0.551711305868935
0.572402838586793
0.560888472782911
0.579922912395368
0.549221444314891
0.582092505158396
0.547417879603121
0.569755397923771
0.560484688441842
0.580078042970678
0.556535656565743
0.589364239368941
0.571812573957554
0.596157981758929
0.577275135326688
0.581126597627955
0.594428509189028
0.617580503576269
0.568504759037879
0.599844672950532
0.576308649852617
0.607956522515046
0.584056213186567
0.608417786327709
0.596201604507419
0.617906182041887
0.608494452818759
0.606797167702255
0.568666703464744
0.604662954161661
0.578705274856935
0.60236495798266
0.599132459900259
0.625980457074119
0.572188530443076
0.595135793196133
0.573830855456169
0.607002447192414
0.6117936872335
0.599268974363933
0.585179061674185
0.610394866269643
0.587048957163451
0.620645853158344
0.617602344615382
0.613130945179262
0.600755772544899
0.63946957457177
0.594311397720071
0.63245342165311
0.634426699869544
0.625721004138755
0.608176942478566
0.616916339774593
0.579822491955267
0.632136303571764
0.628051666441003
0.625729619331564
0.606723503104888
0.625912377971454
0.609244559045147
0.634232998335752
0.584216337057024
0.63337774027838
0.624227768076022
0.627596333007037
0.615500677737674
0.633993233163086
0.628873767017803
0.653068672148636
0.597867543806841
0.627678709682907
0.634038138347431
0.641914472843152
0.6144683025187
0.604770939848349
0.601427000947786
0.653050483376227
0.606515200268359
0.642459690295755
0.625793842845291
0.635517114656057
0.627790231214092
0.622664765772178
0.59889818497086
0.63458103501512
0.606430753503331
0.612112641387301
0.609780206711455
0.628521175865334
0.618865760078818
0.615320709073086
0.613100369171591
0.643642738616312
0.592928296990607
0.613050256591354
0.597368410007391
0.620666183240896
0.607423037870794
0.606220933390056
0.603143247168031
0.626430628181755
0.604280444737892
0.632209899212015
0.610535828386299
0.615161129905447
0.599839585393282
0.614247862899139
0.590186411068531
0.606015880362164
0.588472092590184
0.602592227924546
0.5992071035076
0.621082649301598
0.594890874673445
0.611331018528736
0.607631573972217
0.616413887897167
0.57759687475101
0.591396233191562
0.587908489313766
0.589754186171888
0.589654624755663
0.6050867233956
0.576732482178765
0.588610326674776
0.579296802994877
0.617626388022563
0.588077585711908
0.58390495595141
0.57984198843577
0.58632128305837
0.543656808404263
0.59445193216525
0.581762825552062
0.576951407310624
0.57389181970572
0.574798714231619
0.567981012338316
0.57631786185447
0.555260198807482
0.581953340204785
0.561260725403962
0.568741466972248
0.556541715137898
0.570673229521035
0.562337066451917
0.584356889277083
0.554035657104182
0.55868772629582
0.554539275850117
0.561682880015754
0.555011870778789
0.571343176184009
0.55016693312962
0.557130127274836
0.550970963212013
0.549082013639148
0.539840192516546
0.550383218834393
0.545506817971793
0.548092064720138
0.524875916520595
0.547944076657446
0.534866377749603
0.530549212467807
0.530281625140952
0.535920422954845
0.508835242720448
0.535844734858942
0.527010912582506
0.515112897761553
0.515406814988539
0.5295924378487
0.506123640965876
0.533552289771142
0.527115788641118
0.521298428553403
0.512381898510319
0.526326560121219
0.51242449012578
0.509166865517888
0.504682456865749
0.511871943144901
0.492206342937671
0.518251604973401
0.497248568877497
0.506335033980973
0.490508208337862
0.48976357745686
0.483826289696493
0.492576578292917
0.482231214563197
0.501791189814932
0.489519790503078
0.490851265602172
0.478784900061888
0.481695018956856
0.46611362350768
0.490417831055514
0.483509656766342
0.489239381793355
0.46591657882832
0.47212378625407
0.472606236138258
0.459995142100689
0.453327061417156
0.457764089312293
0.447204899884512
0.459197898954297
0.462730977863853
0.457128642145131
0.451842216099939
0.449656554090712
0.441486261802346
0.453097252097932
0.436508677353385
0.446007634613442
0.441693924146457
0.450817956116173
0.424981479714086
0.424632043365818
0.424549869330706
0.43200245969677
0.418848219225705
0.427984327785002
0.422194693115777
0.42666790805173
0.421744282990999
0.424855772366061
0.411661811140955
0.420257619973479
0.411151289410276
0.40939287359692
0.394630612978341
0.413025584986008
0.400925657934307
0.410230607378449
0.390981038598331
0.398233132459625
0.398069094118889
0.399218148461944
0.376875193568895
0.379409070732479
0.378573041682877
0.384406345613227
0.368418987157866
0.381092017009049
0.37353629092788
0.387344470638089
0.374245047612145
0.368155984650591
0.360563385899348
0.357727323920709
0.355655010698482
0.359134945671736
0.358434462130968
0.360487629715656
0.355517385337002
0.355082593944277
0.340685615613594
0.351646976623206
0.341291499720071
0.351725576650486
0.342339479056408
0.343243342002912
0.339366191942608
0.333452701163346
0.335124210826446
0.34063206158872
0.323671119635539
0.33139799330835
0.320367427389395
0.323757731959673
0.32583122141735
0.318138917310433
0.316074752828938
0.320749609502064
0.312508078730206
0.31139944527028
0.307554256627088
0.313068692151568
0.313393942853872
0.306419103667535
0.301674272889394
0.304049660289837
0.294937017312343
0.296118313502869
0.289737158674495
0.295576179558844
0.292133760379019
0.292395725473222
0.281913042537952
0.281735350493646
0.276514645553785
0.285629992938164
0.277167413822625
0.280443138618896
0.268239568312138
0.281986106149803
0.273549156022557
0.276308525856301
0.262777475845441
0.263717366140628
0.262269619158316
0.268824037138121
0.26636708011281
0.260564496813421
0.259071185138576
0.266092913205488
0.253857020032526
0.253145276085712
0.249312459547812
0.254044987346357
0.247902644864654
0.250578293618913
0.245767721319801
0.253572857541333
0.241177125970734
0.246841748817227
0.240623482142712
0.238292784053976
0.240162870239463
0.245989113882854
0.233682564890213
0.238017115669125
0.229896461903599
0.236209401882274
0.227061628853319
0.233107134762853
0.230194114520407
0.225605624434643
0.222306997118775
0.229015136003172
0.220604851677979
0.221247725104005
0.219316743871911
0.222806252534602
0.212739934802218
0.213990768250607
0.212125503596471
0.210003978928834
0.207972309821778
0.215889485535869
0.207425505984599
0.206370988085082
0.200170664352568
0.20565560223658
0.203330084956902
0.201368231364861
0.199333098307094
0.205443288081101
0.200789972292648
0.199823458165806
0.195831397015714
0.196497381772232
0.187512623525218
0.200000170203231
0.194319402043371
0.181977139879424
0.186051209631192
0.193817934804491
0.181286835955459
0.185545982903242
0.182931835049902
0.179114263197985
0.176817828880794
0.184138470616387
0.180132781152669
0.173344546956792
0.17313530273248
0.185803999649403
0.177170705919531
0.173162721156209
0.169876055445036
0.174960227424402
0.171526829389693
0.171142592111112
0.168769211051838
0.169809920212939
0.167679934294268
0.170441868905756
0.164224291155363
0.162331738385506
0.162627382413768
0.161921499058179
0.165380358077544
0.1626339957011
0.156649821072663
0.161798505529635
0.156882232584729
0.159215739035278
0.156840419652746
0.158163494644167
0.151260643788304
0.154673910700532
0.150914687279824
0.152320506494802
0.147613712136037
0.15279880034402
0.146037678493504
0.150272286328651
0.146141956769471
0.149493193057391
0.144045542394771
0.147862841569865
0.144939533199148
0.144708795827294
0.142694401215673
0.142430826766475
0.138238280172586
0.138564365146725
0.135786746555568
0.138146004412882
0.139478768003114
0.138859100306814
0.129874248056534
0.135082025230585
0.133410809928339
0.133900809447633
0.13578941404698
0.136176981259349
0.134025243270889
0.135592583222756
0.132551033167957
0.128076510971198
0.127680568315219
0.13084409718469
0.131656973496105
0.136147079065063
0.127775043248404
0.126478974767692
0.125477131664599
0.132332041932312
0.133458081051623
0.124606243112583
0.11972973108245
0.127451904269409
0.124620833092704
0.131008796507899
0.129234234068746
0.125558415487984
0.120388232396019
0.123012393488279
0.125823205572121
0.128618710734823
0.124501795415762
0.130702877392565
0.125499307312386
0.128120046319909
0.127219899655918
0.127373671606136
0.126395320219489
0.1298364991508
0.125480880246478
0.12545305998916
0.12669592620193
0.132472468611182
0.128858812129384
0.129655038057277
0.133453056220007
0.132662251382111
0.131792579885543
0.134363403274204
0.132267022612165
0.133778378583995
0.133116829608678
0.137530152267483
0.138018819031955
0.137733605673875
0.135561606191878
0.139012743019084
0.138283702409271
0.1371584714303
0.141460881046352
0.144046890240519
0.136741856526245
0.148089319869095
0.148921312497856
0.151305240376535
0.143790203376567
0.15349387461195
0.148733767111619
0.147339501435643
0.148720016151912
0.154308871044601
0.147227135134046
0.154616544242666
0.156533690851893
0.157122976478707
0.155120929596237
0.156084846730973
0.162688591963205
0.169296335249979
0.159813240040943
0.162405946722012
0.163786498567291
0.169752208378694
0.167164452328714
0.176353866434873
0.173964020015149
0.177310837559598
0.179976752715596
0.177879492195973
0.177493309824654
0.181347162352291
0.184103317345693
0.178532143670205
0.181146490661381
0.188326847694983
0.191616262859579
0.188122187782141
0.18663200514479
0.186983028997842
0.189318048639879
0.188258415372163
0.192908017339692
0.19320930348334
0.186680817029041
0.196153412033266
0.187015790483038
0.192173532394099
0.194359284389656
0.187959487642211
0.18915422992214
0.194009302589144
0.19311372502531
0.185666543990487
0.18425785343048
0.18794565431526
0.18670084624472
0.186931532541984
0.185014862525092
0.186028927944611
0.18886403338857
0.18895588562167
0.185484298354207
0.187711043159523
0.185573033986776
0.187643584757672
0.183993165887882
0.183674620504829
0.187591676639587
0.188069868836116
0.185607022193413
0.189304426526886
0.184383418468709
0.186450840737187
0.18819914213367
0.187338697418472
0.183949904308803
0.182712196874644
0.187740595346961
0.190382104745995
0.189588389727009
0.186365656829319
0.185368830775893
0.187150098519328
0.184690570101491
0.187890448394935
0.188933829610874
0.187465105019799
0.187053184294735
0.187894732359866
0.18497789905659
0.184676355271423
0.187044139213156
0.186768695728626
0.181284680208118
0.181180536809583
0.178243521916912
0.180790633024984
0.182209212356998
0.181584505451213
0.176567056773604
0.179804499828486
0.174968902093302
0.176151627418404
0.176539353619054
0.173290147462236
0.177936601293834
0.173529991227263
0.164706881053438
0.166174295682383
0.163743441381164
0.163697767158794
0.160302246696873
0.166209522857317
0.161904818487065
0.157431557756276
0.160538428015268
0.157564001402327
0.148177400000528
0.151498232564356
0.155406585544842
0.147363536731196
0.145937232904508
0.147899946857191
0.144317255132409
0.140088374810558
0.139993136541178
0.142243457226747
0.141154327410577
0.136960727262579
0.140274863662463
0.130854639061429
0.128303866218108
0.127967218833417
0.135315227852452
0.130806418611447
0.129842818485844
0.12790577414207
0.124379034888793
0.124244500031657
0.124777420534618
0.129096551721578
0.123733150648504
0.121853559584636
0.120751546804725
0.120147374830475
0.118406985218473
0.118914895975409
0.122875720824126
0.120167169670852
0.120002112258429
0.112279618655104
0.118547120057313
0.119786363498922
0.117917668882086
0.115867549658019
0.11316145433243
0.107537847847432
0.112395735051792
0.110879275627596
0.108490082635454
0.11074191546362
0.108316496775111
0.105459808409834
0.108470680557618
0.107546691493876
0.106737542653026
0.109090505873255
0.107552685215101
0.105238738991595
0.107654695210531
0.102732107525909
0.104051584797606
0.10072759675673
0.101272446359656
0.101232614139708
0.102452987678817
0.102038952732869
0.102621231641453
0.10114577807225
0.0948094130713802
0.0994030813314452
0.0954168329377738
0.0949714670240304
0.0972368573829712
0.0982499627570495
0.0974043427814306
0.0934744739182601
0.0932125662402214
0.0950275423350343
0.0970996337563824
0.0966750222057673
0.092751971436769
0.0938683739088557
0.0959392718076719
0.0916785101996285
0.091240351125654
0.0890047021804031
0.0937533656047291
0.0918729959390245
0.093882117375965
0.091126619453571
0.0909875614779985
0.0928711567424408
0.0939355147114616
0.0926602765601493
0.0888072579311137
0.0897053511896107
0.0955082888072808
0.089196201377805
0.0904592645887016
0.0875702994991358
0.0897272619937942
0.0921863463725357
0.0928489038757356
0.0885607779904714
0.0887362477746541
0.0907992258864508
0.0867830968633823
0.0843117545394682
0.0861206773505109
0.0854240509612198
0.0900603141631054
0.0904978967465978
0.0885352841667576
0.0881308308436955
0.083296139610234
0.0882862072224286
0.0857111751909877
0.0822485677174881
0.0818961582820439
0.0834898460013112
0.0853806792460526
0.0854835783253336
0.0836578625163117
0.0826151122584201
0.0846682552839473
0.0824015006991526
0.0810807215275947
0.0842189708851651
0.0786164541227343
0.0844970015819725
0.0842125783985472
0.081125626191147
0.0819398100992524
0.0816719248029126
0.080571564332383
0.0780260619605139
0.0840349816610118
0.0824691855008772
0.07791289703947
0.0789121308743887
0.0826883416229635
0.0847191468316002
0.0822384165299028
0.0810025252584061
0.0828020015646722
0.0808319277071717
0.0800793863018608
0.0799149718562673
0.0782153614568514
0.0800054097907566
0.0801812498715218
0.0773723058227611
0.0794183594970684
0.0831783871010206
0.0787906964983912
0.0776602360940895
0.0815542675108328
0.0799960635158082
0.0792681739581535
0.0763807680601107
0.0779193749174009
0.08196231374101
0.0834676220484913
0.0806976587325683
0.0821413812560102
0.0770631683717018
0.0757907416350202
0.0767826913975019
0.0762792917585688
0.0774717007686705
0.0791905114029548
0.0778481993306142
0.0755487409305404
0.0793688094371277
0.0754960854390274
0.0767645585930274
0.0782799898802851
0.075018539688849
0.0765920282771305
0.0773032741073472
0.072566091924726
0.0718167483956851
0.0700637324669938
0.0723762207734514
0.074286401151442
0.0734641037782779
0.0724882295256064
0.0705674367548547
0.0726855567320129
0.0708189548986666
0.0694901803842036
0.0697887778497337
0.0686400943696808
0.0664321495221238
0.0683651596173319
0.0691151624668778
0.0659942509863976
0.0689459074929949
0.0688914221637557
0.0678733703891207
0.0688592262478354
0.0705139918543123
0.0673158912607224
0.0677782163823622
0.0701087444067787
0.0694263933212944
0.0678225501823383
0.0665297504207226
0.065972710922791
0.068494652793943
0.0669920743244789
0.067994606549605
0.0682830373558053
0.0674234255626652
0.0671851400802836
0.065851309622291
0.0641688695430666
0.0664542129959665
0.0662874243534084
0.0677305846398917
0.0675362155045738
0.0671224202199555
0.065980106207977
0.0664036184485846
0.0653620774345141
0.0657079572487727
0.064055511037982
0.06643919618693
0.0636038665795719
0.0594954535509929
0.0617015697141778
0.0615154552167108
0.0650684907579146
0.0623062004956034
0.0593885560314276
0.0609243222164093
0.060895356237251
0.0624719605926972
0.0624284221301956
0.0604294755293842
0.0606875863782831
0.0604950755456118
0.0588617801628094
0.0600450223986146
0.0566553413836012
0.057059550842916
0.056372028960756
0.053812672517348
0.0575275405453612
0.05419551956606
0.0532151958374032
0.0550875363632675
0.059187956294288
0.0571107053261874
0.0559549176212284
0.0570482293157943
0.0538426238283731
0.0549541187094294
0.0557451722547947
0.0539311328174633
0.0547918037359026
0.0558109810918071
0.0582644232816194
0.0547280805718025
0.0523192029845407
0.0520973982057022
0.0522513314196642
0.0491129158694925
0.0545584239526019
0.0553248490665806
0.0536162253510101
0.0552300877713533
0.0564120975048956
0.0514076468353641
0.0540029647552527
0.0514283790948371
0.0537899935193786
0.0538029839034834
0.0532616170222278
0.0512323347316288
0.0509185393866405
0.0517269815116567
0.0517969833656719
0.0478164743933648
0.0510836874964543
0.0515820832880745
0.0534398052493682
0.0503458059700478
0.0504549534964238
0.0499896871277197
0.0529193901022521
0.0498666000601056
0.0518655368431159
0.0511979756111177
0.0506979276717085
0.0486751481044312
0.0520574180442228
0.04835105527385
0.0480019666279856
0.0475609801653032
0.0495002313254663
0.0468119822103433
0.0463457707754019
0.0479954167282894
0.050691645720444
0.0462576107141323
0.0480355034654213
0.0471934739080162
0.0468252596830042
0.0436951615765592
0.0479705185214581
0.0465751533165834
0.0428066898458797
0.0439210477755176
0.0451553119924155
0.0466879620556585
0.0477051214019987
0.0442686417516687
0.0462202818668376
0.0468465393967952
0.0457632460994238
0.0453665215359532
0.0461769458564461
0.046571395154177
0.0474710471251904
0.0425194888992896
0.0459906225065836
0.0445955885656353
0.048351742971561
0.0457207864067823
0.0470645464718916
0.044793973867354
0.0468074395338689
0.0432749379339218
0.0458298942778707
0.0459173289782145
0.0455197889340653
0.0470633178392608
0.0461256951169126
0.0440801666749304
0.0451034542892539
0.0448333239386228
0.0461485891814602
0.0447334270078694
0.0433659840433638
0.0443195236232033
0.0445184717274138
0.0436899965986238
0.0466497976457443
0.0439628753094401
0.0438875216594664
0.045239324534342
0.0449508806025135
0.0448316949050603
0.0474415729010315
0.045104727803209
0.0437647643195365
0.039934691117256
0.0414518081859988
0.0415435225951971
0.0434472533412108
0.0410958641220107
0.0444847550636854
0.0398311775692029
0.0398838200706744
0.0428489308799937
0.0445891386304697
0.0407677739239444
0.0413991918600907
0.0393872804265069
0.0435684235885053
0.0406497614334723
0.0431142628828318
0.0411183872218248
0.0427597829820043
0.0416522047140221
0.040081161039584
0.0388936016706256
0.0380976438600253
0.0422985669465657
0.0407234745799036
0.038479811912126
0.0408263942003605
0.0391294512962934
0.0432538073362433
0.0397105725519904
0.0400738344335983
0.0373576422069048
0.0417742111643845
0.0395742473133018
0.0392341175868396
0.0376321690415201
0.0401398087971224
0.0402380195368156
0.0399433032528981
0.039573540838094
0.0444889123411575
0.0395121715136811
0.0405334852913055
0.0401386377892384
0.0420181191623569
0.0412843672595247
0.0417731755246737
0.0390931803829584
0.0433122017377462
0.0376917546396491
0.0404308444487554
0.0393808650511112
0.0410583277176042
0.036648500294865
0.0390558942541543
0.0380178557737018
0.0419785304909509
0.0388436157337692
0.0395786237100927
0.0374454684663875
0.0389101507166135
0.0391425485485582
0.0394135057384255
0.0371754003551428
0.0382716010715328
0.0356720961620001
0.0373403735655768
0.0357434878690703
0.0399876509189456
0.0351393559472101
0.0353407417332425
0.0337969627320552
0.0368031342658025
0.0341804776342218
0.0326669501874008
0.0360034981210573
0.0364096992932062
0.0333668757942657
0.0375261983664684
0.0373027997127799
0.034687077076869
0.032996142908037
0.0342539289248294
0.0325213200137176
0.0362823680237364
0.0342136316947763
0.0348540140660598
0.032937669634471
0.0352900427653149
0.0319855553405592
0.0338879463481346
0.0336290605070874
0.0371678980012804
0.033104541095408
0.0336035571046381
0.0342488386107504
0.0352087666809577
0.0318010978697765
0.0349676249780414
0.0350033175435944
0.0364322066649687
0.0319294886376287
0.0320055916734678
0.0319184609966871
0.0356393952290518
0.0333484922896194
0.0361097981922016
0.0312611538382755
0.0335066182772688
0.0332153093112273
0.0324999243159747
0.0284269405707735
0.0329029500738379
0.0324733606629232
0.033266590723136
0.0316971002445121
0.0354218560470066
0.0314117029952391
0.0343437014613508
0.0309637821910406
0.0315912267445269
0.030545131801195
0.0336766554536612
0.0329905692899386
0.0328505921460612
0.0280976574626705
0.0310326698812031
0.0318523065695957
0.0303582645181374
0.0288591458889615
0.0321011840622838
0.0283190599831984
0.0309823133640276
0.0278632550089497
0.031369043593903
0.0261663577723762
0.0301536299569683
0.0286047650140661
0.0308565903539735
0.0279023639086512
0.0310515910199541
0.0273553955752281
0.0290775269629392
0.0255924087828727
0.0304896145125139
0.0282465793488298
0.0273880831069431
0.0271485474193755
0.0293758686668369
0.0285019503925045
0.0336752915383937
0.0291397761167011
0.0292421147816863
0.0255063361489201
0.0297484651264923
0.0279670164577627
0.0294057263027372
0.0275062184740327
0.0314926297890374
0.0257244816129439
0.0314198322906958
0.0284832925006749
0.0321772303583338
0.0282873743077107
0.0301973497903127
0.0277195884670945
0.0305372334686403
0.0230602416472848
0.0298644701979059
0.027042315822309
0.0271003878256307
0.0225491255458408
0.0241694775513019
0.020115366449441
0.025277652602984
0.0230411182217606
0.0292413213856003
0.0200368079882645
0.0222090532856711
0.0150891467055545
0.0240913293097838
0.0176951897862846
0.0205482884579129
0.0130024783634402
0.0237287519240056
0.0122213393268142
0.0208602406693437
0.0142942143927397
0.0235201867086185
0.00975125624898282
0.0267078510505149
0.0143289250625546
0.0236706951850007
0.0204472746739923
0.029181044902897
0.0227053137753003
0.0326622947110807
0.0181088327130243
0.0251285790145228
0.0146249481858223
0.0269271917661618
0.0103458781110326
0.0271106132567426
0.00983735882666411
0.0289607190631996
0.00797768799524394
0.0266686534356047
0.00820683368698504
0.028776954276608
0.00691604483317855
0.0341335168056601
0.00342509672388336
0.0388901367627811
0.00505713375656167
0.0399912428795531
0.00151746609087581
0.0348754009306091
-0.000170187126742034
0.0436082515199556
0.00283208094921964
0.0448275028236743
-0.00186639639569768
0.0438222095352583
0.00747177751723096
0.0518621803634302
0.0043767203225807
0.043461037210298
0.0134644571746596
0.039536222105381
0.0201094314089215
0.0259002473469628
0.0296114192969305
0.0215007914188927
0.0344434505374459
0.0170342503077878
0.0394860330725874
0.0127840585503275
0.0406428536854799
0.0153401642471349
0.0348826951378822
0.0211485440273552
0.0325397005155497
0.025568613616752
0.0245448008656995
0.027658812503905
0.0255978036064781
0.0311335876310034
0.0254272657902359
0.0260609149212357
0.0284515242609623
0.0219239117809746
0.0282307161494838
0.0229931493851913
0.0272105600456519
0.0234473028406732
0.0232131875317675
0.0222745145913987
0.026107741974926
0.0225134535997106
0.0250730325712686
0.0229922366437267
0.0256337833263286
0.0238052485764797
0.0248965640758753
0.0226459589514041
0.0237426594435953
0.0250147897671638
0.0252084868960447
0.0206537980584661
0.022365476485238
0.0230295176707433
0.0252992339639851
0.0244210644541869
0.0241907516713306
0.0232425100862229
0.0235997765540134
0.0231701669548407
0.0243309365369495
0.0249760702638873
0.0226498734104866
0.0231273448992758
0.0256275324609719
0.0238807101039941
0.0242212087270697
0.0240069744376427
0.0241937766664324
0.0237128248102954
0.0255937467559364
0.0233280747787268
0.0238387163852753
0.0241658599411571
0.0224586850557287
0.0234954741043119
0.0233355536155352
0.0233698391983573
0.025587401740616
0.0255050479551026
0.0242419712276339
0.0238996691191334
0.0238078673844677
0.0250514522581276
0.0249350800748355
0.0229473747325295
0.02239592191232
0.0226873790755049
0.0223023256135229
0.0244799478211637
0.0240920176868749
0.0255129047712244
0.0227798737207103
0.0210052374286446
0.0223456523970958
0.0242633826352131
0.0238966518580568
0.0234527239229292
0.0234307854853907
0.0222083234724724
0.0204627913569616
0.0217209584433832
0.0245896156494348
0.0238750039703488
0.0224689676998177
0.0233874667793484
0.0233979086706941
0.0212332954209916
0.0223831421318246
0.0219836456831928
0.0213202686047279
0.0245867955768771
0.0224106232636112
0.0206268350931455
0.0204456989583735
0.0226785632689149
0.0261668850889757
0.024073644217683
0.02339403818039
0.023403741535015
0.0223033239265529
0.0227944727725859
0.0250213587324841
0.0243069522759727
0.0225623529726327
0.0255784351872859
0.0228612261272214
0.0235461377200938
0.0251516717770587
0.0244348075482443
0.0242564040657901
0.0223160581486688
0.0239339256683027
0.0249140816179084
0.0253499077211919
0.0260936246918542
0.0269781278051627
0.0236000255666101
0.0239110714126712
0.0238225632469501
0.0238938561168379
0.0213193575590394
0.0223804078662854
0.0246596988222408
0.0226753024941079
0.0242855715175122
0.0226565331645502
0.0216060528566577
0.0232344959020923
0.0260903326522057
0.0241037156129896
0.0225836285012084
0.0241019999226708
0.0240214961747299
0.023003738597585
0.022685033832795
0.0225935329769693
0.0217493925877351
0.021387758773703
0.0217001340732184
0.0228682613485378
0.0234178762358723
0.0227672887732762
0.0239897409811045
0.0224422607168027
0.0220622048562509
0.021947018898599
0.0239681030459255
0.0219144481970524
0.0250265042411108
0.0235197765198785
0.0234340975441994
0.0217338157516254
0.0239770550567964
0.0237230317991785
0.0241217593955074
0.0230068082849852
0.023894995433253
0.0240647150406262
0.0225581386660501
0.022839284919482
0.0240501763854746
0.0236689132730889
0.0236449646510581
0.0222129608362867
0.0268697027349156
0.02176447838996
0.0233576829552554
0.024501661412505
0.0234453233968239
0.0243991157587614
0.0246213576061537
0.0227011460658683
0.0230613293842437
0.0220149964673268
0.0236909399527047
0.0245289013031074
0.0245245128277024
0.0230571937137377
0.0237476017356828
0.0229834612797402
0.0248948697955676
0.0225536036916499
0.0229690392579203
0.0220086805205785
0.0238216039425178
0.0239134184113865
0.0227969345105895
0.0225802780825855
0.0252216518710455
0.0232788740235425
0.0212097597552679
0.0236647453313752
0.0237882433738787
0.0196808369940275
0.022859417518328
0.0224632370487751
0.0220441027912948
0.0217174787761627
0.0224259750155913
0.0221577645396193
0.023465226092424
0.0231625318684319
0.0214947256813621
0.0200905051018405
0.0232828703566159
0.0213041828547926
0.0233071544539685
0.0214490563226844
0.0234241591069294
0.0195299087450099
0.0220520529140325
0.0221357351764991
0.0222222156707597
0.0192500346378428
0.0223504076425679
0.0212095731106167
0.0220356519091311
0.0212653964269064
0.023716446338545
0.0205442363355644
0.0213150033583393
0.0224248591445109
0.0247824226679815
0.019915216591137
0.0211674401141505
0.0203154106580835
0.0231269577023212
0.0217402716751608
0.0223651654741109
0.0211050357640064
0.0211883515215095
0.022950022343872
0.0223345146171358
0.022194479683555
0.0219659682602112
0.0191545953593069
0.024696192701323
0.0228083919395996
0.0225683928625687
0.0221815740778354
0.0219846837178548
0.0192949709943906
0.0220162143551994
0.0214456479510653
0.0223325470704095
0.0190530693668424
0.0228224576896382
0.0195283647702506
0.0203371558427584
0.0211176783471593
0.0202325666406849
0.0203832971503611
0.0237501964133139
0.0173288976617359
0.0221170427963561
0.0216717636923921
0.0179639883861324
0.0206017712769264
0.0224293726197515
0.0203759338886243
0.0210519039359488
0.0198400834904364
0.0228890565821228
0.0223522033708083
0.0214856391406769
0.018570447569327
0.0234221493847342
0.0188545191693734
0.0227102319003944
0.0180832929369207
0.0201310325508337
0.0189770210297024
0.0219599433954511
0.0194498459809926
0.0222389318104346
0.0203194325662046
0.0211862635172105
0.0212009527119618
0.0205891237205905
0.0196715546681065
0.0183981319975503
0.0182260419725909
0.0214792722348383
0.0182251935899472
0.0205106944174371
0.0196203283609772
0.0248410587681237
0.0208544991088085
0.0211796930316799
0.0203711336241169
0.019147343043962
0.0207763869738177
0.0216021323784
0.0200388670372531
0.0206026295330061
0.0198662768047476
0.0218573836678688
0.0196982601774485
0.0199916101055453
0.0194850339594434
0.0220528662180545
0.0185630965444308
0.020894918029392
0.0194342652696554
0.022105138179382
0.0183942759961064
0.0206070829340602
0.018029254976761
0.018462292191757
0.0183543920449245
0.0202417904084991
0.0190508518663497
0.0193194742205854
0.0214547750122918
0.0210170372054822
0.0266181613437126
0.0202435929500548
0.0196444997382307
0.0199423641697243
0.0174732464793082
0.021148412788131
0.0185390956457394
0.0181740653353488
0.0194517443279872
0.0168514674054935
0.0192980900025718
0.0187590949876983
0.0176344979373301
0.0179320215017926
0.0168425565431391
0.0191326205344596
0.0179566804568837
0.0170446969126761
0.0151915018639812
0.0184641548446184
0.019443703296157
0.0163077173694806
0.019742195967638
0.0190429303949731
0.0172389569483024
0.0146646958695502
0.021593639180364
0.030293774947152
0.0173155937611413
0.0208087563387099
0.0208134168448417
0.0250885677705613
0.0172662382445428
0.0208352177398995
0.0163452140674969
0.0175254589878514
0.0174082135283691
0.0214741226065087
0.0156760764720376
0.0196324053584241
0.0161233042316415
0.021022339107731
0.0173108097747089
0.0194701395574953
0.0171862679420962
0.0186514642908605
0.0165184285156686
0.0192670437179411
0.0164005025360964
0.0189979318775875
0.0166964335914184
0.0207636138137806
0.0138710954304211
0.0279989274845513
0.0222194185518654
0.0211207090664295
0.015135213948212
0.0197734777844918
0.0170738471891448
0.0201373052690457
0.017706456553696
0.0162775781363037
0.0159060070839853
0.0197920554088191
0.0180074405608589
0.0173477004581956
0.0163899798304217
0.0187506417158443
0.0161749426224132
0.0199392089182071
0.0156083119064977
0.0184127933965009
0.0144855008631044
0.0170887867035259
0.0147192074672995
0.0217408925244826
0.0160404548138926
0.0217941760859696
0.0153819307667992
0.0226569404363927
0.038521996991913
0.0178523678975127
0.0207468519394321
0.0154888906336917
0.0178171151751783
0.0154879748080977
0.0171412564549917
0.0142686712173881
0.0185795255791313
0.0154775657501854
0.0163191632761125
0.0165107536757071
0.017534786130633
0.0179860272222299
0.0151004934569881
0.0158479444429411
0.0183523542649389
0.0141066246439382
0.0204544984338116
0.0164775220510349
0.0218342035334267
0.0303568876828523
0.0220912500098878
0.0204676488441347
0.0220291845746307
0.00815989669318848
0.0442066076284546
0.0219917181201148
0.01908779419541
0.0182618349337026
0.018391954519413
0.0145853277729252
0.018331481748589
0.0156686466783177
0.0146929932139616
0.0266371145392048
0.0164703675136648
0.0257286890041579
0.0138586507800437
0.0196490131371929
0.0154086707241033
0.0185392908409013
0.0145278077660965
0.017897935854078
0.0168356812507016
0.014601572044251
0.0165526640735068
0.0158033957606312
0.0180644437316907
0.0151885864951149
0.019271258294938
0.0228696561334198
0.0161459146073349
0.0161114767671748
0.0178044117471132
0.0151199246099042
0.0214870222962388
0.0419549854112958
0.0122223549586147
0.0222673578009283
0.0139917538951694
0.0213593214937374
0.0136318221747477
0.0190973238839696
0.013364901566177
0.0190620382578481
0.0144398974813039
0.0201740775169839
0.0151111333056727
0.0167804423245339
0.0123907198072227
0.0192773470021349
0.0126876001892668
0.0163326155219933
0.0182138655535996
0.0148828475967572
0.0185020311701316
0.0137069633524442
0.0363167593094609
0.0390252591522252
0.0275608560409089
0.0325161747685758
0.0188970032185337
0.0190052561212949
0.0127457800436567
0.0187400061752124
0.0139029075188104
0.0226243020612606
0.01391024054327
0.0197680120934235
0.0138036309363822
0.0203205527276866
0.0112151498102721
0.0193544417190294
0.0115279503326005
0.0204209810493373
0.0111315205122123
0.0196687366746666
0.00922553882176865
0.0234556418830451
0.00662488436937778
0.0304063264408182
0.0153646746448881
0.028344146889315
-0.00110139617413697
0.0560037549899145
0.0381388356815633
0.0203502757413971
0.0273678584409257
0.0131358436788467
0.0196633855960545
0.014269489854825
0.0173066648532937
0.0240789176175
0.0157176578960403
0.0159269156112133
0.0166229283360315
0.0182176255605126
0.0192158344141015
0.012844651934513
0.0231271280014049
0.0555970809785173
0.0232722891181814
0.0268592794558705
0.0109646303627538
0.0231744390850114
0.0508301527747459
0.0161181132591866
0.0244476435131964
0.01912947758742
0.0168634974948235
0.0142605681713754
0.0151599230348324
0.0160053530656675
0.0232604791236315
0.0210227236478344
0.0138052197420458
0.0197478798445084
0.0121296697474788
0.0243299964864426
0.0161528466281917
0.0283754288390026
0.0293227561590896
0.0159367968155165
0.0235884278523775
0.0220465245269264
0.0162825647432701
0.0196983831737274
0.0199340807019544
0.0187994643306431
0.0242984208932005
0.0344128887344505
0.0165086239361974
0.0371710164203555
0.0309778746864989
0.0158400229602902
0.0221620538196521
0.0234459816595913
0.0342704611050228
0.00915455680879919
0.0257687241884102
0.0571219304846713
0.0220924579754316
0.0514069120241558
0.00970345433281468
0.0307445916485612
0.00959685365060791
0.0281188767246523
0.00254942638995038
0.0470513231009169
0.00978847336898839
0.0307741988615855
0.00787766346750861
0.0355050297214954
0.0280133847896447
0.0247813115924559
0.0196162026949789
0.020035619255186
0.0142167796094195
0.0380583212222795
0.0260908322872341
0.0116356525119451
0.0564724173543278
0.0415928807545799
0.0466368942660609
0.0289577401851619
0.00816769376893993
0.0684102650649657
0.0209877237694616
0.0293502501785175
0.0139272356659554
0.0248208216695975
0.0121352073589
0.0198669999551817
0.0581208888621199
0.0289127058925147
0.0194824105499239
0.0324661909919702
0.011503819941243
0.0558269567175855
0.0300631976545421
0.0264014008958961
0.0153528712362384
0.0332071567803147
0.00269918873627926
0.0813642295474825
0.0332189900219417
0.0375878070330402
0.0543698446139718
0.0357213412979059
0.0416695454167248
0.030124308950267
0.0266647547079276
0.0355241825283448
0.0489404886021662
0.0291629260487484
0.0167253612667544
0.0406759746142911
0.0563026806487158
0.0166660684556281
0.0378434114863203
0.0207741430354355
0.0226823720021319
0.0598308124618816
0.093876240154127
0.0582739437534679
0.0360668947367083
0.0281043486062699
0.0620556686831656
0.029325189573653
0.0292155499845734
0.0270614288801808
0.02462997785618
0.0261651021851133
0.023416867861512
0.0441656938981827
0.0260318725014522
0.0342651695270071
0.0289908292287248
0.0262323347673447
0.0518675049897829
0.0783593467482905
0.080365604485701
0.0302501722709418
0.0824118025757186
0.0490922239158059
0.0460386984066493
0.0330434113659888
0.03037540186766
0.0439862335800497
0.037050055792413
0.0372968312340165
0.0292748005045877
0.0664511208963991
0.0447999689990004
0.0438069964232239
0.0694106990228171
0.0353544248383372
0.0502673320304111
0.0088170797891915
0.261402434957292
0.0538291416155805
0.0721161228244684
0.0407824407865138
0.0522695675258421
0.123033357262997
0.0585492994378654
0.0443990033661476
0.0462753575688157
0.0409554071058335
0.0485592872172245
0.056116483374685
0.0599670106924169
0.0652897119242596
0.0573880225353414
0.0395919083183689
0.0802869012154455
0.129532926270309
0.117922183639343
0.0856409410127006
0.0604270032913103
0.0800271033515517
0.0810915684682756
0.0577443276110913
0.0691448104498951
0.0572440606664431
0.0635514484454109
0.130039416385032
0.0690792022880629
0.0829193749332839
0.0617569263690058
0.117970786808964
0.052943269909358
0.147305832197012
0.102027825660427
0.0937098992538403
0.0775866548932314
0.0808583048195176
0.0853869140377586
0.0698944876508019
0.119057387355489
0.098397831109646
0.0908319550461995
0.0908286152592854
0.0887035491114763
0.0913027064080256
0.0891937334371061
0.100991516730351
0.0848193124633223
0.138941534360769
0.0909995154626637
0.282220485537156
0.130240909270566
0.106222026243292
0.103413558424085
0.0889780642307725
0.141103209315135
0.110313960716732
0.14454322211421
0.130049574410038
0.0941263042881962
0.104065055131766
0.091364707369154
0.102013556266434
0.0914618328144612
0.111944830600171
0.0809296923911058
0.133590642729414
0.0889061613820714
0.134208877194114
0.1745283714521
0.105952929698586
0.102336347215125
0.098102206180944
0.0942757909624892
0.100885088086852
0.0952301923345442
0.101106991575764
0.124851891055423
0.0908682941928031
0.110427729885508
0.0817240331336353
0.120602267791218
0.118964775369733
0.0952172589670043
0.10373133176959
0.0896913035302105
0.107347851685175
0.0881982282732167
0.0986962622198767
0.160130499631353
0.0998658219670048
0.101758279751554
0.0899970139403149
0.0979406998559154
0.100707654846774
0.0947186353232403
0.0957134734354456
0.101544709395115
0.0931686374198129
0.105715818239488
0.0928321659947481
0.09713170240502
0.0925252048085814
0.102722132989798
0.0938301855796461
0.0998325804111528
0.101684389566579
0.0932586097021856
0.097512933676061
0.0955948261438028
0.0968335192899855
0.100699608823693
0.10279095170035
0.101697331939887
0.0960692134826002
0.103019627031778
0.0977502282865044
0.0969160828258571
0.0964939720439536
0.0988340599812105
0.0930976661463546
0.0894359203399226
0.0889769575877655
0.0949596901246775
0.0966998273724101
0.0909133072677409
0.0935407875350644
0.0921101539320685
0.0978649030457874
0.0885882838981274
0.0985978511774293
0.0727104352893743
0.148135854258871
0.115426408051891
0.0915700152065075
0.0889337334320962
0.0827712864682121
0.0905635713073219
0.0718920507190521
0.13030854259157
0.110409218483856
0.0829350279369865
0.0812457127891914
0.0742097004160759
0.0872057556050388
0.0891927545196233
0.0700986761168365
0.0894229650489687
0.0595977804231685
0.119338781956356
0.13381205479699
0.135059940675875
0.172929905345437
0.096600725343719
0.0687552111032705
0.0773540158172126
0.11974278544523
0.0631419259150127
0.0755013761578867
0.0563957115583268
0.104561447931343
0.0794720488211966
0.0630980609238965
0.0653925335108044
0.0523413500025033
0.0841051468519755
0.101422275993618
0.0720567723420743
0.0909171616367992
0.10864823921801
0.0733270688278462
0.108034599242708
0.142408390766186
0.0994105328627848
0.0601818285157627
0.0660408524232819
0.0603882445142151
0.0610452500076302
0.122226145543074
0.0696720049015296
0.0783750719949001
0.0568990471495893
0.0524530642267664
0.0606888103450999
0.0774025954638428
0.0725579174056856
0.0583260678957372
0.105739975269563
0.0515603176512447
0.0775338456788994
0.0719140727955965
0.104154570137067
0.111349044661833
0.0729403871392204
0.0476645794994395
0.0851842337367104
0.103539780431452
0.0660096584805085
0.0781164189303182
0.0499064464621343
0.0554088636169626
0.0824808952642273
0.0535467621047847
0.0738428488777364
0.076721034066649
0.0802596114020584
0.120861088798918
0.124906912988451
0.114300232613317
0.0697245185253947
0.0504858315041864
0.0560599253363156
0.0546825579869347
0.0616450399160804
0.0428628386240038
0.0775362838085337
0.0682094668105846
0.0534373939753961
0.104140379784502
0.0657795056397553
0.0599962052075739
0.0586469980944267
0.0537399269819479
0.0682717113045559
0.0943302468334203
0.109192886284202
0.080994123013543
0.0681229397225661
0.0915612492794381
0.0660671100141841
0.0713732699644798
0.0646925814430377
0.0708643172093648
0.0635698438030229
0.0839851424406665
0.07900637522605
0.0759539208546559
0.0765747096931705
0.0747583485097703
0.105337657859489
0.122187878536393
0.0777542075650672
0.122174400914652
0.10580198217518
0.145854335167502
0.110948587486267
0.0969136591998866
0.100958668576193
0.0973835468990553
0.100581328163113
0.0958347236212113
0.104636208723353
0.136870040363832
0.10188462772037
0.115149315715843
0.103576176520761
0.110816347046787
0.103944250117027
0.146930801685831
0.128511494311738
0.171281102109679
0.169464383362023
0.136252135130092
0.127057791207491
0.111750214295563
0.12557928094414
0.121676295766049
0.117192383537527
0.119140900883729
0.119739066553424
0.144412510517694
0.121789702388702
0.122866336682603
0.120928840374425
0.120379237995776
0.120132115769656
0.123845760479919
0.124356934858503
0.122876254144472
0.127355147222758
0.128546221052192
0.122266830829101
0.203665600777215
0.150587159942145
0.136710844218428
0.137462130879372
0.144624477294026
0.138577001342381
0.129896113968069
0.152824507865799
0.154092345799417
0.144017047363517
0.14673434047122
0.145529882234722
0.147524648924404
0.155342485976331
0.178449928615105
0.145913974267287
0.158551358240488
0.136678065227919
0.172298353432595
0.200732661330276
0.16804467165205
0.17180682904136
0.161266931424014
0.153528708010074
0.151626912900628
0.15545233549416
0.154325357018956
0.155158603824906
0.153495370227342
0.157304622020339
0.150859302036808
0.152988309345107
0.151445028948334
0.148640547162686
0.172860343938771
0.152628544724772
0.1506183282594
0.149581181399106
0.149083066675328
0.146853282706824
0.172781290723554
0.168786584703787
0.156738164306233
0.154770095939697
0.157097952988985
0.174266727946456
0.166173941390343
0.144244288072771
0.147329501611836
0.144468687139871
0.149155226147064
0.145938819253971
0.152924700578052
0.170809945146109
0.158279578714039
0.15306282172665
0.150501502348004
0.151037318105659
0.150737267273948
0.151813034824057
0.150285776391367
0.154544998028583
0.157273083898193
0.161180388935541
0.153615137813109
0.156777587435323
0.166110764993961
0.167746450156248
0.168975100884254
0.154545349997498
0.152816123020434
0.150152877423052
0.151635504772533
0.160561046486696
0.153897535965282
0.142763186142671
0.148103539880326
0.14480364118382
0.143886929185855
0.173845264760736
0.151296452774748
0.150148573297344
0.145523828215025
0.133332572257513
0.137551367800812
0.135883355586173
0.133781294988131
0.130001038659847
0.134006014985816
0.127289362091163
0.128138977436536
0.126140056476722
0.124757309481912
0.126572286332095
0.128434444965834
0.125796529759875
0.128620224902261
0.125076495831568
0.126164187906137
0.123785270087625
0.124184865107942
0.125304841465833
0.124395542345121
0.136176451054443
0.141462619718186
0.139777608761285
0.131113417886164
0.131983407274091
0.131181711010923
0.120716135289971
0.124591898318642
0.12271801198586
0.123150233208581
0.120042421263411
0.122615989135523
0.12016844787526
0.121310583122376
0.122097193039451
0.124846735092184
0.120152588303131
0.120487165131547
0.121807008396685
0.124467171024643
0.119149738831349
0.124761677828487
0.124898796868883
0.130525740079346
0.126764849597901
0.124939677935186
0.125295260360256
0.123668004803997
0.123833241228112
0.125896020833787
0.129507666906177
0.123741036229735
0.120038707796365
0.119800344872718
0.119786250708684
0.12432527928245
0.120966443193301
0.119852862486988
0.118978391639216
0.118632451225176
0.117911827217435
0.117808194307091
0.115805342829447
0.117499629406561
0.112415455418712
0.112385163935901
0.114436571149672
0.113516051224213
0.110286589402311
0.106848402401223
0.108202870700102
0.106817487689165
0.10300469157553
0.106556280391529
0.10294066377678
0.102421554572875
0.103841776337084
0.10580120643285
0.101913637520442
0.102210210936381
0.101590356998493
0.10110514084812
0.0989331048933269
0.0999393317156636
0.0988204478133271
0.101108199253038
0.101152975563299
0.102099041761214
0.100503017035492
0.101754532667505
0.100937698518034
0.101390274518523
0.101318679143528
0.103768481901296
0.104768141943623
0.105540462425729
0.104621840316213
0.108456205750671
0.107451469061592
0.104774463279787
0.109786343916915
0.110097882496896
0.109429899985734
0.111283412796201
0.106863486671516
0.109876437883209
0.112107214241935
0.111317110853046
0.109269534563248
0.10941144284594
0.109405024928708
0.111450108319353
0.109667352578969
0.107367440528163
0.108887606796303
0.109004697450676
0.109635566508633
0.109224066138057
0.108178555504709
0.110135730800525
0.10676065449622
0.105531952197205
0.10644188040639
0.106281712571196
0.105410840527894
0.106651045925363
0.10577524054249
0.104791220141767
0.103496596446216
0.102885349973734
0.103261613018674
0.103469124364748
0.103224467489041
0.103467824225149
0.10254359424008
0.102710189299412
0.101444235609089
0.101798454106175
0.101807227389025
0.100976901640815
0.100567585849089
0.101666641591942
0.0988869061312663
0.0995088167519
0.101847030504493
0.0991452315129694
0.0983427679331606
0.100560389931706
0.098971937629274
0.0969255011228242
0.0970618020778259
0.0990736805323513
0.0979423007942919
0.0970142958411284
0.0947691687939187
0.0946961219339765
0.0937259844321842
0.0944491342987039
0.0943815701128696
0.0914747716019124
0.0916734753401012
0.0911935137595538
0.0901447732613948
0.0909245083143255
0.0891633624619804
0.0900500759144834
0.0904475690938813
0.0902160052992849
0.0900085247803091
0.0899922011625949
0.0887519357072465
0.0901549122404524
0.0922841584886848
0.0899295498898312
0.0886683800069409
0.0893178195439313
0.0882984846602332
0.0867225920061037
0.0845728758881622
0.0862101408841271
0.0838064857690167
0.0842346597464905
0.0846950585253752
0.0818785394625643
0.082356764405837
0.08421054170854
0.0817331552346277
0.0820357621158325
0.0853382665989693
0.0867740553603243
0.0874256457903736
0.0926896781065225
0.0958352656594758
0.0991292894669778
0.101034622027219
0.10757739164336
0.110739580639428
0.116550162013531
0.124238090973518
0.129843199615761
0.133264724278976
0.140800461888306
0.147591134810657
0.152087700636568
0.154229493637861
0.160588813816531
0.166533209797313
0.1708357072456
0.176044810314641
0.180617011805814
0.185945799068467
0.190930900151207
0.193524917134358
0.1987541113665
0.200763715366357
0.20210637677031
0.206035657766255
0.2102382729604
0.211308984597877
0.215217581306654
0.217794956991345
0.217542725227633
0.219469232320172
0.219665192862225
0.221420716793285
0.220305854999384
0.218805021677735
0.22049127350344
0.219867222176587
0.221074912572174
0.222174931084123
0.223615984946777
0.223265839158904
0.225515989080255
0.227611100908145
0.225959348573127
0.227114772638215
0.230638396216385
0.230333526891967
0.231999251641789
0.233083522786702
0.236685125209093
0.239698566421415
0.241588044219044
0.245098937215121
0.246040301373467
0.2467136905032
0.251296399919882
0.255855637598931
0.260781633752986
0.263907692109513
0.269399379509944
0.272482703719508
0.277262882240972
0.282607462235635
0.283708427833992
0.286164334575587
0.292588821655847
0.293991138298728
0.294656386680104
0.294427928515916
0.296739259891392
0.296537603459085
0.298625351725494
0.300625650432476
0.298965726870304
0.294830486060054
0.29081825269391
0.291066926463511
0.292278883727181
0.293509108801515
0.296735719768961
0.29462112276587
0.296871233359693
0.302783016548659
0.303757919799845
0.308873934216039
0.313265575851037
0.321876570474631
0.329183849672241
0.334941760331771
0.342415128948554
0.347322676664231
0.353371966493412
0.358048715308892
0.368726343706419
0.373948290969201
0.37580779445584
0.382673315936509
0.39054396000879
0.395257291139618
0.402066650789885
0.409500300992301
0.418840961020755
0.423301182179584
0.432944739516564
0.444640043812687
0.447113235520923
0.456154215598359
0.466386231252999
0.471310317313827
0.478376694339779
0.478679513427146
0.488086665464079
0.492790433637206
0.501303545217569
0.50391062856116
0.500748749881533
0.503617815708847
0.508606167448318
0.510484280541088
0.510928773300845
0.50471025661794
0.505073147766208
0.502037110262954
0.497579812279121
0.496170317251455
0.492461888838763
0.490629346452979
0.482240720896291
0.481232499680588
0.480821834747614
0.480035456978714
0.480384951797791
0.471265825865962
0.475203649378833
0.482058549612441
0.487129559958479
0.489285252558685
0.485018585225546
0.494691921389088
0.500137688483823
0.50054667392535
0.502029792368681
0.510258755834813
0.517117308163173
0.513852110185683
0.519567612852802
0.520819892392708
0.522803094626243
0.526390361568401
0.531694571778712
0.531678958215089
0.527812313433051
0.524871731809866
0.522653954848883
0.522110452506319
0.51935434915377
0.51490615130305
0.518230777875144
0.519145300171554
0.509773310402147
0.511613630135848
0.510081327100597
0.501619294349985
0.498080688726202
0.494113887536459
0.490524140228203
0.483571524770906
0.480195148285835
0.47323067954412
0.462507834402601
0.457620462150893
0.450515748868288
0.438453543443537
0.435856357622422
0.429760157082224
0.409223943880394
0.391740609166223
0.384611769694253
0.373774517711463
0.360253267968335
0.340484642946966
0.319569359056995
0.308462971834329
0.291859393861772
0.274479038991886
0.256640610026833
0.243066073791107
0.22839113815549
0.216808534513525
0.207235847728368
0.198537922898996
0.195290647850257
0.190161250085095
0.185306610218096
0.183257354990314
0.180118629613119
0.17635272368946
0.176414812131551
0.17151105393839
0.166161334589119
0.162541288764848
0.162008250246119
0.157419218121013
0.153289998308914
0.150792366713821
0.145129320777925
0.143118987162905
0.137964003804532
0.134429188405825
0.126221088760566
0.119545944647933
0.114666235765568
0.107859888486682
0.104419676560564
0.0986153537855942
0.0909458270928046
0.0855089178170912
0.0796582188545852
0.0748356969629376
0.0727198052627812
0.0653197083003652
0.0571253620753949
0.058737292016562
0.0542953727509608
0.0498157346986489
0.0460361656235803
0.0471944040923232
0.0460975805116752
0.0405035893941655
0.0397358328513345
0.0363779022823057
0.034739851066061
0.0362534322433441
0.0367863908906802
0.0339908535688574
0.0346207714751924
0.0324880772413574
0.0332547893264818
0.0317350766920231
0.0336706383803469
0.0338970904937843
0.032876864159378
0.0355790694087326
0.0361877071701724
0.0353720495125152
0.0334052037367969
0.0347172290876262
0.0384206420882885
0.0374479370594767
0.0395926733724829
0.0415757672014052
0.0418954544844927
0.0378179831440275
0.0381677140600571
0.0395468847443625
0.0386351874710215
0.0389233443677762
0.0349072408252017
0.0378528870309413
0.0357579473399558
0.0380566431664159
0.035601709690411
0.0340602013027826
0.0318514527477065
0.032420270453448
0.0344363120547362
0.0330174964345503
0.0354452840386107
0.0360254619094
0.0386076788657648
0.0361519654131283
0.0400418496564425
0.0396706137842355
0.0374126927126168
0.0387363120278113
0.042654397536026
0.0394826451734819
0.0390735008988785
0.0429442689334234
0.0464098910816884
0.0488625630937847
0.0455983050125272
0.0460667852868324
0.0464944836001551
0.0467220505948952
0.0537448178298045
0.0478040536933292
0.0457582925961068
0.0474129432932408
0.0491546813267658
0.0515154143536479
0.0505942193849912
0.051135510941049
0.0539496788313833
0.0521131212945229
0.0557121229141886
0.0598409526093618
0.0584610108437294
0.0589928958412287
0.0665831361769828
0.0652507843197518
0.0649675651383666
0.0726009491564536
0.0685442369686282
0.0752512339463138
0.0784988934778065
0.0751159313279918
0.0785658416454157
0.0842157059458724
0.0771982354127186
0.0806135038200388
0.0802321895720595
0.0784058461191297
0.0773755299917206
0.0721530553024987
0.0704115831373235
0.0700462774107949
0.0661009980289394
0.0620340195206041
0.0604955758990137
0.0666012093283508
0.0650662750244763
0.0621376629412687
0.0680503651241024
0.0666756623861585
0.0676846179824179
0.0656690111250967
0.0635104946969689
0.0636433241493323
0.0662181308586269
0.0633493446479476
0.0636091887883971
0.0613847071081684
0.0588479565510536
0.0612584086757946
0.0560939782478617
0.0562303097733214
0.0529402703184685
0.0533039181084661
0.0537762767293109
0.0512121739548514
0.0569068926267124
0.0530273843705905
0.043552824392235
0.049438459962297
0.0503331313535776
0.0492748213373135
0.0496646843068313
0.0509608319676712
0.0472661525570954
0.0465733853277272
0.0490546609353011
0.0468579957546799
0.0437814026603871
0.0479734446028427
0.0369348313076931
0.0375908209058874
0.0472957507927023
0.0424301295926204
0.0367071970625784
0.0395810294248333
0.043163451732471
0.0390958341076048
0.0410666904585126
0.0385178086062151
0.0395031006744025
0.0382996588709671
0.029932839052748
0.0367975538363847
0.0332630468170949
0.0319337803649294
0.0365564977843042
0.0341014997708348
0.0295146076633133
0.0275912788238799
0.0330354566590593
0.0306506841036922
0.0321549896398893
0.0423758404155224
0.0352734822647293
0.030294172983775
0.0266110096900582
0.0349153418430477
0.0364728444871389
0.0311266119577326
0.0430296826526681
0.0419532169414598
0.0368155622524116
0.0418306766201955
0.040567988487912
0.0367339583774846
0.036101653542519
0.0457685595026746
0.0409079698983197
0.0382834129470454
0.0353505065813934
0.0458566309136999
0.0487818742364548
0.0486617867824887
0.046563161024101
0.0472405038076188
0.045065064455349
0.0457855970843961
0.0559408000382749
0.0501566827772394
0.0432421983602382
0.0582718047104352
0.0539880275764149
0.0582790854033924
0.0692908740635019
0.0680501273858492
0.0673266395768718
0.0827026499468585
0.0761988529612342
0.0748484249382696
0.0756408206258597
0.088517785831403
0.0913422887465446
0.0837838800438429
0.0901424117481795
0.090682454140313
0.0828821956588239
0.0829530266869487
0.110128987637867
0.102672818111713
0.0967691163188053
0.0943748002338221
0.0980188093711712
0.0926346105551297
0.0950399939485925
0.0835749358467174
0.0863165475068059
0.0778471257900282
0.078919627482924
0.0818967568292397
0.0758493014956242
0.0684381821098741
0.0770964901180405
0.0871267698258319
0.0658106424382922
0.0804900674627527
0.104416919863133
0.0788685160465006
0.0808592966151601
0.0758333170284112
0.0740146761703794
0.0803875146183204
0.0685397051832672
0.0801162349172547
0.0821002787312656
0.071678167446191
0.0765957089975614
0.0667509093922263
0.0476385038968712
0.0747463979543576
0.0595737540753721
0.0629638075977483
0.0622825850680733
0.0534067725326321
0.0568978275435402
0.0544383613637755
0.0658834219117111
0.063789321992139
0.0662612609520444
0.0678261762668547
0.0630053687774953
0.0587777581860255
0.0702502882078763
0.0753613507600715
0.0773711439006901
0.0608987221252296
0.0802476351498559
0.0883835821084807
0.0733925131027098
0.0620134239704634
0.0638127552579811
0.0483586971291622
0.0620924464966722
0.0769490706854771
0.075041485117634
0.0893061601150819
0.0507323644082909
0.0665324212010007
0.071480634244277
0.0555494939235543
0.0711439079620403
0.0854930263163725
0.076966401782146
0.0362523078017609
0.0528885997052098
0.0699215048851417
0.102039268272316
0.098844595270925
0.0675846439156136
0.0754201467405953
0.0674334309498132
0.0825974732046464
0.0574830898235704
0.0677269336003486
0.098456622187609
0.103172699097537
0.106563993710881
0.0812026925753965
0.0707756377813445
0.0934135388083075
0.127006535062946
0.0962000130699225
0.140392092893045
0.111578989119335
0.0870586802408463
0.106089202609853
0.134159447998653
0.114880523357357
0.0708067164622962
0.110695872528186
0.100470074863311
0.117336298226002
0.0895930354150647
0.0752162924308505
0.106649611199362
0.0905183994816304
0.135676671077772
0.103611184012024
0.120605300414706
0.122619703993284
0.166378575298945
0.0890258577974969
0.122700035789652
0.126047349373727
0.0841265286274891
0.097907608857456
0.0911486477979841
0.1411245425934
0.0867476795349901
0.0708544982941265
0.090072029573597
0.110493221449409
0.0553290172051603
0.127596996257106
0.0971274063076873
0.123822159010201
0.135073717651319
0.0805526328827285
0.0945559227984862
0.0290107058313922
0.0723134683785385
0.0221371482034711
0.112337405369061
-0.00552808486883576
0.0366221704556701
0.0414655440694646
0.0461944909276616
0.112431528754602
0.0533051768369032
0.0518392450448441
0.0851778038455195
0.0386286797045466
0.100613161152146
0.0868992964047241
0.0597529446278589
0.17370922461394
-0.032783360269031
0.0196954196858324
0.121678362970822
-0.000899547276131184
-0.0892421980115998
0.204340689674134
0.348437959816524
0.0767785230149157
0.239730779397326
