3596
4000.36533379555
650.420452594757
1
2
2
0.0535988409360027
0.0477618512956098
0.0579770140851182
0.0415407896834519
0.0569546302623471
0.0401658902771224
0.0475835916024445
0.0440024346223117
0.0569714541686218
0.0387734978701847
0.0497988367167267
0.0406386824520377
0.0554427476233467
0.0384960861578721
0.0492576655255559
0.0406557793494459
0.0619097628695547
0.0398641628193929
0.0480128812306829
0.0406550218186536
0.0556514243792784
0.0382187508774469
0.0524174557566617
0.0415942822484976
0.0535386388008147
0.0452584806507158
0.0540422510447609
0.0337886566085072
0.04882513442773
0.0484918379946833
0.0462761569465635
0.0368526673819331
0.0548305977218637
0.045883540661108
0.0541796496530448
0.0433388802549853
0.0587198198204481
0.0382908714855785
0.0505140861656037
0.0527223318728648
0.0528146070257076
0.0393469177538027
0.0614453508757604
0.0426201971171928
0.0580255649581839
0.0434203169769041
0.0578153168378503
0.0408708513198683
0.0438042282048634
0.0429263240658181
0.0584755886402391
0.0438501463652797
0.064254210899586
0.0497477090084426
0.0624461601776448
0.0577951427995335
0.0647014202359007
0.0353725046451741
0.05659870790458
0.0355151531876187
0.0664123213078233
0.058384334784946
0.0556198305971719
0.0425637776743993
0.0542070550304835
0.0401346952086811
0.058973332752623
0.0403873923179424
0.0529268928330644
0.0429380818125706
0.0536477626255748
0.0569055322859592
0.0739100813178339
0.0478015066171488
0.0629686544968144
0.0409010477373843
0.0509329836984438
0.0404852963522368
0.0426922753991429
0.049090477610537
0.0757444976089361
0.0438187493287764
0.0549776453991675
0.0338708704906378
0.0623652176565418
0.0552721604551567
0.0474105787001158
0.037337003744346
0.0796155092949279
0.0535735192057356
0.0544944052118982
0.033803744122552
0.0544701404600985
0.0356514860232307
0.0619866636940314
0.036793869901895
0.046502111432158
0.0430241952854746
0.0452496457587965
0.0459362112404504
0.0697594424100656
0.0593397941069595
0.100181021382921
0.0352502749207531
0.11358802412117
0.0588775971791241
0.0636997943352756
0.0904919064318954
0.0725438082950449
0.0483905685681458
0.0513395946020731
0.046393458056847
0.0585251746890696
0.0509544284604213
0.0502640204884884
0.0683030438060735
0.0886262028143895
0.0534715930825959
0.0516188135554847
0.0384454372354969
0.0414076915094917
0.0525882890175361
0.105315231325174
0.0409971002519499
0.0761634783058216
0.0429752813536295
0.0458949869929902
0.0623562201775808
0.0905675341692712
0.0502772719192127
0.0466691700482227
0.0371062037760711
0.049626207473596
0.0345796716632419
0.0950697009403686
0.0508817781309888
0.060215972031166
0.0349385953041809
0.0791616469205288
0.0934740787547952
0.0759383734624883
0.0474335862222583
0.0422207215675241
0.0479491655088139
0.100550811603297
0.0506202264301713
0.0499126208843117
0.0602974798466711
0.0675305394860493
0.0377563667203131
0.0538199054997698
0.0361974828865929
0.0716086260128926
0.0463551818352896
0.0222132307506788
0.0532882797020994
0.131159026275172
0.0666675959632783
0.134435250378647
0.0522781225150396
0.0647245542528128
0.0443866593206658
0.0504449860428282
0.0358411248807005
0.0607127451624473
0.0315579747375642
0.0700668360461085
0.0705318055543381
0.0529911501137043
0.0586472701245447
0.0948723560842981
0.0489833497253234
0.0462921567811339
0.106225659704365
0.0739327147879264
0.0299978480919105
0.0869576253529165
0.0557226217728356
0.0466373497810452
0.0531845822509322
0.0914885055975264
0.0434548850350506
0.0572948182019854
0.0313986361307268
0.0551331998244966
0.0670926022091451
0.0672300411344488
0.0394208413743813
0.0582187355995395
0.0243169976188963
0.0698301090096138
0.0850985816110224
0.0926553844094561
0.045741790442509
0.0698025315770946
0.0152359997439124
0.0958643524165333
0.0841972338365294
0.0602232399257328
0.0382002682083817
0.0460304125172044
0.0339048417009057
0.0445081775244744
0.0368798328134422
0.042060504989608
0.0237826344537605
0.110302651866938
0.0552998390832272
0.053158474686835
0.032604526519637
0.0564580156185598
0.0301495657010834
0.108773673025402
0.0705937799149092
0.0614528189978728
0.0506120058149652
0.0456063607094077
0.0541822720071936
0.0787608636489035
0.0431803867391778
0.0503438382506746
0.035328659227045
0.0450085044590892
0.0397032491511109
0.0488361997280449
0.0375004782582275
0.0487985280372314
0.0414538290358958
0.0548598164015781
0.0383000887235491
0.0608631857590431
0.0447836817795871
0.0500255300309046
0.0396765698216977
0.0435870237080647
0.0463267508311753
0.0786676347715436
0.0387453943946008
0.0566947614458706
0.0300672136481969
0.0455939919589812
0.0292325916130713
0.0498706491085409
0.0449485089218364
0.0518992982157971
0.0272137971748198
0.098503460746445
0.0485414621602798
0.0530164992353818
0.0283332918089981
0.0795259469028026
0.0591954336425852
0.0500180893859327
0.0407728477022649
0.0510270352705752
0.026136478889039
0.0461537852531733
0.0742620155780821
0.0592328447210384
0.0392774471938643
0.0660730290035951
0.0517604920930415
0.0478583265603597
0.0395254330506308
0.0308809637036174
0.117222131554756
0.0736779971680028
0.0341557730462875
0.14013171887237
0.0604355431461267
0.0739453814544283
0.0499283966488648
0.0141672927584577
0.14740473623296
0.129645721501918
0.0427403633394344
0.054483909395765
0.0642212817287281
0.0512134091694845
0.0522032124735802
0.0608028357232942
0.0457173137807768
0.103294029953237
0.0909805188217032
0.121084829895965
0.0284714853267879
0.0860762928860514
0.0709929142361326
0.057484506414547
0.0461536472216701
0.052763615094359
0.0391656401980639
0.0767716754557758
0.0613434535600204
0.0708314557827516
0.0479872818323787
0.059005169436409
0.0739004193229176
0.0635385840577768
0.0450501829591694
0.0584827608347029
0.0589581655204328
0.0463030380526375
0.0457328621220805
0.0427890359189934
0.0524241418037858
0.0444419821987149
0.0214622887290537
0.116446836849889
0.0636867753991937
0.0537184866615468
0.0794460842744056
0.0518101079501907
0.039990158420041
0.0478928284562964
0.0418855322977739
0.0419719028278797
0.037077712240034
0.0360053211504221
0.069044815435135
0.0569625073541263
0.033132323276882
0.0458210647175109
0.0310566535284878
0.0511926899602157
0.040417701931209
0.0443597668380806
0.0363553569515961
0.0470509618580373
0.0272988872259963
0.0641734605701825
0.0778378871353448
0.0289960544105714
0.0669231360405198
0.0973108685020655
0.0381514185112846
0.0558673868925753
0.0305978369592874
0.0566077406526809
0.0400263768032507
0.0473856139710693
0.0340708250966169
0.0492575307444965
0.0493307696088309
0.063649391417805
0.0301425982371744
0.0581950163361555
0.101376953856843
0.137078947255553
0.0539872064025122
0.0624259628574407
0.0176065055077125
0.0756326283803569
0.0816620164269193
0.0649880434090375
0.0820410822441448
0.0443218842869654
0.0462067507614887
0.0440782140761859
0.0435969529351182
0.0395050390745498
0.0406179592915471
0.0503066728639842
0.0315926817888167
0.047371677158712
0.042683735702871
0.044027531375062
0.0389115083438488
0.0874270866451787
0.0536689459600644
0.041940502649207
0.0485838551101734
0.0385219816945925
0.0547371833017795
0.0804790401126418
0.0874073929649361
0.100161983892417
0.0469892231555188
0.118159577593652
0.0459255187088768
0.0631824506519894
0.0298558112853713
0.0461160451412612
0.0409878664141652
0.0592671665514231
0.0347793490232978
0.052636949536035
0.0402593689717259
0.0614700400042335
0.0326008683680826
0.0542970954137887
0.0207675926475209
0.0721941280641754
0.0434323262551667
0.0552909589268521
0.0337432071182287
0.0529945000517165
0.0815627169825376
0.10784453991899
0.0556122370028938
0.0550712617029961
0.0452486529092892
0.0404150485701752
0.0439863928344709
0.0460656127126351
0.0508682288193361
0.0523013686726573
0.0681090535971549
0.0762397900749764
0.0613588060696525
0.0852367791378296
0.0217551742270405
0.0801284089664829
0.0503790320992855
0.053708683550634
0.0700921570219464
0.0698426040376385
0.0287573261774046
0.0766424924536168
0.0678114025630152
0.0553791056928599
0.082068138256922
0.0484871168633824
0.046096308027825
0.0467442451339469
0.0500162514526315
0.0513344498714249
0.0483560468946384
0.0557696846932779
0.0432377815199844
0.0625417227494477
0.0392351250485016
0.0605466169185283
0.0594584721958845
0.0674897950811681
0.0360283354390292
0.0776066978763628
0.034763360036652
0.0697764976693968
0.0287792095905811
0.0684384163733663
0.0759538989306847
0.0657101701263468
0.0850138163496815
0.0573472254362101
0.0474735059177496
0.0573821474266419
0.0519067041947894
0.0516744801208684
0.0510156465486796
0.0665759313024706
0.0455893064767428
0.0506146405122279
0.0495030412947688
0.0533414081607546
0.0390328518002378
0.0564878917332796
0.0447021584588858
0.0600409926015471
0.0401910994131613
0.0665455416144978
0.0421628867756416
0.0893999698394482
0.0832767851305453
0.0859903015575196
0.0991954107097908
0.0656295564226
0.062401125876939
0.0667671324191153
0.0581511838368925
0.0618760818173711
0.0626618984474278
0.0692517265491181
0.0545383785577699
0.0671335714787581
0.0492063469963932
0.0631876951739088
0.0542013663341564
0.0656784114224348
0.0588439308466506
0.0716257015304394
0.0549666710853418
0.076403071593503
0.0558388206970624
0.0707077469922097
0.0796383380376693
0.0896005717410979
0.0790483683170849
0.0782753596601651
0.0685797406306359
0.0778002447862989
0.0573275710668722
0.0762957333099036
0.0481249117286486
0.0711555608717435
0.0702127975468388
0.0780378389650997
0.068153774778647
0.0822806517885048
0.0590811602745276
0.0846000589193088
0.0542062204802122
0.0833877263234377
0.0615083466564038
0.077318565122458
0.0708395569081787
0.0882468792256572
0.0720670404840675
0.0960489786619119
0.0663048386374272
0.0857002193460331
0.0782413001349199
0.0909001283596343
0.0657885714493857
0.0864931821899831
0.0769324825279449
0.0945235107649316
0.0699937279256523
0.0708900118460506
0.068868314993491
0.0915577184674684
0.0709239694280706
0.0888043533796996
0.076273149434857
0.0930895885237875
0.0786891480738326
0.100607056258153
0.0725812751363323
0.0900496501608983
0.0673307495309801
0.0985761636045786
0.0812716029159835
0.105715617814968
0.0836690084129392
0.0984435675147356
0.0800107889097339
0.0932321246510201
0.0798969901720008
0.0980361488595037
0.0820844823242181
0.0991550882875857
0.0937738368031845
0.103323530788315
0.0843936277271623
0.0981667525244784
0.0825635599386744
0.106401303966086
0.086214396560168
0.109225408403765
0.0913686617800026
0.110018402783843
0.0906667863550492
0.107587273702864
0.0848291196245308
0.10853259009832
0.0966660034829294
0.101763369119116
0.0911290793442608
0.106052991815597
0.0966514370560197
0.108042879375563
0.0873214897649999
0.102713094025925
0.0935218480427988
0.107254933833091
0.100275315259599
0.102795571503949
0.0914619305451227
0.117726594441663
0.0928694592437759
0.10980569739717
0.101839040242484
0.117083835746965
0.111181241537158
0.118640757273614
0.097396003314173
0.128463702334187
0.0970717482003765
0.117153670313952
0.0937420097694586
0.123795316715958
0.106633538294104
0.112828623424437
0.107221637264371
0.123372991110478
0.103126178662385
0.122178627322494
0.103642889811221
0.115822781316394
0.0989173959552583
0.118474787870761
0.106825365429203
0.126602898068096
0.116680808856982
0.117548953257698
0.114539967262413
0.120241283552203
0.118593198896023
0.132212348888937
0.105756255532494
0.120313443503179
0.106290552901193
0.139612741155608
0.107099098565619
0.122066919388935
0.118672384122419
0.131097213140815
0.111518799308327
0.135017323538579
0.118251851664983
0.127512664590602
0.117326620873343
0.135040714294721
0.123931671384527
0.141736469415237
0.115919604690992
0.143047884555991
0.131110905803635
0.136101929052676
0.109603200377768
0.135280245567351
0.115880684504081
0.13817451607587
0.113788924350068
0.124559972886397
0.123487498612431
0.13121769442576
0.111480660369904
0.134233964617411
0.112122807495628
0.128335070158396
0.114526958429343
0.138477072015831
0.127458199935494
0.144763945479238
0.121385857575115
0.132530539134601
0.122993247731324
0.131973829744277
0.116991898967009
0.136106158032535
0.119306455451058
0.133999341531706
0.11943012044312
0.136155679274092
0.122047781680385
0.145701009369989
0.127974925323287
0.131794954586417
0.124705668169766
0.138627825846238
0.133415519430545
0.140290283663384
0.123510125049513
0.138364350641031
0.124285598482932
0.134338152729876
0.119523272473225
0.13196231073637
0.123067840882029
0.137107152081858
0.126196241833689
0.132795520989816
0.126354466444424
0.147509351143421
0.122177192896904
0.135037699361461
0.126653754652151
0.141175461883929
0.122367037404303
0.133089982477687
0.123056928752248
0.137123751722181
0.124237213983145
0.138040731751292
0.120074922060453
0.136528812677289
0.131322953490839
0.133320806599187
0.127547103445095
0.132664856643087
0.127953630979271
0.142677662885907
0.133994212897166
0.139798777088769
0.124296687505881
0.135431711058488
0.124408021464768
0.132967089044937
0.121987343080456
0.132176694983847
0.118389968244299
0.136567506668763
0.12395387783219
0.128631127664502
0.118166975302849
0.134970863990771
0.1261746878629
0.138735212611485
0.123255113029562
0.128964591172424
0.122839036423277
0.139245101005829
0.127187857058336
0.130973801570381
0.128033737068055
0.141738883793086
0.123689019857502
0.132437889995113
0.116388747107737
0.137927970944237
0.119647844240052
0.130098178605426
0.123407273343603
0.129235371686027
0.12275922589522
0.136808031344143
0.121397507784959
0.132610950759049
0.12258180261311
0.126314341006528
0.124291217793863
0.133567071256399
0.115712936228293
0.120973098118175
0.113694332658896
0.130411170924894
0.115046297147854
0.121449879616379
0.126528164290982
0.131026216159753
0.120253864448433
0.129910476941471
0.122132116708273
0.121402158947406
0.11234280968571
0.119915876856812
0.111519431502077
0.117557288325306
0.118750767009227
0.120701341607971
0.108560851770981
0.121784954101265
0.108899923613571
0.127392831948006
0.111759649140682
0.113734474960818
0.108373968559915
0.117738833733942
0.113063303823798
0.120079270552602
0.109206082050554
0.118358339031279
0.106253055173339
0.119905325932907
0.109141720023857
0.114234953206618
0.108702748011838
0.111088743936294
0.100557885422953
0.110504388881177
0.10027097046953
0.109550977698005
0.1046406581713
0.109577131763904
0.102736425892271
0.113491162676811
0.0942502274129034
0.112477543427232
0.0970231760146213
0.109436905404908
0.103286632055135
0.11124657744587
0.10208278608329
0.101004682055533
0.0940687240486791
0.105173226356881
0.0900585802941506
0.104118107530552
0.0977730054447889
0.103663808652876
0.0942638930862865
0.101981375933691
0.0987797161695497
0.0998996878407126
0.0917118273058738
0.0986351814809123
0.0881434323218366
0.0988348949388471
0.0958949965789457
0.0986536627048682
0.0912287014804329
0.101331603540023
0.0906383742553818
0.0975391097559467
0.0902011544618515
0.0947078958874302
0.0892942891697411
0.0951135556427447
0.0843543566180889
0.093859004967272
0.0776328262554368
0.0968401644868714
0.0875778349469902
0.09221178960551
0.0852285679909788
0.0944613099340147
0.0848277351908045
0.0925098975793793
0.0864728912117604
0.088528348595044
0.078844253931744
0.0944679340593637
0.0871810926722379
0.0815158625388255
0.0780337446232299
0.0882578980671029
0.073307555942729
0.0865471437878782
0.0816589335169852
0.0847074729354722
0.0727645828400544
0.0861747319370086
0.076943756145838
0.0811526030555884
0.074136588207547
0.0830022116288532
0.0748437696386429
0.0865714060705737
0.0704514196772607
0.0772333700938309
0.0716799222767854
0.0795268812911033
0.0674924062308965
0.0790962765302432
0.0733573509148643
0.0790818853707417
0.0710140492434515
0.0731506091347774
0.0722982857372856
0.0729387133912225
0.070383860356317
0.0761855269238754
0.0681752753374773
0.0754472541035001
0.0719547561098987
0.0697660714352369
0.0630077578258987
0.0706806756257435
0.0614013937280775
0.0715905897287337
0.0653531083096895
0.0704595740564982
0.0558163406911978
0.0678961760661756
0.0645740562171579
0.0695436637658639
0.0623803310512453
0.0665252752270924
0.0617831985787594
0.063511317448848
0.0588173048301364
0.0679254732847838
0.057963050752623
0.0642344340686075
0.0563000893015556
0.062847229181224
0.0512869752786412
0.0615666089737875
0.0574007664685563
0.0651712711273122
0.0550135600355655
0.0593321494748276
0.0594063217477164
0.0609404915944132
0.0511344866466795
0.0592306673562629
0.0536706769868705
0.0573913111073337
0.0522637792669688
0.0575531454325359
0.0490262818308529
0.0585536982960343
0.0530969510220227
0.0561947165534885
0.0475915574460752
0.0539459009130938
0.0450621664075749
0.0513821139064805
0.0497834009068475
0.0527839820604762
0.0446003077340532
0.051496027820642
0.0452754819467264
0.0537970982941391
0.0401041513628175
0.0523058843034642
0.0493905540470779
0.0528472292904902
0.0466680380309169
0.0518510517023247
0.0482832183719328
0.0550874838859676
0.043439136281146
0.0489143051052548
0.0417773796524788
0.0457335352876564
0.0437649780418406
0.0474540139333424
0.0438249114995991
0.0452587248850412
0.0373770809894634
0.0451968651398831
0.0434099670033022
0.0408456534510255
0.0398994396577157
0.0383073090948439
0.0388481296036998
0.0483642190144637
0.0383526950838788
0.0404684886672419
0.0383286017686216
0.0410235025804029
0.0365684715720253
0.0435709665460979
0.0396484419192368
0.0427224945452157
0.0348639668147125
0.0370498454355944
0.0346258576646465
0.0460474568907486
0.0330923059631848
0.0421050111469451
0.0324918754665721
0.0378495515438767
0.0302020472335734
0.0373115978630127
0.0294682742330495
0.0388576511466887
0.033820272651486
0.0365871051126618
0.0338184411950454
0.0351203455207562
0.0315266717896025
0.0364461573726108
0.0324863730163302
0.0372912986641918
0.0271102337285176
0.0344688110899719
0.0282038507799958
0.0349728215148841
0.0263455027231629
0.0346261518040529
0.034839792724104
0.0362798032202445
0.0330923960923192
0.0370096123039556
0.0287494486843656
0.039015840982717
0.0292933290754682
0.0399249589565603
0.0303826092942359
0.0311072537585835
0.0321841442714246
0.0342665820631707
0.0294516395324133
0.0400746452108403
0.0306486060359431
0.0351038535157948
0.0300654056427378
0.0323062631566839
0.0260217605832516
0.0286316561997562
0.0285883360571558
0.0310489993387271
0.0266334641563242
0.0339068689973811
0.0265681638991717
0.0261068224102417
0.0271412481202768
0.0299194521848823
0.0245921563825257
0.0260152851596567
0.0262218280115112
0.0303952179255905
0.0239264301451484
0.0288485635166094
0.0279077724385491
0.0316442211458694
0.0272418607294019
0.0372747103666444
0.0290427982245425
0.0273199425373916
0.0266879255445937
0.0263302249284663
0.0210431085107151
0.0243055016915971
0.0228205265991631
0.0269414954453454
0.0217357906560519
0.0289987219018111
0.025929913213007
0.0228970754117821
0.0214554822236599
0.0313354465388049
0.0273098413056093
0.0221317720132662
0.022804564900516
0.0319685846228561
0.0245806824368754
0.0274424671293428
0.0257315922482006
0.0297139099702179
0.0250945536400977
0.0297785259620675
0.0273371765061404
0.0231150812928658
0.0209927881526305
0.021643518521729
0.0222928250304593
0.0261994062262818
0.024472789239874
0.0296725798246639
0.0239850368957813
0.0209402028868409
0.0196909537346314
0.02738760799134
0.0219261586920189
0.024731237736422
0.0224250240676333
0.0291865198775228
0.023383642227488
0.0289985772681333
0.0214969586408276
0.025151237376544
0.0183989838530003
0.0239347290246953
0.0192750362317219
0.0245072053857491
0.0220128155128475
0.020032894190895
0.018238803099397
0.0249344426144574
0.0233889415189104
0.0227893540247657
0.0200497608363459
0.021980680887021
0.0225766778519698
0.0218521947275457
0.0158258383306207
0.0271943967006913
0.0228414614275496
0.0216973425259133
0.0215615740638945
0.0226082197521768
0.0209750418492846
0.0240842226909385
0.0210085562489429
0.0229744690192242
0.0242786000169004
0.0224980636090212
0.0194380313313303
0.026541297881097
0.0243530772479999
0.020666476608944
0.0202988926246092
0.0262595022142516
0.0259936039387614
0.0236263766435642
0.018510310371017
0.027689867151634
0.0201562741160416
0.0223666419124522
0.0206374563983695
0.0228616720951114
0.019715576491273
0.0248642445869165
0.0217081859277736
0.0234140200027464
0.0207376221929018
0.0271527985065494
0.0244002058039141
0.0286645396555756
0.023921694689947
0.0254485971910193
0.0251032438091965
0.0224800262881025
0.0188553649805271
0.0228632279943067
0.0213855326485233
0.0277991943055409
0.0259768501328476
0.0253221294022208
0.0230688608381444
0.0226262989766213
0.0225134462094471
0.0261036877517514
0.0236442167244049
0.0266066599179867
0.0210952911765532
0.0243560331675074
0.0221963749883181
0.0283153816811712
0.0251128869443063
0.0245520414222146
0.0227725802099091
0.023371498727539
0.0205527966428454
0.0255459655258927
0.0194707861839333
0.0255471245313708
0.0240976359008187
0.0271267458266532
0.0226151509432223
0.0283103370033176
0.0194562111080987
0.0261245673494312
0.0243624313019721
0.0241937017123958
0.0210193724983786
0.0276448495956372
0.0272151402370707
0.0271411245992311
0.0222061234486775
0.0270182055733892
0.0241863621802133
0.0270412037207013
0.0223025769516916
0.0258847153723
0.024991791843382
0.0307588811744183
0.0282891629241871
0.0312500247189277
0.0270416243680901
0.0308841371343425
0.0302105075287859
0.0304971444659104
0.0265078676658292
0.0302673234800842
0.034214716468701
0.0286791180626729
0.0250082721089082
0.0328750402738947
0.0315801849110975
0.0289646059675683
0.0303071103527432
0.0322696994757315
0.0310497127414379
0.0302335512987298
0.0293451388993218
0.0323435183676668
0.0228919037700372
0.0305243908586828
0.0273190377309863
0.0302442435437154
0.0274503241128911
0.0250583332625144
0.0276576216026266
0.0304764019446139
0.0265856670397891
0.0257779873511392
0.0274995723525765
0.0315367485655543
0.0261392906797626
0.0297804966317075
0.0275994984741028
0.0304285611390748
0.0264699161677748
0.0250284400145384
0.0254307085291633
0.0299823289537166
0.0255539136527412
0.0288175873568111
0.0276703059304961
0.0257264258129251
0.0260862321098817
0.0261865381907894
0.024224622626702
0.0311985673556227
0.0240326153184709
0.0269874398839966
0.0269562629323174
0.0303885346003359
0.0286247032686423
0.0276656013441532
0.0288683876142732
0.0278665662359952
0.0277889612505121
0.0303257376178659
0.0260467496709778
0.0237633390675933
0.0235582560372465
0.0290693440952776
0.0306211472854518
0.0295229441638764
0.0265570038250393
0.0301290201804278
0.028201013055437
0.0289746316075147
0.029708055958835
0.0334450680378759
0.0251570681343245
0.0268844882922869
0.0281749686737213
0.0315943874354064
0.0284986693538167
0.0273916324625823
0.021755686041479
0.0281230630555883
0.0255889080504265
0.0306710251941297
0.0274446908069509
0.0252975297224283
0.0239550206987925
0.0248842435139082
0.0254152241613746
0.0225123920912202
0.0210901882058964
0.0251013820679614
0.0228830555711247
0.0281792801323883
0.0229552196323644
0.0217777713770692
0.0203240854775063
0.0245375702073131
0.0217235172019259
0.0222292669633803
0.0222592302996966
0.0207304050254061
0.0191906156071268
0.0231583415338688
0.0236119749344604
0.0211505358876743
0.0195000769884855
0.0195497176610614
0.0195258826252808
0.0154443306291882
0.0200469599649247
0.0204444775558926
0.0176865774291985
0.0178342279388066
0.0236448597087743
0.02050755010898
0.0160816247624113
0.0203941620372601
0.0200718885120306
0.0180471099650571
0.0210605486259247
0.020303036805699
0.0203431214625743
0.0196285846899579
0.0170498180016232
0.0194766664850874
0.0194739897640721
0.0199121444809012
0.0197181429136157
0.0205938237748971
0.01892294803975
0.0170158411422363
0.0210405722436974
0.0222968609863355
0.0198579679205848
0.0169587531945431
0.0174127173198413
0.0181374125796548
0.0183905267165148
0.018308921205441
0.0204882499425155
0.018690838446113
0.0150293520442109
0.0153687975577633
0.0195119365547485
0.0188903355765179
0.0148872911247952
0.0189859931956595
0.0193018480250113
0.0151476630405991
0.0130678031911642
0.0187771300041431
0.01970753295278
0.0180293026573461
0.0177320163737879
0.0195853024126916
0.0186278578449802
0.0176771451812005
0.0200831615810669
0.0175373740449339
0.0127376873511012
0.0177527496197328
0.0142151749590662
0.0149150776771492
0.0146149923074596
0.0205143574625117
0.0187118841116015
0.0157208974743832
0.0146575330085056
0.0144000446689403
0.0170336066489951
0.01918714926549
0.0167882137048751
0.0181170353836302
0.0168214911997382
0.0150238500931163
0.0153662188225946
0.0124806853170873
0.0170620403361483
0.0162510830753322
0.0185568491950037
0.0165453287028434
0.0155397148412983
0.0188763242963991
0.0174514384576259
0.0157598323515923
0.0147403566962213
0.020129221721217
0.0196288781349007
0.0172137530039849
0.0180152565965944
0.015380763652133
0.0159872625667164
0.0169487920314401
0.0178404222525611
0.0172039346135595
0.0165319007681416
0.0191491136886288
0.01518410287357
0.0128902337455621
0.0196987122008532
0.017184958367291
0.0169950215184463
0.0201261197977422
0.0176764313847074
0.0209133822094992
0.0132819333102755
0.0184483598486638
0.0156932114279727
0.0160609392648081
0.015704602332429
0.0178569166815024
0.0164661185554496
0.0209472510232945
0.0158463780260511
0.0130350385590455
0.0147660818360953
0.0165078636821633
0.0138250045548104
0.0170680244079189
0.0141383493497013
0.019042130025675
0.0144333735930701
0.0162861883606756
0.0133867216712164
0.014106663774428
0.0145072808557025
0.0140162286645063
0.0163317550708851
0.0137438300035988
0.013382086568018
0.0149061722065991
0.0146113378151171
0.0163960615453347
0.015826570736513
0.0161556145632726
0.0139733008467866
0.0156543670483961
0.0176734549420937
0.0175522467637225
0.0148728311387568
0.0172389813058639
0.0152748140767929
0.0140403426302922
0.0148396042204642
0.0165553633363585
0.018934023086667
0.0170828380047939
0.0201946753699941
0.0218761681048144
0.0167294511528433
0.0188635937444778
0.0160323242175982
0.0180940490034649
0.0185949432038852
0.0180636486315182
0.0217599001687372
0.0167485627721334
0.0159250508718994
0.015451420210012
0.0167074282819532
0.0172375664468216
0.0180569706105694
0.0153608029801592
0.0139533404170704
0.018891352201925
0.0160270997272058
0.0187436666120831
0.0189965675601817
0.0148502005839218
0.0162641684003712
0.0186179071660536
0.0146746108484204
0.0144699035707948
0.0115037733173732
0.0124015955941503
0.0145912033654823
0.0137767209556079
0.012851652475658
0.0142971948403036
0.014939979175227
0.0140643745849549
0.0129460097902081
0.0138759872742754
0.0142093268896865
0.0141116146523031
0.0130192377579409
0.015923908564573
0.0150827131703116
0.0127984487520291
0.0126384240399164
0.0148692541376025
0.014695342885403
0.0147410270384601
0.0115239438614834
0.0135728245023232
0.0148493615528747
0.0117195388475401
0.0148678690772112
0.0126823743066107
0.0138573951464517
0.0134229976174975
0.0132760038187627
0.0173252913154404
0.0172811473018804
0.0148168292280582
0.0129663327682068
0.0167770558772295
0.0171054784802431
0.0162663553577807
0.0170798337036189
0.0169646575628173
0.0167029959922026
0.0186833362547514
0.0165258537520633
0.0159749074581325
0.0174785409815427
0.0154948414475848
0.0175453123566776
0.01910984816254
0.016928587184002
0.0154469680586591
0.0146929612740588
0.013684747372405
0.0152323342521325
0.0132413346349185
0.011626371220118
0.0163084152951186
0.0159177963964839
0.0162524528427585
0.0141590652728831
0.0154078356657373
0.016485932880492
0.0140645973046971
0.0120778641574127
0.0131747446089271
0.0139071628153362
0.0138063387637053
0.0131705230589728
0.0118014216550121
0.0138227419300742
0.0124698347150227
0.0151714374231046
0.0150180287100537
0.0134032003231611
0.0125462824318602
0.0144740317195725
0.0128721635089875
0.0118955134184992
0.011423610809083
0.0140349941152485
0.0108614259538946
0.0118519478735852
0.0159508082556532
0.014931874989546
0.0135410940533738
0.0138154409503151
0.014294958826439
0.0134176468542313
0.00935770382874479
0.0148906447847578
0.0152405922690474
0.0131858238154281
0.0157382627926864
0.0160454763968244
0.0145753014527236
0.0138237844773185
0.013146009558275
0.0158883990750584
0.0119034603748288
0.0153009888476015
0.0138890682003777
0.0132299534825772
0.0143391222349194
0.013867984193069
0.0126585295580081
0.0151150286919632
0.0160923550911162
0.0163823339343203
0.0133033414512761
0.0129865191779856
0.0123498633808823
0.0137704996971956
0.0141091389156424
0.0154581802982589
0.0158786060585241
0.0147545885282158
0.0169600298719798
0.016129190821505
0.0126522962801341
0.0128631640138438
0.012511905484465
0.0146132380062882
0.0114011982576618
0.012008729985827
0.0118306791540078
0.0122693942721713
0.0113739176935935
0.0130737216261655
0.0110882283216925
0.0117929723770334
0.0105683165625482
0.0104778181543062
0.0134143273560331
0.00999215720391185
0.0114369617159907
0.0133470281788059
0.0133909103011261
0.0139901322636767
0.0121443304129773
0.0130539949441911
0.0120208479289314
0.0128614900581278
0.0140094278192733
0.0150931633134139
0.0127350788175322
0.0141624564974925
0.0107085774808215
0.0123960383719057
0.0139470615185623
0.0139585142883651
0.0133727944076911
0.0149812486100184
0.0153155956759377
0.0131873623047405
0.0128542768874377
0.018593306985589
0.0154639467562107
0.011395626701739
0.0143193700711123
0.0138724340086956
0.0127661915289434
0.0116730876715571
0.0135022937103883
0.0134541429939607
0.0125959953264241
0.0149838662275716
0.0145860295911447
0.0136221570443784
0.0144049102619977
0.0152738155688334
0.0145566818121021
0.0153919676723664
0.0118276832045714
0.0140000908618258
0.0163956525623433
0.0154751471606592
0.0149337765254974
0.0143683437030319
0.0121004977477248
0.011194974247973
0.0114265007990139
0.0133724879990238
0.0124147554959306
0.0138568206743907
0.0128207122236212
0.0109581393982688
0.0128409972217372
0.0144840053687548
0.012436503882169
0.0130378969803317
0.0111422114401813
0.0134557824210772
0.0119881146226007
0.012365394000865
0.0122232281692705
0.0135111755822083
0.0119300790337625
0.0128744548660978
0.0099957003018252
0.0108293428784114
0.0140097051555785
0.0143105038885703
0.0125943183381708
0.0105784542224717
0.00974572065417846
0.0124251164795114
0.0106683260038428
0.0120901931683531
0.0114536191546595
0.0123459051436586
0.0129496660364979
0.0122039041902278
0.0122280046883019
0.0135327771220643
0.0120510739491588
0.0140958882885145
0.0140381945987798
0.0173753807673462
0.0152033266613926
0.0119271755169343
0.0116278521188815
0.0140335355101281
0.0132035719113036
0.0148189643463763
0.012848587800487
0.0161150959982207
0.012714603014845
0.0135117459689725
0.0136262033972845
0.014345089058661
0.0115443359335534
0.0144580465435031
0.0137896885126066
0.0164238333141117
0.0127352141727914
0.0150402542164629
0.0147806651642126
0.0127581290003353
0.0118517610044308
0.0142243557534783
0.0123005550330734
0.0142352833743621
0.0118358043327769
0.0110611923248459
0.00991250460436753
0.0143588756831205
0.0105024536531727
0.0101833826447053
0.00934546118369946
0.0134936023317509
0.00986024649338424
0.00971821889050205
0.0127029125902053
0.0145444614074311
0.00938824018865652
0.0149564497476956
0.0121187834840314
0.0109644317956237
0.00980708603720384
0.0125556378337971
0.0103196615336915
0.0125470380511552
0.011255584268158
0.0115969204449552
0.0101535909389411
0.0119324229865572
0.0116481579090495
0.0122642292880419
0.0118795819212362
0.0125108870065798
0.0131504934390348
0.0139545834738083
0.010454396959281
0.0131159086828712
0.0103082311970343
0.0144567404912478
0.0138950894404394
0.0139274996398477
0.0126873557515237
0.0121296782557165
0.0118340617064661
0.01330817501556
0.0126560565389587
0.0159268758151104
0.0133248412419647
0.0143029236466642
0.0130877088321761
0.0151398128893852
0.0113342156423436
0.0134554944171483
0.0128147114377187
0.0127107610832588
0.012963414810383
0.0160458506398869
0.0132065006881956
0.0119154241541667
0.0133110556898502
0.0150166358526001
0.0143926120445107
0.0116182341175397
0.011444219454268
0.012575002532205
0.00982999062949707
0.0125456006248884
0.00954821239983716
0.0117518053581724
0.0112605998272908
0.0128575626193737
0.0121029930146327
0.0117893267752583
0.00993694129613864
0.0117867606627767
0.00884305535527458
0.0135813672195941
0.0109801431339701
0.0122913795484016
0.00889142653027316
0.0115594522173429
0.0115790113105225
0.011546811245023
0.0113831367989529
0.0135969026670781
0.0114791174257132
0.0101819136610425
0.00991617759384083
0.0120623869443727
0.0114721679420289
0.0146997872886222
0.0110262769047183
0.0121426745951966
0.00993845517825549
0.013990798214353
0.0108506434793561
0.0137769975548304
0.0115997760857959
0.0124463207628539
0.00897962712603612
0.0136532468634549
0.0112447200918068
0.015010825252813
0.0100828599906367
0.015540943501
0.0107224818913623
0.0140166825229264
0.00849640409759789
0.0114594109208182
0.00993063887099152
0.00891547823098938
0.00605341305444484
0.00534945579186493
0.00306202174786076
0.00758960191133848
0.00743448753451031
0.0126148300184297
0.00151990097088721
0.00648943168912917
-0.000466657495228343
0.00750945470786969
0.00349597756424611
0.00576674570920708
-0.00133952734419266
0.00670304492772051
-0.00227350803342338
0.00407958333749414
-0.000394180324778733
0.00641603645780858
-0.00292127589466294
0.00712124766071626
-0.00381737304080727
0.00477534113399076
0.00460599943689656
0.0131330487947607
0.00914838783804587
0.0160949906374087
0.00330152143950172
0.00799466702309742
-0.00134414517489991
0.00711623257129522
-0.00168687402082731
0.00933946583128438
-0.00642265828906775
0.00830629330374096
-0.00408243889310947
0.0101390131917562
-0.00586711151964955
0.0132486551245451
-0.00787538598668375
0.0139676846447632
-0.010186043961831
0.0172508494973285
-0.00515871184375867
0.0219519278291949
-0.0105875793621598
0.0162221060531151
-0.013035014563122
0.0258217349225622
-0.00790547822042355
0.0310663279038123
-0.013771956174815
0.0235594656477746
-0.00621754943846602
0.0375604355313509
-0.00874567901687672
0.0234862497487243
0.000153420445616704
0.0278797152270834
0.00208134440606729
0.0135921292403624
0.015915385679284
0.0117603878464919
0.0145340183120871
0.00570867004785404
0.0241781948125853
0.00209044876453584
0.0253853623940353
0.0014289420372161
0.0202448775394272
0.00844058625197261
0.0152594412265571
0.00975809954284286
0.0120708493237697
0.0142419531211034
0.0114570738584598
0.0146072089858644
0.00963555844729023
0.0104007553531288
0.0136398725038402
0.00891262677407589
0.0139767565628682
0.00868603558581919
0.0123536696801451
0.0103670714814328
0.00964280202441975
0.00951963428848284
0.0103163717554721
0.00902694008118717
0.010473421218346
0.00861276321546321
0.00997882307231621
0.00968771215854853
0.0122056358452072
0.0111684149210919
0.0106779467004129
0.0119098226303882
0.00982971769730216
0.00790099208087766
0.00872316367196691
0.0111076185523543
0.0122600365970477
0.00989253495699062
0.00942459920543844
0.00829892645502014
0.00904172131799124
0.00883707915494404
0.00957110882135884
0.0107520195839591
0.00832335280869207
0.0105271643108795
0.0117651326957985
0.0109335909615513
0.0102135822702424
0.0080464218066539
0.0087046085589251
0.00876364885683343
0.0112065189699833
0.0113684408106611
0.0108931107136582
0.0114221268421505
0.0108795679867026
0.0102337036005292
0.00903949820546435
0.0104291973722573
0.0108809262088938
0.00849522700445425
0.0120685861467177
0.0138944150678088
0.00932927268732179
0.0104070310793519
0.010530659330612
0.00977583708093949
0.00753007640053174
0.00867422015795928
0.00978641178139541
0.00918137299724412
0.00953988205060764
0.0109475168725746
0.00977430886405521
0.00961456883699974
0.00745090876176313
0.00965102122398333
0.00888445751780735
0.00992820104041712
0.0106023227629065
0.00854419247268687
0.00792438010364021
0.00992696635165784
0.00885342068510154
0.00875550823052799
0.00679745610505021
0.00946184467987557
0.0104124878602067
0.00786212938463333
0.0100561877568319
0.00873168413161436
0.00872201892839452
0.0104256012026206
0.00815367891669275
0.00670890481264431
0.00639201076381966
0.0110694458246788
0.0113697565943326
0.00912874560125052
0.00959424461783633
0.0104474597829422
0.00805579003624122
0.00928812746052845
0.0106970684245954
0.0101808409304397
0.00812537987985138
0.011200892653788
0.0103161516134605
0.0109033265110913
0.0104694357322145
0.00997308244987468
0.00801593300456137
0.0108710589217166
0.0085092179115452
0.0111993329875541
0.00996446478676837
0.0127949836629681
0.0102550961131401
0.00836592074298071
0.00875491309224314
0.0100552435084497
0.00817939799633633
0.0088081967425813
0.00864132613997141
0.00990416695111596
0.00730282228764155
0.00948251625128295
0.00847206728720763
0.00860203202780853
0.0106593712346943
0.00970930783115798
0.00792359710414745
0.00855844688657885
0.0096497910819352
0.00937541560348013
0.00684220387643409
0.00792653291964346
0.00630423193900955
0.00799153637083114
0.00725169452324359
0.00829758975774206
0.00957366364254451
0.0101844815642448
0.0073781644318774
0.00767638293787714
0.00827802682593485
0.00854376249880403
0.00688253522429909
0.00893579952118386
0.00781087594467841
0.00900286403762041
0.00759514307948067
0.00863999161456484
0.00616858528997969
0.00795123605395322
0.00894766813418358
0.00967550130788457
0.00620168002175145
0.00822839823513919
0.0102687291885691
0.00926806186582174
0.00755618412930896
0.0106632973291128
0.00830080126974269
0.00735456925368079
0.00586014246590552
0.0107251745115926
0.00586791707033033
0.00818821725563857
0.0079739197410426
0.0088131584209035
0.00755790160743846
0.00937518274845355
0.00839881116013783
0.0099069464027575
0.00839109072095734
0.00847738609789091
0.00924786204433836
0.00849504090407728
0.00696674787202298
0.010748009180347
0.00734024993968399
0.00985944396186192
0.00759700750518812
0.00833990640463222
0.0074908383679866
0.00958323236330415
0.00746729396011549
0.00762451560444765
0.00869006100031871
0.0104291382939759
0.00554916974416702
0.00760679556041682
0.0084240903124022
0.00945704907624524
0.00647926992661388
0.00860601836496737
0.0070511441756972
0.00749551269839592
0.00490987708552586
0.00735999952133638
0.00818689808717539
0.00662578233117086
0.00615227383415641
0.00790499262631332
0.00598702771589484
0.00840815601180938
0.00651056514659739
0.00787237262750966
0.00603438652363156
0.00912845811161452
0.0066502957952198
0.00821375858399471
0.00738783289901002
0.00766923176070367
0.00655129597883504
0.00755761799904176
0.00844222808973235
0.00801573467607212
0.00865637805367142
0.010551619842644
0.0063786751211723
0.00777435118213045
0.00887138707701736
0.0100564565068635
0.00675778527015295
0.0087765629101114
0.00771088824266067
0.00710264098150074
0.00797150786913511
0.0097839334317169
0.00632758473570775
0.00845356002517738
0.00714322579935897
0.00721039218455207
0.00848641023639052
0.00902567096676272
0.00685029042828966
0.00995477724100569
0.00681032792707844
0.00842971492324678
0.00738182487283661
0.00771900244363223
0.00537920002726912
0.00773143187272297
0.00512562704265003
0.00927555525754073
0.00639088011383849
0.0070246632048661
0.00647332187122869
0.00766523757597239
0.00610160217848853
0.00666800734969387
0.00625211568352823
0.00728691383293733
0.00436608127265651
0.00912449834336367
0.00844957810369948
0.00565544867515432
0.00706308925314856
0.0081513675329816
0.00679491815967465
0.00637202635321672
0.00632662317583471
0.0103488117961837
0.0101818185697783
0.00798639066967501
0.00486353855133025
0.00956889268850556
0.00698207167982135
0.00954190244071587
0.00482073918910434
0.00676057825813748
0.00643402423185054
0.00658281280188922
0.00715949296232146
0.00856224856114817
0.00745149863412655
0.00804635204742557
0.00747284393929786
0.00776652427920382
0.00463801926229286
0.00772572586803945
0.00717921619980126
0.00816443674962087
0.00488060846829297
0.00683277973418903
0.00702583399021557
0.0091284112397678
0.00768407573231951
0.00829378031571066
0.00837646968790012
0.00753487274889163
0.00817970282108438
0.00747079555332938
0.00535227337498958
0.00787233171499486
0.00828136384788286
0.0088903351090582
0.00578582072617352
0.00850576455202417
0.00763311245220026
0.00832710581052478
0.00540016606423333
0.00829805765566926
0.00719679418603786
0.00709940578572648
0.0070284539076491
0.00850197801153423
0.0072795061111027
0.00835348254630983
0.00497170279371699
0.0081826560021384
0.00458718850453137
0.00660543603455508
0.0093410990230722
0.00717029967745963
0.0138417301160565
0.00808560866565359
0.00734743175450377
0.00608070429079504
0.00711897017730985
0.00821374158220453
0.00725148929096892
0.00430221437438119
0.00598142514215229
0.00591339255749139
0.00856508218076655
0.0081657195103325
0.0073622650884454
0.00780936417999799
0.00476991219962414
0.00614889962457401
0.00567815768650807
0.00552709772573414
0.00295180358763451
0.00857556844863371
0.00730062084971498
0.00531249516549005
0.0075173649978806
0.00728465636696521
0.00657032812138526
0.00516238933717882
0.0106050893554308
0.0171744675933682
0.00703959916559602
0.0103808314480529
0.00800466140805264
0.0117034161174149
0.00696247224550558
0.00958388213866932
0.00465480684633717
0.00662239068793352
0.00673042491994235
0.0106034579720267
0.00519099926855788
0.00689002890194985
0.00608368367178134
0.00924258498186316
0.00640405681095315
0.00822302212668289
0.00675572299648141
0.00780844314128101
0.00597145481744676
0.00804840275565937
0.00611849095409694
0.00693960390337191
0.00616825677880769
0.00777991277865507
0.00301341385954278
0.0159036092660761
0.0113375906977775
0.0103097892307945
0.00547803698661615
0.00782254015157041
0.00401536657619581
0.0086666280423148
0.00722571324851045
0.00677876597719117
0.00527804448150219
0.0108182301766001
0.00459577174389029
0.00699040408945322
0.00499585142460174
0.00788310634277811
0.00449573297019838
0.00950402067389604
0.00472240090268876
0.00848653308259471
0.00256150017309923
0.00709018200748091
0.00287075829471934
0.00873694441219033
0.00516691196850882
0.0131833078380926
0.00448350779789568
0.0128584091884654
0.0283983927528251
0.00831706417606583
0.0105255582962202
0.00456061122038672
0.00676647423170613
0.00429557855805356
0.00822571828833422
0.00476893396989818
0.00743582655306973
0.00517229114657009
0.00499191812152935
0.00453708173849377
0.0060140310980936
0.00638943509290405
0.00788009802745015
0.00490163833056034
0.00765589321056945
0.00539573296392646
0.010076384055451
0.00419036018150638
0.0116076291408558
0.0198826784055096
0.00979947778571583
0.009358757199242
0.0103442888952356
-0.00183565767110441
0.0365605390994301
0.0106258875660733
0.010842988952832
0.00633373130300617
0.00570504662122947
0.00491420699991144
0.00787314317171864
0.00574803366280438
0.00642179053820001
0.0145073863839828
0.0072785388648511
0.0146567596139828
0.00450477633481317
0.00898123388810157
0.00688444556337341
0.00686817448577538
0.00469401932305806
0.00803540107004599
0.00457541549277718
0.00506272880640071
0.005484154083799
0.00512916957183457
0.00745663617674771
0.00465068692155472
0.00926649725305031
0.0111033277601723
0.00614182252250859
0.00497319016227491
0.00932333049650457
0.0034790191221249
0.010206970261207
0.0318504102224993
0.00299861391551588
0.0127259711219272
0.00210402621401652
0.0102945459919314
0.00272323699636533
0.00981258975589898
0.00478692593454181
0.00848852505130381
0.00204580326898589
0.0109186456003267
0.00418208098823216
0.00515126070862468
0.00411689064246171
0.00742586260811162
0.00310171250616672
0.00554272661743576
0.00764437399124263
0.00586187477647298
0.00777372721842319
0.00540315109780205
0.0257812477620398
0.030045824696802
0.0168338566656335
0.0208919342327034
0.00913350105297544
0.00848859277875368
0.00510518837866648
0.00818220890332245
0.00206908624369052
0.0109967148874857
0.00409226278540384
0.00864366170069445
0.00523199827151265
0.0112744032141883
0.00157297123568163
0.00800147318219945
0.00192922012711399
0.0105938010244186
0.000304931762363357
0.0108351306140349
-0.00130621715254408
0.0119554595114439
-0.00556382203011215
0.0207592135011697
0.00440501486668011
0.0203790929257682
-0.0119512116929819
0.0491186190858975
0.0246767634172269
0.0123999866120837
0.015824940781636
0.00280744344486083
0.0086257489745015
0.00365931491362389
0.00738697628395393
0.0131398853694369
0.00691726813836697
0.00668218668613878
0.00664327377824248
0.00896936674713886
0.00812775797031411
0.0026643840486015
0.0156190138666013
0.0421709672797892
0.00999146266956773
0.0157171220669458
0.000104244505247776
0.0127092995354716
0.040112648346248
0.0039336056615364
0.0152195251397593
0.00798053839503903
0.005555921268347
0.00440697906582891
0.00573857546214288
0.00453649139955159
0.0109949151810939
0.00952171041507813
0.00357453542564833
0.0102951312945669
0.00212854635671158
0.0124553239511295
0.00418518900365801
0.0181994991295561
0.0190159061939474
0.00472209517170521
0.0126065870064055
0.00952504433659863
0.00554940624541298
0.0068383228707288
0.00692083621123307
0.00542512371491305
0.0130927532581463
0.0210477411333722
0.00530723231049042
0.0235026459640387
0.0199049728803089
0.00305378663732716
0.0118049577346436
0.010472108861492
0.0222455777952421
-0.00235438651645855
0.017413088599586
0.0414012922508288
0.0109640420352943
0.0379471508409228
-0.00156390795559496
0.0182429221796808
-0.00286464861773281
0.0148079306526526
-0.009495726411251
0.0365398071420473
-0.00576895319708269
0.0179750739622293
-0.00724059539751759
0.0259048438325163
0.013487093393971
0.0130201732830073
0.00563186218911097
0.00601839981302911
0.000270013064702076
0.0282982081484902
0.00987899460681105
-0.00266908978856523
0.0429614420105992
0.0288224391040516
0.0365226683160326
0.0140591853009674
-0.00154980234827837
0.0568570108305367
0.00403205719380999
0.0173368201036324
0.000275405772888472
0.0105440961772023
-0.00188427639290675
0.00853745966086685
0.0435834373553681
0.0119105188092714
0.00482381386473981
0.0162482841008194
-0.00314602578697107
0.0404782238070148
0.0143003505257483
0.0134975953783401
0.000709058535646814
0.0190970216722757
-0.0124959767771704
0.0694004261006091
0.0158146199131916
0.0247663733721503
0.037450842671849
0.0222866731509349
0.0249275521439964
0.0143354518602319
0.0102756861366242
0.0209920822082972
0.0284671009118642
0.0124545074004091
-0.0020839118788598
0.0231290226004061
0.0363968659371656
-0.000118780763748138
0.020318404645931
0.00175585601895027
0.00400823053884474
0.0435441320466672
0.0719530131253792
0.0378465000472969
0.0149346008658252
0.00977285748887404
0.0440814480859166
0.00738749801772002
0.00919600719345615
0.0056981149622389
0.00374344560561292
0.00594762563220007
0.00227634161218663
0.022161432398127
0.00370702029540853
0.0120800288642306
0.00370594524409558
0.00431734852305513
0.0281607455596896
0.057279523513534
0.0562046716773992
0.00822749807179789
0.0593646391978618
0.0233223182110811
0.0215394349419558
0.00432459536910841
0.00417710631329761
0.0184373261586316
0.00858081713819382
0.00946463794915849
0.000459216022666472
0.0382982526637163
0.0158271222772442
0.0188481801993904
0.0402220305171148
0.00297920828938484
0.0202759765405989
-0.0202829538418889
0.242014198415011
0.0165218404788158
0.0419410594821863
0.00798632379156697
0.0268686042898539
0.0856734510924208
0.0214540578457801
0.00903327010343044
0.00801778681043956
0.000677278509786736
0.00979541982901162
0.011970555370823
0.0157525762554263
0.0208013128116913
0.0107130981308377
-0.00872018902060137
0.034133636018159
0.0789067516696515
0.067793275962033
0.0322847945985086
0.00724117052350374
0.0281377805448505
0.0282572684216845
-0.000275544022530765
0.011595548667771
-0.00559580807615574
0.00577977862744192
0.0652324604360598
0.00394754653873969
0.0113331133915164
-0.0067017516865915
0.0458322137357097
-0.0205809197751642
0.0798571634088456
0.0208883757589978
0.0165993067820579
-0.00175359299884211
0.00061618077464745
-0.000964235940610096
-0.0112108663810516
0.0397675630589429
0.0102727129502549
0.00570892489458302
0.00388715107537046
-0.000715445355918837
0.00237063738065057
-0.00139326317874103
0.00754172080395665
-0.00982362690186352
0.0475327076009664
0.000701738930029175
0.197718427923145
0.0303146607405129
0.0100394881261991
0.00616049262365493
-0.00140201741367033
0.0453337129629515
0.00987451428258056
0.0490451392899759
0.0279595533775231
-0.000929055867319206
0.00496846167460622
-0.00582397209778361
0.00730618405331357
-0.00577785777184775
0.0100979941334343
-0.0206648372169127
0.0408197657060859
-0.0115037771535221
0.0427155142175715
0.07023530633628
0.00874923385074921
0.00127459188708543
-0.00193980593009777
-0.00239055871274528
0.00322346477350214
-0.0045184209146694
-4.74126413037568E-05
0.0229093410984554
-0.0103001515195824
0.00840080770736452
-0.0140576095427736
0.0313663735232529
0.0222607934265585
-0.00196238487946035
0.00424183403279696
-0.00658034292984371
0.00966280282768688
-0.0138759764210385
0.00537623527226417
0.057921021390228
0.00557186664332763
0.00758503534040195
-0.00158519171116701
0.000531740538379242
0.00382605243972682
8.06136259273476E-05
0.0022854414984276
0.00478063696082209
-0.00389971697261678
0.012425961046662
-0.00266792215341159
0.00414222319768438
-0.00308438486288059
0.00886670055695834
0.00150506136856231
0.00637662963603117
0.00351419695473972
-0.000152136003400274
0.000695236459619321
0.000295052005503738
0.00201855205119062
0.001406438675189
0.00668404999954316
0.00869958077388313
-0.000123969781718822
0.00685108943588471
0.00406149970976911
0.00406781739611914
0.00290015727150112
0.00315528351820779
0.00148320044921909
-0.0006002438836633
0.000681294740493526
0.00117579686385606
-0.00018651275767458
0.00117057644658195
-0.00170141477787009
-0.000642927500781131
0.00514808817055973
-0.00138701054695776
0.00752071522883023
-0.0127883484736471
0.0681935263835112
0.0243643876890837
0.00485571672308066
0.00299622946013387
-0.00403266329890095
0.00804098423801549
-0.0114044054207751
0.0482504600268846
0.0263953590737866
0.00204475975223716
0.000395434796715981
-0.00456760087923784
0.0112261141357711
0.0115812335939448
-0.00710781333923539
0.0143401750416579
-0.0168184810048166
0.0582103471430856
0.0609477710469908
0.0672401160507951
0.0927197409197998
0.0270822697198637
0.00266126559913996
0.012295616917421
0.048741200728831
-0.00613632772651065
0.0102066783249585
-0.0104506089860768
0.0463561458459642
0.0129574184113017
-0.00186941800581629
0.00083318444484585
-0.00866168452865496
0.0213437041814905
0.0369976270187619
0.00998509532269219
0.0332845970695126
0.0444313678263382
0.0134755782306601
0.0563822162042968
0.0826493808724054
0.0470003289375806
0.00501967899299586
0.0132104765237378
0.00553647458693732
0.00849643527576809
0.0674503821941683
0.012656606401829
0.0277055743000487
-0.000514544379938525
-0.000707322002313267
0.00911974849750615
0.0273419762471862
0.0189659265387773
0.00602949349896013
0.0549838823834087
-0.000987998868977111
0.0281495952806165
0.0181040325821815
0.0550383957258012
0.0594228773703391
0.0262448527742984
-0.00112720090025895
0.041404767927648
0.0525280244279878
0.0176813469862336
0.0298504943039747
0.00162837943322093
0.00677249436891686
0.0329226378183908
0.00225972838358956
0.0285379680284964
0.0282623824212524
0.0373504882677366
0.0770919568987131
0.0810559679625542
0.0621048880975498
0.0194260197419123
-0.000220343583220083
0.00777725513643694
0.00477362786001025
0.0121329358818256
-0.00803296107827401
0.0327665755332127
0.0143654285624825
0.00327368239809529
0.0608977911001346
0.0123123724441445
0.00484171923445934
0.00302913797117406
-0.00465800568461233
0.0124590827111801
0.037306328414666
0.0538182610632655
0.019722778832409
0.0124053064183093
0.0283441356141476
0.00288552340403536
0.00821515220791703
-0.000454532836752278
0.00379803413780074
-0.00147213980388069
0.0159493235793803
0.00533105684009835
0.0022817748407929
0.00373487037661616
-0.00156896189150806
0.0260355493944135
0.0416730301019967
-0.00346831453040739
0.0403525642353478
0.0198450901578507
0.0658221874902214
0.021210320195647
0.00542348842364644
0.00598038800422725
0.00187665253985404
0.0044489173264397
-0.00182816848796268
0.0102534713533798
0.0428402351060221
0.000624838056832057
0.00940268766081198
-0.00264380101436736
0.00833080322679299
-0.00204878570209234
0.0458461675873347
0.0220999124831991
0.0683029947791937
0.0554884050678092
0.027983590636956
0.0154253015062892
0.000109640746578229
0.015163093636402
0.00895172365431227
0.0038160451731707
0.0032298767659251
0.00338133229037182
0.0329083402443865
0.00403996717260877
0.00672168330982616
0.000737727810153311
0.00169538627755157
0.00212006296250299
0.00397313419690527
0.000602205280983368
0.00150939951388002
0.00379093697840264
0.00325116809465471
-0.00169139757398677
0.084038068736009
0.0205672714554797
0.00763101136313969
0.00655799356038488
0.0114297164162339
0.00585745942283322
0.000931534089199839
0.0212263411237716
0.0185614333041116
0.00642529453905896
0.00984242182263748
0.00442614241302197
0.00605817989432699
0.0150341917717551
0.0379290369198377
-0.000573057594303603
0.0141215197948829
-0.00928317021313078
0.0341936295290496
0.052406873597814
0.020238585895132
0.0273587931947942
0.0122391836082888
0.00905048174725863
0.00427240040251547
0.00543024918003883
0.00395590131908864
0.00955311612184226
0.00500135360690076
0.00789533759567973
0.00317984963985643
0.00501749693781321
0.00341290102958162
0.00356484276137317
0.0281859178776319
0.00606744183298656
0.00380872063531142
0.00192491563039014
0.00565579405972867
-0.000688436242389526
0.0273244600184439
0.0208133783403497
0.0113406883793321
0.0116050539201288
0.0155033742988839
0.0312638006162927
0.0219938779844864
0.00207606027506908
0.00337515832455479
-0.00129977721553552
0.00379334392704337
-0.000303952916623481
0.00982106154842795
0.0279129129375293
0.010412219203258
0.00437828534405553
0.00151718116609289
0.00213211050978895
0.0012506892950798
0.00120096701991596
0.00112224428432225
0.00555907444628094
0.00621103863985453
0.00886848892264292
0.00105728724974325
0.00623386500595182
0.0155739381894509
0.0165953462277752
0.0175877611737371
0.00333510150236436
0.00367061552525553
-0.000349998817925911
0.00160564720258868
0.0125504429202217
0.00587401646854328
-0.000663156090871386
0.00266862292307235
-0.000224351422234982
0.003078858650375
0.0324446161445936
0.00896272445870817
0.0124815887765929
0.00619277041822902
-0.00232292009168153
0.00156497166789763
0.00106421288212142
0.000799371751623258
-0.00157768682891976
0.00267403608133502
-0.00237207941296318
-0.0019393473373328
-0.00223004933545782
-0.00340866472762225
-0.00396244755191456
0.00063412843046166
-0.00100439623472835
-0.00139850904728692
-0.00335338998610596
-0.00186041183600191
-0.00211897136538676
-0.00279663177714742
-0.00292396840877936
-0.00301171091139622
0.00926615322103622
0.0165193696905266
0.0135217684756879
0.00422710505188252
0.00560377798629399
0.00396441497176448
-0.0036920631561357
0.00036496497234913
-0.00214392451482347
0.000212359168517601
-0.00357139878727843
-0.000379251459530451
-0.00350978853087042
-0.00175898313029892
-0.00355253200215206
0.00291058318440512
-0.0038218452843185
-0.00355348954579498
-0.000873966244638205
-0.000424867722564745
-0.00369783520813948
0.00174885050232532
0.00083682045724807
0.0090699691178749
0.00206751188314941
0.00286206950236064
0.00361331917508116
0.00073159920822593
0.00320594600132188
0.00382459974789143
0.00572665839830616
0.00257924263734673
-0.00121825099376218
-0.000578991765442873
-0.00114279177922371
0.000765281608132601
-0.00269474070054739
8.54033177483122E-05
-0.00108643088965203
-0.00195981374500462
-0.000858702444357969
-0.000836422179265612
-0.00161216978375579
-4.58346574451236E-05
-0.00313102585349581
-0.00182654528404621
-0.00190205456199742
0.000649241417106241
-0.000798846433534363
-0.00181066574711979
0.000454433259703901
-0.00034733501502406
-0.00412666302902404
-0.0018644849740453
-0.00218746442142092
-0.00230204217644925
-0.00290950462414981
0.000443668652445369
-0.00152037976083406
0.000345372116768762
-0.00377649304258693
-0.00431820756887779
-0.004223163227322
-0.00222972422931606
-0.00300575298619368
-0.00195242469116958
-0.0025880286327448
-0.000916305090513156
-0.00302221531298692
-0.00322715836937547
-0.00331107176503709
-0.00218784669014431
-0.00315166650325746
-0.00123723507398826
4.1708878184243E-05
0.000674791148931406
-0.000746964769852938
-0.000469513500694914
-0.000997841027122811
-0.000109356991002737
-0.000368226104394273
0.000812804559955195
5.53412699525535E-05
0.000922486663069038
-0.00136334579203097
0.000365953986952227
0.00330474514362132
0.000877233224892693
-0.00129185692516143
-0.0016338365889526
-0.00132027823078316
0.000668905097132067
0.000311095105402464
-0.000198178719244862
-0.000540658328396749
0.00154716066644248
0.000930551561759104
0.000125417162014403
-0.00199051527713036
0.000846490522412972
0.000418721510305398
-0.000545251769777349
-0.000345133560004081
-0.00102660928341327
-0.000730638010642987
0.00062825902738034
-0.000288132822532094
0.000649025990265022
-0.00155116191683041
-1.93795074427189E-05
0.000571747050524044
0.000207482789137666
-0.000259072488349589
0.000141636116005712
0.000121985005736925
-0.000517788268587897
-0.000331621103451379
0.000430369474943795
-0.00086212744337528
-0.000414422317285522
-0.000355886804157054
0.00074987053466651
-0.000671722629527412
0.000525703416621641
0.001312202239283
0.000488568011025666
5.52895535981879E-05
0.00164579133147703
-0.000574670054326042
-0.000602830883895928
0.00191834854236367
0.00157803572959154
0.00110550580068546
0.00200009906635555
0.000566723508543414
0.0013732255091535
0.00105545099867238
0.00168405125076751
0.00299147971914497
0.000907913830632314
-0.000247296154239035
0.00120264396033684
0.00159224297970124
0.00239103378685371
0.000685633554187516
0.000509569139632377
0.000543461727304018
0.000508054460627513
0.000683306988261459
0.00120865992378215
0.000186831103639806
0.00254461652252265
0.00301267024180086
0.00185455056258967
0.00205125988390812
0.00321610899671632
0.00243467057730411
0.00190397059221463
0.00218623904770585
0.00321359047852435
0.00217808877274541
0.00271107775494484
0.00422439201942135
0.00369185433323393
0.00279876608602688
0.00399428709771579
0.00267409053309387
0.0022915451291418
0.00489453134861285
0.00505922265804922
0.00385366209754837
0.00685918395669306
0.00745016645330704
0.00601335077599588
0.00627291054929503
0.00853269493896535
0.00823117653796601
0.00875181856235198
0.00957917403738301
0.0115530845545113
0.0102427236392517
0.011617800813512
0.0129813895695022
0.0127367620607984
0.011596961640802
0.0135093097376053
0.0145352015296256
0.012895931422574
0.01206596652094
0.0137849288130249
0.0124770500071762
0.0116260942976509
0.0108052560338688
0.013068068293731
0.0119195751470038
0.0113472030131365
0.0121296852920229
0.01215639868703
0.00946799149937411
0.00992802444611359
0.0101442003442997
0.0104176155342128
0.0083337237733653
0.00859135008486028
0.00780969690136569
0.00559634259406895
0.00588579051444451
0.00720119566515286
0.00719959108513912
0.00704210943355576
0.00955352973301315
0.0103898929931367
0.00840268119358432
0.0106169807002164
0.0118967492760787
0.0102733530925264
0.0107312381421688
0.013014547164076
0.012046087003449
0.0124753181332003
0.0140884727767274
0.0151466876858163
0.0146434883093435
0.0164354899623644
0.0168988172561362
0.0169377788962086
0.0183821176169285
0.0191111902377923
0.0184936124272932
0.0179913367170209
0.0191335679174341
0.0209316077939522
0.0193416796941379
0.0211781053573896
0.0224782181901633
0.0223023072596036
0.0226321304942633
0.0241314094005234
0.022562145670505
0.0219646130992009
0.0230094837674042
0.0223998471970075
0.0212000775603757
0.0211739482432571
0.0224491126986069
0.0238983141075355
0.0223130132045201
0.0227043594461229
0.0224178264954448
0.0214800831902084
0.0213370114603372
0.0211937102554391
0.0205433674357519
0.021268146790996
0.0232825117690786
0.0231750323627372
0.0225057868134166
0.0258586936481621
0.0295140175514806
0.0290027137092047
0.0282673101323107
0.0306925277351272
0.0339045683890387
0.0355893136959799
0.033325992513382
0.037060873208271
0.0391605273599206
0.0389469324109919
0.0389459921882633
0.0409855991781733
0.041472583205899
0.0423997092904695
0.0434228948422298
0.0447882504831257
0.0450107076543611
0.0468721624802762
0.0496655917826571
0.046462199813456
0.0475458182373254
0.0491334112947766
0.0496041433058677
0.0512964739261206
0.0503523412707328
0.049870893323942
0.0464320010446448
0.0502494144589314
0.0510930186338273
0.0515418670163955
0.0505952226941522
0.0504864296192457
0.0514979880151232
0.0532074830012669
0.0500265589384993
0.0513521497535001
0.0487894084555904
0.0463582023668935
0.0456872377711598
0.0463823927096585
0.0446388454937063
0.0440375905944867
0.0442624848138348
0.0421704243645122
0.041551099646824
0.0415557076872551
0.0408114943628192
0.0412850593030764
0.0428689794216752
0.0419173799127595
0.0422154730180535
0.0410685720746516
0.0441419197827013
0.0430815629052828
0.0411867508991808
0.0440071492969681
0.0426484535773538
0.0421712135813836
0.0425574026081117
0.0413052621284204
0.042199648424629
0.0420338879364038
0.0396377874044768
0.0414532309074544
0.0400660378003753
0.0402522440447563
0.0379781965351951
0.0376305305065109
0.0348690171053176
0.0334290720137401
0.0324528721675955
0.0326816524617241
0.029926252631177
0.0290468276541604
0.0277872982335425
0.0216160979430167
0.0206182812438714
0.0216752936830114
0.0175458610150087
0.0156743092958393
0.014208877322561
0.0121775100123061
0.00979585404722495
0.0062520570473407
0.00505540759729374
0.000405454741007301
-0.00457741254732406
-0.000489163301950082
-0.00409318363500671
-0.010137124174087
-0.0134816899246208
-0.0145008693202064
-0.0220116809460328
-0.0238026962720304
-0.02530812771744
-0.0331587462924338
-0.0333584420215188
-0.0369055882716145
-0.0415856575297011
-0.0465595014946804
-0.0461630998756183
-0.0492517331968275
-0.0505241542971662
-0.0506456358185618
-0.0536834277624422
-0.0548066356187952
-0.0555326554761633
-0.0555656692008811
-0.0539111322984766
-0.0540892788689172
-0.0579785878174787
-0.0575707811079822
-0.0557046593490162
-0.0565012014825747
-0.0575677590395383
-0.0587706293759611
-0.0590640572170519
-0.0577941340917979
-0.0580184391731007
-0.05898765006949
-0.0551558436235707
-0.0557863478692298
-0.0558692371020367
-0.0562677637533473
-0.0567712798327177
-0.0575638468998832
-0.0576354106357503
-0.055342986541035
-0.0538433230835925
-0.0535812069305536
-0.0518508784782195
-0.0506189052014174
-0.0504846912742135
-0.047416979808806
-0.0473334384900653
-0.0481843664194202
-0.0432265331753125
-0.0425341378917695
-0.0428743062884426
-0.0430172042693772
-0.039231532507977
-0.0376985942674269
-0.0398494390532383
-0.0374715499512942
-0.0355448757293056
-0.0352020678945979
-0.0325865497311945
-0.030651350666021
-0.0317696564533556
-0.0328240309547298
-0.0326408508286826
-0.0304760796629737
-0.0321018650392543
-0.029754866532634
-0.0301750851737338
-0.0306933298249098
-0.0294337807840888
-0.0268161743990495
-0.0272255851571356
-0.0295287907585816
-0.0287719910705287
-0.0255043002849847
-0.0284108348885423
-0.0286383659267039
-0.0243518428894409
-0.0263634176850353
-0.0276076391970461
-0.0279797488827642
-0.0281813008343147
-0.0274787945680554
-0.0290572907319518
-0.029383063113014
-0.0288416162964695
-0.0317173039954812
-0.0298138019158057
-0.0298354615687926
-0.0287145101652907
-0.0335987477914612
-0.0316415433127047
-0.0297054745174752
-0.0313606821862887
-0.029688854617792
-0.0310336364493305
-0.0292966415673324
-0.0295167707447016
-0.030243507718039
-0.0293196359460803
-0.028670207554329
-0.0317496075888003
-0.027717053648091
-0.0277650595066442
-0.0302001119903874
-0.0285997122556394
-0.0267264563587455
-0.0267748355149998
-0.0278617406557253
-0.025443366918374
-0.0267467502642711
-0.028454573709175
-0.0218932081695791
-0.0275618748376968
-0.0259832731573507
-0.0255467248378542
-0.0256184016426509
-0.0224119454744772
-0.0237910094599608
-0.0236969945766679
-0.0230175836723855
-0.0227694252844792
-0.0231494632131013
-0.0231083336513761
-0.0210191700012772
-0.0250755427718314
-0.020703707833257
-0.0255025731900508
-0.0279972741542629
-0.0234414869112791
-0.0287458978567748
-0.0229919173308262
-0.0224252982995422
-0.0228996087247368
-0.0222055103317349
-0.021276863893297
-0.0239418514795024
-0.0202293561098295
-0.0226912997317127
-0.0227698293349901
-0.0227698610524402
-0.0234485777448943
-0.0229533479977498
-0.0242872845078269
-0.0243863980642209
-0.025709210225531
-0.0237159585962387
-0.0218906867154192
-0.0262945719782978
-0.0249494828520259
-0.0186646113936488
-0.0216215652214301
-0.0238597985644926
-0.0217700829111734
-0.0232866209439667
-0.023424313872283
-0.0242903165776494
-0.0276007480279391
-0.0260601260932772
-0.0259202077824073
-0.0259165934632483
-0.0242991430199946
-0.0275630354197996
-0.0228986081192405
-0.0243272571514441
-0.0238945015698867
-0.026780042578366
-0.0276159078720384
-0.023213009042983
-0.0261170931445657
-0.0320988501122567
-0.0294131990219898
-0.0271045939188945
-0.0302889696942226
-0.0274964932523603
-0.0254997969943211
-0.0304916191225545
-0.0281299352057585
-0.0280092596668535
-0.0261315137434079
-0.0269507899186879
-0.02538699615608
-0.0328794624687712
-0.029904413809024
-0.0266939178310361
-0.0236245559624677
-0.0307253596548676
-0.0312264952871285
-0.0285468461256869
-0.0310925986687967
-0.0274912850820559
-0.0320038998191685
-0.0310398614344077
-0.0263062663192343
-0.0322565928293576
-0.0277900636109046
-0.0310672856645686
-0.0349216465376782
-0.0281718601277167
-0.0263435031777505
-0.0341240699057129
-0.0303210817662369
-0.0284354960374402
-0.0298590156586461
-0.0314540511710599
-0.0223083312028756
-0.0257941579988134
-0.0316739518454333
-0.0314292817197037
-0.0234724456414285
-0.0283484029679073
-0.0324052195146117
-0.0264763421041583
-0.0279947963637445
-0.0369116631311917
-0.0293030384741805
-0.0272852570750902
-0.0310563382266177
-0.0301271718576552
-0.0247032627650477
-0.0248612820751778
-0.0207639121213257
-0.0316136853667315
-0.0241015941044978
-0.0184836788335582
-0.0238594197023491
-0.0330703198913545
-0.0201228238130536
-0.0299854994824052
-0.0259188337690265
-0.0167390055242825
-0.0258370716033473
-0.026735520084373
-0.0177579969416409
-0.0263779747540843
-0.0248461561043498
-0.0176528065660041
-0.0221902854671203
-0.0249198148007619
-0.0217550974419878
-0.0218050826366008
-0.027055892980083
-0.034739814776417
-0.0229279043845828
-0.0228542370823601
-0.0258350086792444
-0.0306576308651742
-0.0299851474291349
-0.0280883918157265
-0.0256817915587603
-0.0167240759451982
-0.0264126963974191
-0.0323718820693857
-0.0237168466561925
-0.0182667860144389
-0.0214007819394329
-0.0307015812075842
-0.0416290793425883
-0.0385910410688594
-0.0385108741549201
-0.0394205490340471
-0.0442333501579104
-0.0430960043362281
-0.0401875860390285
-0.037382067189407
-0.0328788962493146
-0.0408155727402149
-0.0328928871802653
-0.0319854023374549
-0.0435791768673517
-0.0486358130065943
-0.043770471662602
-0.0294859085240222
-0.0416391212253629
-0.0381867756434601
-0.0244674752471264
-0.0426950899145617
-0.0364002869660255
-0.0374145893734944
-0.0299407899761095
-0.039790977403457
-0.0362156050287527
-0.0458014087011021
-0.0450681684635866
-0.0466132958959951
-0.0427356446780837
-0.0347536022764375
-0.0323731400394916
-0.0403640440373097
-0.051646108200428
-0.037621881160766
-0.0511531418391875
-0.0326036423119169
-0.0351977321429995
-0.0399560059555744
-0.0305407176110668
-0.0368137689822261
-0.0432996361495269
-0.0152540519603645
-0.0300708528607504
-0.0342945422297107
-0.0279522508272001
-0.0405118257430587
-0.0380580272843142
-0.0455764599219198
-0.038685303284772
-0.0419657759555896
-0.0268442465726714
-0.0444325860782091
-0.0361582897937331
-0.0405877441199858
-0.0460469601667626
-0.0278582513773546
-0.0328908600229428
-0.0362778981763159
-0.0634575941112692
-0.0569893372934879
-0.0355109565262007
-0.0335869054925289
-0.0310226008973899
-0.045097576111049
-0.0443916991384794
-0.0461324848352092
-0.0354401349492942
-0.0535065921428101
-0.0446458314305028
-0.0422444615462719
-0.0412904860457867
-0.0273834254787241
-0.0498806082653988
-0.07043854246206
-0.0376524933540709
-0.0327320803523262
-0.0501688707487995
-0.0391323788081846
-0.04560197484628
-0.0372284806004633
-0.0358911546627097
-0.0410315208865279
-0.0435889356171157
-0.0732432084824324
-0.05625812963621
-0.0369659791873739
-0.0411137967929344
-0.028767774599305
-0.0472834340118313
-0.0561825722345598
-0.0389287748950278
-0.0327894486781848
-0.0451101424990202
-0.0404352638357811
-0.0670999507645936
-0.0184277203473922
-0.0731266740037743
-0.0459234263045887
-0.051293760027288
-0.0709552432980571
-0.0723193348766584
-0.0250297228708771
-0.0284885902180469
-0.037941045248469
-0.0785082648090482
-0.0501160763391202
-0.0243563217428557
-0.0486645645212145
0.0040876821311712
-0.0525377407254662
-0.0356618302797812
-0.0161118400507253
-0.0410960677635132
-0.045317494177808
-0.0930923265986814
-0.0402960506823454
-0.0853400003518103
-0.00123564669740171
-0.159505702490994
-0.0952113870191385
-0.271777363618224
-0.136799795831095
-0.0595661741425803
-0.0744699299073624
-0.0414498472096173
-0.0297338337047101
-0.0167963110083214
-0.131645763199323
-0.0537159890247977
-0.0702107358411332
0.0371458681953114
-0.19630085462024
-0.131750996924932
-0.0601120076918747
-0.109083955682663
-0.112636513285671
-0.0329110776510547
0.0360152870689977
-0.165298710679245
0.113713250556105
