3596
4000.36533379555
650.420452594757
1
2
2
0.0666963132556457
0.0514358955493551
0.0622010516070704
0.0541537780730353
0.0722745327621185
0.0471002110591379
0.0619761977254882
0.0447023607058389
0.0700935283057692
0.055739547121697
0.0581971123499857
0.0480406692179542
0.0598318887890199
0.0402772390074481
0.0670377912498513
0.051212678659138
0.0598706538488478
0.0535751843824298
0.0568741287472332
0.0493981446837847
0.0632196239569371
0.041819396879138
0.0633736626474692
0.0464953758400555
0.0616071900423545
0.055254305018802
0.0665794743731807
0.043607666902367
0.0645808370812582
0.0560519179235589
0.0581165587474082
0.0462672766572597
0.0680235470025609
0.0467979574487028
0.0570888347077067
0.0492431763605856
0.0588815284009099
0.0505936249350628
0.0531344718675678
0.0539174778629688
0.0632072769590006
0.0465986716574118
0.0727105253820045
0.0514006173845403
0.0632936908258672
0.0513888718873301
0.0713462661346977
0.0504772570482018
0.0496305482034766
0.0474090490291703
0.0671112189991554
0.0537918496946623
0.0651816392109201
0.0572900522532877
0.0722213940037662
0.070382902696979
0.0775065759139562
0.0442772766573666
0.0655918038615482
0.0488693709563433
0.0837137082474279
0.0648665955669054
0.0609970312924693
0.0435392329029258
0.0629226131733244
0.0531223598369535
0.0599936228912018
0.0525702227964784
0.0678375296590541
0.0559324422720428
0.0581523482471482
0.0545892321110173
0.076305166318248
0.0551143317643757
0.0718633033950523
0.0437308458808675
0.0585673407409764
0.0460158742058415
0.0586240477534147
0.0608340373339133
0.0832831849668284
0.0498332924092134
0.0642000552489077
0.0390918725518524
0.0684684193532975
0.0618246186315758
0.0515878318385034
0.0523797438366987
0.0830765640545657
0.0565168298189422
0.0597434953645328
0.0438218943328691
0.063591534356106
0.0416895394759089
0.0665855999572472
0.0476836219234317
0.0576197169058738
0.0452545825475179
0.0523817827766871
0.0529018061198976
0.0672866462182485
0.0715779961393431
0.102774221980628
0.049386950670167
0.124193288249096
0.0608891953806011
0.0711642419746226
0.093978993277787
0.0815728010877025
0.0506552704069081
0.0596382265887098
0.0537220345985928
0.070490575320006
0.056385976393809
0.0558048567444615
0.0686772993169494
0.0913018569461061
0.054284759961378
0.063596105724438
0.0494465508828946
0.0452575612185149
0.0621085006257966
0.103346850279825
0.0432374253538586
0.0802139973821291
0.0516660723699399
0.0699077829763499
0.0742206830365508
0.101471764706003
0.0515423832162582
0.0564292097040389
0.0508490567738203
0.0533993474398328
0.0451816887996351
0.0966131849770846
0.0538541377152702
0.0672161874052082
0.0373945670068037
0.0877447706644821
0.101492439687604
0.0794189393250314
0.0512025119222756
0.0475959552428223
0.0555799279253426
0.102714496792217
0.0550130040769204
0.0553992573054699
0.0576356284930914
0.0695167528078883
0.0463427209363464
0.0493081547801213
0.0428743471283475
0.0787242434836315
0.0488258126241688
0.0305915391710749
0.082482163566634
0.124285639354465
0.0681324475876
0.126698610191852
0.0593334692090269
0.0726477706633584
0.0523774975266817
0.0604759027117393
0.0443673026452275
0.0635767229061273
0.0422666060595762
0.0739381668872087
0.0731143127005208
0.0580123866488797
0.0563633146070909
0.0962115900569705
0.0565623207013086
0.0502739187197064
0.105757159396554
0.0770835664195424
0.0451209976758258
0.101175860889128
0.0638542873388601
0.0517461330059713
0.0605083305303335
0.0895343005467727
0.0487499565319713
0.0657618541486017
0.0398379057601388
0.0701758164198773
0.0699907503795027
0.0691433877117323
0.0474644265639715
0.060222624970935
0.0289863947213204
0.0924965220601985
0.0985096400275428
0.0997966261241724
0.0497667707865393
0.0678367560568418
0.0173814096126758
0.102401134545333
0.0819812074124729
0.065162841434533
0.0415164468911134
0.0524183998149668
0.0427044231300789
0.0545679578351474
0.0524378605486976
0.051624242589874
0.030707596074436
0.108175327392024
0.0626274273249115
0.0564913979680972
0.0393453794006574
0.0600572717658557
0.0392351086137411
0.12118425196258
0.0776462774559397
0.0630464496131668
0.0527049669487271
0.0567659544608055
0.0674743087447898
0.0826272800078035
0.0467416729919467
0.054982432216796
0.0484159562948471
0.0536372249478357
0.0372977255045969
0.0526956542979012
0.0455019568533914
0.0533908446570494
0.0439925759448149
0.0583860659718519
0.0458003906321586
0.0668995031280962
0.0491405343790353
0.0602389101395891
0.0490939014113239
0.0467975920368445
0.0549306279213799
0.0813593510530176
0.0450465117708756
0.0582441660734406
0.0427461267351949
0.0542415631045033
0.0396456721469994
0.054927567361303
0.0505019322888848
0.0549402094816916
0.0371392435482238
0.0954352553959608
0.0536345646215827
0.0608066668739155
0.0386871708695646
0.0833323266617683
0.0616919830126029
0.0538764255404198
0.0462612041658363
0.0572017819729004
0.034406351706153
0.0536465042826285
0.0818380652730396
0.065892033518537
0.0429457807435408
0.0769980587074711
0.0593223454644068
0.0542507864789278
0.0428005877507656
0.0558483604227702
0.128080375765728
0.0712847545992154
0.0441648481972598
0.134029444192002
0.0698907217194657
0.0704592194243942
0.0485560446497244
0.0273027835853126
0.151745425578217
0.133823904857607
0.0549588443133208
0.0677773660529308
0.0692619586207649
0.0554161912174765
0.0566158092683916
0.0631110071179205
0.0589238746438949
0.0990778906082055
0.0953032547411515
0.131152314552591
0.0361695472456164
0.0921900579430261
0.0765035726498475
0.0647130486044583
0.0510631519545765
0.0565296995434532
0.0487157998378206
0.0840140239359225
0.0640256552844287
0.0761715507647781
0.0611587510981129
0.070056859652574
0.0796888339708997
0.0722568099431988
0.0512927718098168
0.0695616576473573
0.0644848207769615
0.05636452618525
0.0518300298489954
0.0555332480209064
0.0550246730038872
0.0542889329578078
0.0410484774788255
0.12112399829777
0.0668225499951565
0.0719751601355352
0.0838239129223369
0.061698533514675
0.0483537929328524
0.0572606026805616
0.0461305197789384
0.0516177405422212
0.0460449584095385
0.0443437947655816
0.0763236945402348
0.0705767680637633
0.0460881877209125
0.0553416034091334
0.0413797193481192
0.0577918125557806
0.0471101867265028
0.0573303610133463
0.0450723228208877
0.0584101171794636
0.0387843635592528
0.0764997948738577
0.0848730591131107
0.0404888356690552
0.0905084142999997
0.101708247014457
0.0506371961770719
0.0673035790966569
0.0424500562580289
0.0732301873170028
0.0500810779704516
0.06033206242841
0.0469324124496841
0.0626038324759351
0.065516446593308
0.0750824400403124
0.0508849841814898
0.0755117196806749
0.119758540954877
0.146919299118367
0.0711075366241238
0.0772514432358153
0.0331545010330558
0.0965040875831399
0.0893325383470317
0.0951471504033636
0.0968560641246416
0.0620867621082831
0.0645650500899767
0.0665297666616418
0.0589637458911601
0.0636651529942888
0.0609460898526101
0.0654138523014554
0.0539923909598539
0.070956148610791
0.062873871026036
0.0598479955736954
0.0592581834303298
0.110118810033146
0.0756110701342729
0.0725408585436307
0.068244917964208
0.0635897932096543
0.091294927646457
0.102134815722998
0.106574735766942
0.123604833551323
0.0928153470515413
0.140084959788525
0.0764320913706738
0.0912353505637905
0.0600930290217356
0.0815718487736791
0.0744417502930889
0.0878788029201057
0.0684319410055028
0.0851549571351987
0.074513705557147
0.0930463407415334
0.0716569392496675
0.0913747097710961
0.0667849100461652
0.116271745457174
0.0868393224575049
0.100560224575115
0.0745706814275129
0.107887738485228
0.128019240125807
0.155645577011329
0.0957589605077572
0.108151611684077
0.0881010987613398
0.0905522380454611
0.0965297184743835
0.0976614241391544
0.0963566925898955
0.110110930757816
0.123311839029828
0.138516878550286
0.120781926213454
0.130685247870585
0.086293042193284
0.136896965004666
0.10458461097651
0.137032353676694
0.13135543432206
0.13223061973734
0.0941282689375283
0.146731050974814
0.140166645178542
0.119395434224212
0.144882267310706
0.128170035758385
0.113381530594423
0.12123987959403
0.123373823317557
0.138213309772574
0.127366648290515
0.139196688205829
0.134046763538009
0.158443337899081
0.127937560038986
0.14258503953646
0.153612865016159
0.14975389642335
0.142941805103316
0.175866621990616
0.127108691179614
0.156702377860159
0.123188836472091
0.183952822702063
0.177670359802673
0.180392933880148
0.173500880856479
0.155766620482909
0.155518292017458
0.16177113642063
0.158583596597505
0.171251305243895
0.150619810479224
0.176754600626368
0.16844757283347
0.176231652243798
0.167478707998935
0.186325935178582
0.170125552653145
0.182101920285897
0.174283057097516
0.189756711588159
0.164064465908574
0.201974072382288
0.170621570820926
0.227704231129889
0.223064703638972
0.241127019476596
0.237360476466695
0.211728066232942
0.194511502840968
0.212080677145556
0.197933463985862
0.219761827236659
0.210640325183522
0.222507980114194
0.211250266218396
0.236145990237741
0.202370255146884
0.228397316622947
0.212426490007257
0.243203081339983
0.23531589556554
0.264199383337873
0.212794577750916
0.247775559044032
0.232731797050159
0.237277081858323
0.246634628616142
0.270991265370865
0.254489155853781
0.264724374209044
0.259431357961172
0.265246839117231
0.258850663593747
0.270285129037631
0.254374224853496
0.271899946710809
0.260374666862598
0.29185498282614
0.275143360489327
0.295900752498647
0.266607130275155
0.30524207153176
0.264352401076213
0.305566937316336
0.274629612695741
0.311005606060092
0.296329063192823
0.345762847628855
0.29094891194404
0.318310489791927
0.300459617041178
0.343440789252263
0.323621761090275
0.335032887534721
0.305062985842494
0.317998506427211
0.317513187475743
0.353681894351165
0.32398371324425
0.346602955419627
0.33312988423823
0.347969425803174
0.33870818224687
0.364797749922546
0.33567148992634
0.368533050428882
0.352615367256519
0.385922394422803
0.346286585175494
0.364995856974926
0.336784088758002
0.377442537356932
0.356903438762329
0.404910216989198
0.357952846632867
0.40068913252523
0.364584710918174
0.415270413236284
0.356667499624952
0.405997909244153
0.398877600202143
0.409908695625898
0.394509343227367
0.431133564259363
0.381465630915475
0.43251365110867
0.408225456187513
0.420232965348767
0.412669676615621
0.470912448973311
0.405255047106544
0.436000635186524
0.418570849120931
0.445875076199421
0.419677627561073
0.461590642184887
0.432721105649541
0.468024371519065
0.441632575319637
0.481557901027965
0.427520480148196
0.476681331439885
0.435709748603731
0.478149675437463
0.450320942595896
0.474758844298218
0.463188666317709
0.486880866483085
0.450169519933846
0.479406047236422
0.452471887047235
0.492271404501637
0.47086290413141
0.513245403817564
0.489861270170983
0.512603825841094
0.484751384067563
0.52155431286887
0.485837543548716
0.512154143023811
0.50185373191506
0.537691561563766
0.492597303902415
0.527082981169582
0.500000108429033
0.544028876707633
0.512674492184142
0.553523631939774
0.50398732257812
0.564376199644468
0.517584197673153
0.57587522338234
0.537938851507975
0.568009066015209
0.547604291534178
0.54522193529552
0.525532872136926
0.591008271802083
0.536678864449451
0.574640108984435
0.531967320751428
0.556136330826792
0.53624341933219
0.576841532614582
0.562976471902386
0.58123982223555
0.539696165291446
0.60019232873077
0.585039576322999
0.603011608945389
0.577110099583338
0.595889669985361
0.590498809651585
0.595713753571094
0.559722423144187
0.610400155874301
0.577781383321183
0.616142333810695
0.592101633112314
0.64069766189441
0.57266383593364
0.631842550400374
0.583744297712429
0.618498002559005
0.594380061806241
0.640295758231807
0.604321874349587
0.639073265503059
0.578161660040648
0.615659292838045
0.602907405517775
0.660308961931559
0.594757720250752
0.656866117991238
0.590236296418167
0.682819490050217
0.65796215469019
0.660493550676721
0.613109216279622
0.655889099525024
0.635555675950107
0.661078444766451
0.601054733679375
0.675155969439587
0.624420087355395
0.675484711311355
0.655668194345199
0.715498615488614
0.642546676392291
0.663881663989646
0.654034973109795
0.702631131900675
0.627083314527595
0.67523551416598
0.634246931914978
0.692324504758918
0.688753854496053
0.717723260745194
0.662938187037752
0.719024437364984
0.663762607942465
0.724742518689454
0.670046735157137
0.716803490641352
0.667107212547438
0.682646806706973
0.690920735784137
0.702257885481586
0.663497135385004
0.699965287237962
0.69489499551249
0.726790309592733
0.670828924806718
0.707821976339666
0.684801140956715
0.706541162524027
0.661299278722356
0.711135996740543
0.699029553443886
0.692165511745584
0.682485162922446
0.733028475873731
0.694806341157221
0.713120272737029
0.719995479580743
0.71989334697219
0.710316055840364
0.737352399791015
0.695014172767736
0.713186981188077
0.68505617425378
0.740011260875783
0.659787103082494
0.721102624359646
0.695740499058402
0.722987863244999
0.687863376278377
0.71836892909458
0.698501800927407
0.745976192716875
0.695325642563535
0.76819913639011
0.693466461594093
0.756449933946148
0.692490899212654
0.721841617121058
0.706230863973876
0.736837116660363
0.7255583374581
0.721372654143146
0.698069904111723
0.7630804505957
0.708449125010583
0.743263866257335
0.751551628220389
0.747558951017716
0.701968152947529
0.724747613299778
0.678190537948091
0.709024805652424
0.714572235634618
0.746409018570799
0.7056632828922
0.743894979564781
0.711292931838375
0.766050435909431
0.719985491952316
0.718464089090016
0.69174267116093
0.72590611652458
0.682231794081556
0.723786531133144
0.698611701523582
0.726307116139028
0.693512635262496
0.736229195161683
0.685057220306593
0.748716089426428
0.704021229488719
0.747580123714055
0.703216557146971
0.720756759456416
0.701105014119769
0.73082140870727
0.70059858314549
0.732709146008094
0.691701827725284
0.70505753091597
0.698509952095127
0.729641733766459
0.684430134694605
0.725547593172747
0.700471681453925
0.710616880878143
0.664511424434009
0.70550713227613
0.681856685618442
0.711390418152746
0.680493992916134
0.730971970306336
0.676938934648513
0.712095217987437
0.685812502726092
0.714651748992892
0.67395662415231
0.700934761692977
0.689238501558959
0.672748569835277
0.690201938998347
0.700079694849732
0.676920546680333
0.70818728214047
0.677937578741763
0.695501734056707
0.683741974477392
0.703215074523069
0.675879872448656
0.693268543021302
0.685165640620566
0.684270334375863
0.660617905342652
0.671658848701209
0.65935839221988
0.687246050942984
0.668949689776968
0.699950842327492
0.665620908144956
0.673927923555638
0.638809547270267
0.670760592631532
0.658622327721159
0.65838799877958
0.653642085843146
0.667010919427362
0.633891600567652
0.67249226551575
0.646913271367666
0.651632535910402
0.640118254422131
0.658058534629914
0.652417710054487
0.68262544054025
0.626959866860444
0.652586006189892
0.639825526211037
0.638594718436856
0.645535691627244
0.64356798231811
0.610399557721707
0.639523113527106
0.621434898050968
0.648881188566178
0.608761538635002
0.638049091128615
0.619725537857027
0.65667885917448
0.619984855246083
0.628923587709226
0.621099241733122
0.606629457136993
0.613066563746404
0.628640422543743
0.591412969869459
0.608825193757869
0.60044783542886
0.62000119740853
0.590276468389387
0.608856396410423
0.601548203609612
0.60092401515401
0.587778147587199
0.596614366543676
0.584615610980471
0.602483374078012
0.573487471410051
0.591205010418366
0.570041227239425
0.588696729143828
0.574183245006069
0.58659798018887
0.553590486672736
0.571057620198327
0.53639129949508
0.547223474113829
0.567968777066271
0.555669144723319
0.563386955642294
0.551032348362373
0.539957353510252
0.570023602354218
0.544137311627806
0.555703473277914
0.536877622498023
0.556519432413003
0.527215645633506
0.550567505834692
0.533163716172536
0.538280269439693
0.527243397723902
0.52766121093819
0.519922804491686
0.525977867343522
0.530659456272339
0.535182498671441
0.509944002243349
0.530544055582696
0.504008871023997
0.505913840886223
0.491765728800325
0.511420689781633
0.501392837704469
0.52082245173866
0.471468872330298
0.503009755131238
0.497722568061313
0.507348097516036
0.480912612242186
0.49121162828618
0.486250730671535
0.48030886043719
0.468023419549407
0.48684143882267
0.463205839075627
0.466228235245897
0.469301030766318
0.465931279104318
0.458440837742659
0.468551914177947
0.449552946504995
0.457643467295032
0.448964766684789
0.451892829713045
0.436498078584743
0.447443648049906
0.43851734955205
0.444463468264493
0.430709433845165
0.444101642565289
0.430289756885988
0.447581077556467
0.441454562739
0.443635707144137
0.427064726129679
0.437392530684283
0.42504611823172
0.426670683375594
0.410534620448362
0.42687295836545
0.404144714140808
0.406891283201025
0.403594189817136
0.412818780142039
0.403312394439433
0.393250892917889
0.381592010627545
0.398723667267581
0.399900823126503
0.385469032332438
0.384088013335982
0.396067466547426
0.379055810779933
0.385307726567636
0.377184177390866
0.375004206854951
0.376440070506931
0.386520494630706
0.365233724031053
0.366279624579351
0.363178323561649
0.364509211533869
0.3587839524606
0.370122637223997
0.351922351907567
0.366131226770077
0.345571531583254
0.357714702991827
0.345924223131574
0.352838883060293
0.3389842745767
0.353179298977929
0.343359951410037
0.343067144965742
0.331547598386251
0.337111667891289
0.332944679315242
0.340120181105092
0.323481047647755
0.337510888499273
0.328388935354598
0.323636419927574
0.314346001754157
0.320015417637787
0.31043522718753
0.324276393396773
0.314275210749576
0.318597376210583
0.312826367088875
0.315637060417056
0.302053023333592
0.312027328872724
0.301418687905655
0.310209505205635
0.299264256492564
0.296966966647309
0.289489906989863
0.302166304191113
0.285081357344838
0.29372436989596
0.29126305978308
0.298982137075064
0.285870461204994
0.294118113747513
0.277138180124652
0.282754371634028
0.276647158535941
0.279540874829695
0.275088063959202
0.279649271683948
0.270734400094265
0.271391424490961
0.267610438668822
0.268930887921033
0.267333024420636
0.26768895715225
0.25610699831398
0.262186134844789
0.254975419694619
0.259157843913327
0.261082106054405
0.262087704465047
0.25504289556868
0.261502885924135
0.246262695409774
0.250691410053102
0.250620696572385
0.250683173721987
0.240704633448149
0.243759910746586
0.243382791023107
0.247627294034662
0.238319271765308
0.240138263192571
0.23971382994931
0.235805302933009
0.228558429290939
0.236755751863158
0.230547626155151
0.230538118687232
0.22241291668818
0.235094278094766
0.22393996520849
0.224725660198427
0.222761238229709
0.224111482415716
0.220914608274549
0.226421274336046
0.222784933296866
0.213798196455927
0.21183180315184
0.219057049688195
0.213984828087467
0.215339525976273
0.210393502069406
0.214087951701059
0.204915743338828
0.205732227423287
0.20068390979259
0.209947496073431
0.204520346061516
0.2081992059542
0.199724173624067
0.205219097882314
0.200973872511744
0.206169198650311
0.194731896127355
0.199442071607506
0.196038471016694
0.195819270326589
0.188925936669175
0.193404934855837
0.190115903881778
0.192626569794224
0.186896203484554
0.190653559104064
0.18995218511459
0.185291707977503
0.181385832902477
0.188732377500804
0.181095789078089
0.179875396643641
0.173424737696277
0.181959818107472
0.180418738309447
0.178582095458157
0.179564126606412
0.178789402306729
0.169000698391203
0.173915345782428
0.172103124068298
0.173871738598629
0.167595256959632
0.174959039038921
0.173534133467713
0.172743778593425
0.170071940693722
0.168373792333041
0.169816221678206
0.178775886290528
0.17071132393894
0.1671049605599
0.164362681575594
0.170411927946032
0.163197875843889
0.168735796119409
0.161530300712352
0.165661176214329
0.162128251460986
0.171312848176556
0.169085377865315
0.167579866450055
0.167463745033519
0.172722081736458
0.164772644429782
0.166808462045599
0.163052605441379
0.17053574074753
0.163756298143532
0.168190481984486
0.166560738562524
0.167660185116277
0.166417782901889
0.174646531778665
0.167642384694908
0.172023207564265
0.176090676946358
0.173989507880365
0.17508065607038
0.177964362362295
0.16910107728453
0.175614085867388
0.173912596250649
0.183015144331995
0.178315255082077
0.180757877177394
0.178173069037058
0.180833016422425
0.182295815669344
0.182912255835309
0.180388568553759
0.184418550114076
0.178780462458212
0.19090789530277
0.187362243930854
0.195059923214516
0.190002779878307
0.194844800434094
0.188792808653308
0.199576840109329
0.194861778151808
0.194481010472472
0.196233712040997
0.204865782840013
0.202400034159365
0.208260270235622
0.206149647721211
0.210021371853932
0.210810961721837
0.220554949216453
0.211707632078386
0.217182067815445
0.213634706402499
0.221735367149545
0.224971835815269
0.23430014981017
0.227783723014233
0.234326667514227
0.234572528753438
0.235786703080936
0.236524738727073
0.242626404796249
0.244071249013152
0.243623723373922
0.244108728723088
0.247970919997032
0.248068776391295
0.249812661895007
0.245674950952924
0.251481879206561
0.249942923834139
0.253615603765717
0.257008643274653
0.255051485928051
0.248211344115626
0.252621132014418
0.247927962948331
0.254775062486495
0.252741385310148
0.255804934526969
0.249078507234004
0.2481493619248
0.24632556193783
0.25513920385069
0.25130695165739
0.251637940255421
0.245078157594014
0.246184922183
0.245943214389601
0.250904038037463
0.246169572496703
0.246038182810241
0.244646624370563
0.249140593529984
0.246108753956619
0.247376984759774
0.244983690160654
0.244655360104319
0.241292503836818
0.244168212446167
0.2445671869411
0.244236921560594
0.242969389043257
0.244828483759156
0.241238440659107
0.247594009911165
0.239404485181493
0.240853629993918
0.244058820304653
0.248741346699119
0.246832761510652
0.24463941781821
0.242131783306819
0.245488559241793
0.23942461242744
0.245129365126404
0.24828543907
0.247765192841492
0.241187059739323
0.240724376803476
0.237865168614503
0.242100621237532
0.244863533158313
0.245024764000683
0.236975196180326
0.241330747571282
0.238937566418632
0.240448904145827
0.233888023591209
0.236960966589525
0.227287466808069
0.231149914755406
0.2287023902746
0.230899753081298
0.226113972038457
0.223247012836044
0.220850179150039
0.221323754781058
0.219917732920832
0.214418476543057
0.209195575995565
0.214472506429893
0.207842211610751
0.212681710894951
0.209385207375186
0.207791424628428
0.204607637924211
0.203741093227606
0.202132749644763
0.20142746976553
0.197720754577047
0.197210884089964
0.19118776328479
0.192402067597759
0.191987260374085
0.188558486139936
0.185255248100945
0.184928252243679
0.180226225036241
0.178343470762602
0.178873961859803
0.178793703701823
0.172982907193957
0.170878294147715
0.177598486816222
0.173007869486803
0.169180242117165
0.170400862077769
0.16715433584209
0.167764868398494
0.163301452007629
0.166023774800701
0.166716535123047
0.16369939820356
0.161913853193172
0.162161412401366
0.159861883174465
0.160689607699212
0.158263287262137
0.158939280024549
0.155520733822272
0.151992608776186
0.154669522644013
0.152886034842237
0.154277009902936
0.151098645215032
0.146218067715406
0.147515113049395
0.148544431147015
0.146975925110124
0.14743287870242
0.144938134912842
0.140305821994047
0.143321944609997
0.144713481757879
0.145139914323905
0.142784029085786
0.143113675153337
0.139562267550742
0.143034954764075
0.140020483091639
0.138988267500325
0.140490139155882
0.139291707198843
0.136191042664948
0.135620045256876
0.134958503800433
0.136689978636057
0.135187496055593
0.131784819507902
0.13042063797853
0.133128778510604
0.126478540203089
0.130901814207953
0.130172471166252
0.129428253824071
0.127571289903264
0.12612544387179
0.124827467307347
0.125561025602011
0.126540840029852
0.126673146567768
0.124800769570636
0.128019165622356
0.124132223747382
0.122103177546375
0.122996376251322
0.118796333172626
0.124355368203459
0.123175720764805
0.121376903553683
0.121854787439669
0.120387418782362
0.126571794025409
0.125047848281664
0.121873876731116
0.118815822541981
0.119556003597628
0.120081080658301
0.119345399297104
0.116694287866087
0.114249470289782
0.114700352159456
0.116991172394263
0.118826550431385
0.119527897407744
0.11619740045603
0.117598531211484
0.114881155996637
0.114617041312001
0.116519455889092
0.11604661042348
0.116149157627296
0.118281234855405
0.117704150137032
0.120055539478431
0.111897310499016
0.116585345898793
0.1104095612341
0.111021364969438
0.111206989981772
0.114568544382017
0.110249510056039
0.117002532197685
0.11214346839253
0.108878385521997
0.110653290818867
0.109964051733081
0.110282003351227
0.110586438716264
0.104086652023486
0.114776953901421
0.111952072132778
0.11049451847494
0.107727434981446
0.10762379515633
0.105098762486276
0.104185856966934
0.110130310656136
0.108887766757921
0.105679342302457
0.106700592079679
0.105718291320508
0.109704081159086
0.106916526712348
0.105743828991174
0.107195954528451
0.106960972035377
0.106891149783891
0.106915510944865
0.105122770731033
0.107519970253436
0.105182015083528
0.104568588252119
0.106481341053478
0.107175308570719
0.104601760215703
0.10333244469428
0.107303120801982
0.107422433530711
0.101039367521692
0.105548047194597
0.105577112542423
0.107443080440916
0.106353978209509
0.104004155739545
0.106181642446654
0.102371179251258
0.101989279552173
0.103009195314805
0.100917323261935
0.102350550621812
0.102864437597136
0.0995307163003748
0.0987243055059064
0.103598094487775
0.10022504926338
0.0993395208501333
0.0973734984208482
0.0999441304751315
0.0992100440990125
0.100179030897171
0.0962377960778227
0.0964490682398416
0.0941431114194541
0.0942681577425315
0.0967794583432427
0.0994324073562319
0.0939634955392142
0.0921654402586422
0.0955652791037266
0.0946410085743919
0.0914840364244255
0.0950935432474625
0.0951885320498618
0.092977796157968
0.0930198579743627
0.0946285958539907
0.0911706032378631
0.092648527871185
0.0908505256165009
0.0909690717479905
0.0915025020081919
0.0935638478125061
0.0899589729175705
0.0891812758614467
0.0893430731283181
0.088849928758419
0.0899444924673904
0.0881247942912801
0.0845088597483273
0.0859082722883299
0.0847616653867254
0.0894978957462754
0.0903768929210335
0.0897375228458047
0.0878584067975662
0.087625155842058
0.0857091194239216
0.0867164534042812
0.0869481071180977
0.0881699981952692
0.0878080158293076
0.0877288234782788
0.0848208848172654
0.08500539806545
0.0862228136919848
0.0834059272030006
0.0856883963728898
0.086355226500036
0.0837242507172209
0.0813337352943787
0.0843790528077626
0.0824754303103888
0.0821896790524005
0.0802125458394231
0.0765092463184936
0.077985948352475
0.0779989608061883
0.081460207707682
0.077257991967196
0.0788265414257305
0.0811994668545652
0.0808262550271031
0.0789611568759137
0.0769592944983223
0.0759969055810147
0.0762801729033473
0.0741562824863666
0.0735547351137432
0.0734698180638899
0.0740064402566743
0.0733861456881983
0.0738699504840079
0.0733348340974616
0.0703222999781004
0.0730333828471782
0.0721411602272959
0.0718619913155454
0.0720993696996751
0.0716270385687582
0.0714482376794009
0.0686749459202856
0.0682615467229456
0.0721112201649655
0.0715482398517349
0.0695751284210233
0.0691635456821072
0.0681151267810259
0.0654621503397304
0.0678093670827155
0.071490651016495
0.0700712473892252
0.072028290123685
0.0717810105258098
0.0676472081654859
0.0661354559796307
0.0683877746603275
0.0680508922661548
0.0682630076660215
0.0687616243734597
0.0672760581318483
0.0669032144032659
0.0677916753224184
0.0660000098743057
0.0637376966358494
0.0645720666896645
0.064601914650186
0.0684180564293479
0.0672479035498474
0.0641109539823773
0.0626246975421836
0.0645801818545866
0.0658312427332241
0.0674242990103715
0.065435849447715
0.0641017357163751
0.0644664138605523
0.0647043400514247
0.0639365461411867
0.060787055590708
0.0608102370331784
0.062649813514283
0.0615247896610473
0.0616256348127583
0.0619980713133892
0.0606211513112238
0.0604766179843903
0.0618526365742979
0.0587131054162452
0.0603149237175717
0.0592364890571353
0.0593923240690744
0.0607582471462588
0.0544285994649527
0.0590470573906108
0.0613390806979973
0.0582122828281302
0.0593943617523009
0.0598621513110711
0.0587791079646065
0.0566456353599913
0.0583722045024271
0.0587588055154097
0.0593474475264574
0.0586514964997514
0.0601728028767856
0.0567750874307255
0.0571060106611619
0.0570866958453407
0.0593907085633935
0.0592878479929848
0.0603235731582377
0.0602334620286386
0.0594853860922906
0.0567360830172897
0.0593163546013223
0.0590140500715845
0.0573902529813977
0.0564560280321486
0.0556196260298003
0.0570773227680397
0.0563990157753148
0.0570201019592387
0.0571116282938115
0.0566422576074768
0.0563675592862285
0.0578393922719929
0.0580854850508498
0.0581656994555386
0.0599366619142364
0.0567879284770116
0.0560549419948101
0.0549918797847924
0.0565070392673608
0.0557490498073615
0.0567343722470915
0.0549647411520876
0.0560044653659322
0.0552207487427022
0.0559475510541318
0.0546698853551122
0.0538012134255025
0.053787032642742
0.0563632155032811
0.0517204934901773
0.0499138388797696
0.0538061888667577
0.0571088702817775
0.0540842730164983
0.052294753783656
0.0519570296383183
0.0519474101031769
0.0530196802412887
0.053669856503445
0.0510209210680217
0.0518439935304613
0.05415236677972
0.0519283717730827
0.0492752356601212
0.0504420947011095
0.051355162961242
0.0506877689721681
0.0513025584668002
0.05186914726401
0.0511468424330343
0.0519626841319946
0.0496679924709308
0.0501895442328239
0.0491085572663847
0.0517600478941117
0.0528664824149754
0.0527097114911193
0.0521696433016779
0.0507140817897531
0.0513216260308831
0.0510636997141245
0.0496795910526832
0.0527404489063538
0.0541040211221129
0.0523050058375248
0.0512912748623802
0.0512203746227246
0.0487367652155945
0.0513916910352032
0.0485243018209123
0.0513645714792292
0.049400850878881
0.0514447321361692
0.0508266590322283
0.0526786877272265
0.0481613787811462
0.0484555799882624
0.0490726689827829
0.0520974654661897
0.0489568321892303
0.0487783760559701
0.049096134726183
0.0496259762361991
0.0482899378055661
0.047763492289544
0.0470903841957383
0.0483497899439838
0.0471404301489317
0.047971348768621
0.0442829256503615
0.0494408325840203
0.0457184388322134
0.0459827928994018
0.0436730004168955
0.0459901191951794
0.0442555578215119
0.044955209086748
0.0465336864900099
0.0470543059149339
0.0438089158984489
0.0447497966409442
0.0464743643521926
0.0424236900713836
0.0417057524278751
0.0447064376850759
0.0424360525988949
0.0438518071730023
0.0419595498652854
0.0451269538161632
0.0431601273288812
0.0439818408688453
0.0439923586415886
0.0445932934976378
0.042383733423741
0.0444848792132711
0.0430549789840287
0.0430137316338184
0.0437508250363709
0.0454764547947438
0.0403288866493174
0.0458683538161923
0.043189497356571
0.043583853765327
0.0413284543957895
0.0422689889047859
0.0420988561606975
0.0446035501920459
0.0422313878794935
0.0429866418271805
0.0417925536694563
0.0425231705236535
0.0427110739712207
0.0421794627750147
0.0395091213470881
0.0414165922333888
0.0413477152662702
0.0401451270242132
0.0404079216667286
0.0427550718621651
0.0409096771165773
0.038655277456757
0.0399397730345214
0.0414267883971631
0.0406031745336765
0.0387348085331743
0.039276568830821
0.0382246593470588
0.0361252892673359
0.0376476928505702
0.0370066164038449
0.0383797079429052
0.0385282240574341
0.0393783713338377
0.0384361286478644
0.0382819246229338
0.0379544929991821
0.0386266553397184
0.0361226847181521
0.0382730792837345
0.0368097462331653
0.0369666872558339
0.0362878489668809
0.0410373710333815
0.0359639696291015
0.0360291510906488
0.0348030222922233
0.0375882254291064
0.0352152320689445
0.0343124125227829
0.0337312469574928
0.0376069511139778
0.0376090947145115
0.0379858905348098
0.0372919836745914
0.0383241293613878
0.0365076737825323
0.0381303827146157
0.0361505327537255
0.0376556472481909
0.0374644377500512
0.036574743286625
0.0328346652059794
0.0381192444732359
0.0363455358030512
0.0377454513078266
0.0353604389184395
0.0361591847964925
0.034603998106683
0.0380652487640872
0.0316424746974328
0.033156818604048
0.0333183881454843
0.0314627725498252
0.0279013650378725
0.0305682427939248
0.0281837672840363
0.031150300634904
0.0305590530832053
0.034281862833542
0.0283155300192947
0.0249624017761184
0.0179510442086097
0.0269654085148889
0.0264940597556594
0.0242030201502064
0.0196050619117759
0.0256540144230495
0.0202253723642458
0.0226621516782478
0.0185500503266608
0.0282161841875643
0.0172816997926272
0.0265310923419583
0.0236916042441547
0.0273441045439868
0.0283465844870084
0.0342497485974985
0.0298103210597433
0.0362611259786352
0.0274513764936309
0.0309626980611524
0.022689762506609
0.0297333327355323
0.0192095569868768
0.0323375994303177
0.0206593298085494
0.0312719465038643
0.0164598636671856
0.0264198578234278
0.0184581698199928
0.0282012545001681
0.0148856758146688
0.0296276286128065
0.0112379139462571
0.0382416126603801
0.0160110179619427
0.0378384983733163
0.0136376729696392
0.0368462405423616
0.010067456706818
0.0389058338672238
0.0148396816661128
0.0490800240675332
0.00928003762360333
0.0432356134165209
0.0169310109103615
0.0532165562913283
0.0124397087657751
0.0444291591569155
0.0217617725829496
0.0468660338975511
0.025077288918093
0.0381310795503307
0.0323015931378761
0.0349895654682894
0.0341366168764093
0.0292045411037107
0.0409607120334472
0.0243566036358205
0.0424055134118248
0.0246246206109329
0.0395008659264772
0.0309004258640942
0.0361547787020877
0.0298556927961597
0.0327224051214971
0.0352968417508299
0.0310527199652553
0.0355992176020156
0.0310413529373088
0.0331544557107717
0.0312124468118185
0.0319656572520766
0.0340061741309695
0.030332897739324
0.0321086904539597
0.031840694014952
0.0315523087820243
0.0294934143718502
0.031589667148884
0.0309763470979044
0.029619093090695
0.0311982693634949
0.0297010347880361
0.0281288009730621
0.0310123969819164
0.0289287572307487
0.0294529775068359
0.0324429751213875
0.0304552465887344
0.0294108957319487
0.0299320299071855
0.0312506947425029
0.0303604828446716
0.0331980756718073
0.029029213226344
0.029091980355258
0.0303370582292331
0.0291458258919989
0.0282217058374312
0.0311834227739159
0.0303715718788403
0.0315342016562943
0.0312139659878017
0.0282721983710851
0.0296031133393565
0.0319122251766713
0.0293812709495598
0.0298768023860993
0.0299932916669675
0.0325550767904161
0.0308179228632111
0.0329428838781361
0.0314746144647291
0.0308266492367311
0.0297963815796852
0.0302472110477135
0.031299785272076
0.0295936140941034
0.0317075485342491
0.0330275212056165
0.0322878917846951
0.030839734094519
0.0301180546698198
0.0292470198371761
0.0283218979541968
0.0304912146986199
0.0314505064695383
0.0298957338956388
0.0293501932276984
0.0305641927080636
0.0293862555778228
0.0306055969620449
0.0273649669309484
0.0296524191998726
0.0296512074276363
0.0312371789606496
0.0312427762270818
0.0299190195278757
0.0273485507366683
0.0312607889646053
0.0315889815299716
0.0318802380031408
0.0290258505576321
0.0312457917956451
0.0310441541190262
0.0300248466609554
0.0297010417690599
0.0294778038857504
0.0276817336728002
0.0303415556950397
0.0292674310817214
0.0282693462240561
0.0281796005933128
0.0314922312738731
0.0319665670419733
0.0290811575497235
0.0308366301178037
0.0309523952975072
0.029566078836137
0.0314478159556719
0.0339489576763286
0.0316330669152901
0.0291769991463085
0.0321250760291427
0.0308629328206178
0.0298488059753684
0.0313135458965002
0.0325213661002966
0.0304470538198355
0.0312027233514611
0.0310855944598488
0.0316293399829776
0.0313051653357049
0.0349182534149604
0.0329709277407576
0.0332437223617215
0.0306408849949871
0.0325810230189499
0.0319521411697594
0.0289604184863142
0.030476945776288
0.030123264054541
0.0302835121734599
0.0303742575067792
0.0308828901406085
0.030523723954392
0.030224441368323
0.0318886627670292
0.031408581186982
0.0324028603337014
0.0316166506224266
0.0317834815283227
0.0282920733748276
0.0310173239822274
0.0303051559556819
0.0328606894063996
0.0321832239853881
0.0291489154933038
0.0307183254449619
0.0330485908117171
0.0314611489750714
0.0317764233512606
0.0323742219863706
0.0312058442763902
0.0292507520449515
0.0325869396977126
0.0321033947745023
0.0321591062890067
0.0325625860484245
0.0317721869176477
0.0287911703016782
0.0314423997189187
0.0340099404396099
0.032368903098969
0.0298527375344322
0.0324579365039314
0.0326823055791005
0.0329577320184379
0.0315322586312601
0.0323387500529207
0.031339979143076
0.0316964308296445
0.0307930404218487
0.0342658899129771
0.0321469972223312
0.0320054005305926
0.0328201195203938
0.0333424765341476
0.0297701363486056
0.0322422563253233
0.0343367739615797
0.0330165625065492
0.0319786345112068
0.0344540223902258
0.0322457042447185
0.0321860985421069
0.0304220382438802
0.0324272800313922
0.0328180370111554
0.0341776782114734
0.0323084728550968
0.0311878242237893
0.0302020137732893
0.0337540062242511
0.0316655063881173
0.0312203484288502
0.0334687041228531
0.031435473732494
0.0318416791636164
0.0302783363165093
0.0309620511543328
0.032986715655459
0.0299452497938133
0.031132962875709
0.0312241190959487
0.0312583820476483
0.0290371383159442
0.0311746084534368
0.0300763040831628
0.0320218837984108
0.0302424110058864
0.02765510687256
0.0291122305601654
0.0324161760881912
0.0294867077774147
0.0314173062536513
0.0291357131622094
0.0320000791323363
0.0303640128279156
0.0299891644090809
0.0310422484341656
0.0318552085798724
0.0279852718453895
0.0295757422425082
0.0303183697006588
0.0295178485915613
0.0292221148895689
0.0325569287956201
0.0281787831451575
0.0317230997782176
0.0317449828792642
0.0323914584921599
0.0264515865691448
0.0298444372195114
0.0301078582476673
0.0308702713664155
0.0295113299352999
0.030438322071445
0.0296984184746401
0.0307298837001251
0.03119273062781
0.0311681898192297
0.0309843060848053
0.0305936371827169
0.029476339008861
0.0315939962863913
0.028643217211877
0.0306321525876145
0.0317634148633003
0.0304296570983961
0.0274064290482735
0.0294689226973335
0.0290022401508019
0.0316242533498323
0.0265130800910888
0.0306412655942975
0.0311028465418732
0.0289505216223299
0.0286994053314748
0.0289202892021604
0.0282398151444127
0.0309737640340923
0.026982325568574
0.0296769012278072
0.0300615487514532
0.0269522635359502
0.0281078160528189
0.031053579704045
0.0280366067856599
0.0283095493306279
0.0292070647506392
0.0308947523830748
0.0300152889241947
0.0306666929113492
0.0296759961009324
0.0294730013610904
0.0285003013716896
0.0331527798216537
0.0270916805636268
0.0271911988045099
0.0283477232958546
0.0315757765405223
0.029834279050527
0.0300464326162174
0.0301076708529153
0.0273652790531137
0.0280039476300057
0.0311678962171117
0.0275043711412291
0.0287412588042545
0.0273855344991472
0.0289373726298497
0.026006008927005
0.0290999150216659
0.0289391058500127
0.0327834105860356
0.0295187881034533
0.0294873061619879
0.0284488984486381
0.0283935390565135
0.028417323591512
0.0291669872021583
0.026626643806387
0.0289602193503142
0.0292316622810192
0.0294271594418383
0.0276177813379556
0.0291930304049859
0.0278919899970642
0.0301272329532613
0.0265189822484674
0.0296612050101922
0.027482711762431
0.0301740560803994
0.0254750340449288
0.0264887283523544
0.0285781044125511
0.026732206300472
0.027127635955226
0.0284407325509383
0.0269115762788953
0.0275325485843769
0.0288402792040507
0.0286945738827263
0.0348360908260511
0.0291502921367751
0.0268523770834477
0.025948733303508
0.0257566577564627
0.0278031729600774
0.0262150528797907
0.0250842846803304
0.0245024516904708
0.0252782498874518
0.0258869072181614
0.0271064630602858
0.0279508827063592
0.0249021035100533
0.0255872784652708
0.0254934053923498
0.0244022809195216
0.0252471487261409
0.0221687508663319
0.0261324962834142
0.0252196347132827
0.0231739371902352
0.0274468644364432
0.025762545821286
0.0251607553964017
0.0235815311979747
0.0315616766604046
0.0359604109276489
0.0249233896221907
0.0279420051588248
0.0273301819335728
0.0301995783973244
0.0229578749068183
0.0286144607990771
0.0240653370707972
0.0266852231277333
0.0233250041009997
0.0273959620371691
0.0227482240975524
0.0241449418298612
0.0258373421540857
0.0265878985036337
0.0232502965365554
0.0262160273300074
0.0247883808460972
0.0250495594939206
0.0247226573373909
0.0252536492387281
0.0228106485385159
0.0246107970152585
0.0217725989514535
0.0246345180673989
0.020228805190594
0.0342751195383184
0.0280156834036228
0.028088777131344
0.0231300112297819
0.028412107618377
0.020432940135041
0.02739716412501
0.0232051726932583
0.0255142267403574
0.0243339613108988
0.0266127554272226
0.0226691617926204
0.0249310577690513
0.0236126092324069
0.0263548618371005
0.022278870036348
0.0254716234438046
0.0226109297448561
0.0256834153776309
0.0192028690679019
0.0225140367399206
0.0215006831328999
0.0280620570740614
0.0230350285753921
0.0303844005172614
0.0195568294999749
0.031548345396355
0.0433174538782805
0.0263210547425555
0.0273059356942146
0.0218775638508545
0.024123511732779
0.0209286301671461
0.0242192846404469
0.0213588074029313
0.0250139841937977
0.0223946312790402
0.0234786571299943
0.0225877219511252
0.0231325018348014
0.0223188611793761
0.0236783270788976
0.0216062461746153
0.0216924351591392
0.0215804129403965
0.0249877132400198
0.0205552416822014
0.0287435728688187
0.0385446251755274
0.0264451228901926
0.0278488732868523
0.0280614157138545
0.0157895779448233
0.0535611886157537
0.0262891230475415
0.0286854083787779
0.0241829581418278
0.0238109528938352
0.0223957704511068
0.0266935152005227
0.0219681668447706
0.0243231397223979
0.0295291154521356
0.0219390037941013
0.0319141812790892
0.0223705463888167
0.0247839149768517
0.0222618204930233
0.0240668312998219
0.0220815724639142
0.0239032418986488
0.0208354042527009
0.0229454948117977
0.0237089920965665
0.021882992013716
0.0250060811357064
0.0201879455610152
0.0270787352300123
0.0282193724850324
0.0223097535483905
0.0231199006717835
0.025154856767763
0.020789253123091
0.0278013628650037
0.0472708591312364
0.0185288361118951
0.028904797906059
0.0184349502208748
0.0279956720207975
0.0202020763329236
0.0266437133505111
0.0201812163871401
0.0252571925231751
0.0206726055903626
0.0267035091428186
0.02183719815572
0.0222833343450824
0.0214006536490162
0.0234665379848849
0.0201279726200115
0.023968747397247
0.0248680384124498
0.0229295353325607
0.0241515011170599
0.0210232240000896
0.042403091892596
0.0437848626136341
0.0370797369401926
0.0372998015618762
0.0271204772522933
0.0255984306923436
0.0203095627880805
0.0252037944637576
0.018656236408785
0.0286598169569926
0.0207435676692645
0.0274181542833115
0.0220225829685807
0.0274524709475477
0.0189352676745819
0.0250505169965485
0.0174691699744656
0.0272953517461983
0.0156789696767558
0.0282674333172902
0.0173283010887247
0.0302339476701688
0.0132337382700359
0.0386420778919802
0.020779051788813
0.0350302896423605
0.00524456327630634
0.0692836593447373
0.0422060296787069
0.028580909709422
0.0309011435353939
0.02149136383699
0.0259610828546305
0.0217640329747214
0.0233717487831646
0.0305840664096004
0.0234600207827927
0.024408770491929
0.0239867009905945
0.0243336650284252
0.0248643256519144
0.0193363088428921
0.0311942661515528
0.060535782160582
0.0277627186226724
0.0329838877131256
0.0160937947226418
0.0339536937379181
0.0553791418379354
0.0211113107319165
0.0318635288964533
0.0250296205643866
0.0238638530693214
0.0218701734204033
0.0214434882646521
0.021738601349176
0.031833799369909
0.026529831707405
0.0199459609023024
0.0269385909388945
0.0179877615351984
0.0309442794634717
0.0212462935103474
0.0368812014989215
0.036826792539704
0.0223987193930879
0.0310004993579603
0.0250482583778281
0.0233126047377736
0.0260575518786429
0.0267099224096463
0.0246897137655278
0.0336877826805473
0.0402945798690573
0.0244004553498685
0.0442306996541151
0.0357319452028452
0.0230618561793826
0.0306811838480403
0.0288452190824389
0.041178887258632
0.0159339824176705
0.0408342675098373
0.0612277641150803
0.0337246595761068
0.0570079419720904
0.0169043210377385
0.0373883534091396
0.0160102447020595
0.033863082794971
0.0104399947217312
0.0574846922063423
0.0130318007959463
0.0363681266794148
0.0124640824403131
0.0484654977818544
0.0333230912308373
0.034222318137372
0.0244021279631253
0.028650461256797
0.0197133998367018
0.0505434421808399
0.0301467938231673
0.0227047809481601
0.0640196974578333
0.0495860951718406
0.0582169147845205
0.0342672398585116
0.0223297689445473
0.0787504176964229
0.0241019257371095
0.0397171329956106
0.0197383854722934
0.0338213864030922
0.0169211653472538
0.0338872892074463
0.0668318063437638
0.0340381166517528
0.027359346003489
0.0370816892159248
0.0207303056463303
0.0654963653821258
0.036501768974347
0.0368288524730261
0.0241583146688473
0.0438765482948355
0.010627037725124
0.0996186551242085
0.0372490750393581
0.0507470810540163
0.0579206733100547
0.051045629690516
0.0496313278139935
0.0406814476098736
0.036298257338887
0.0500283662108878
0.0551341437006215
0.0406523270690015
0.0236804739449162
0.0565953906237334
0.0629221608810104
0.025885303759056
0.0488383341195391
0.0296074538839013
0.0322135328127671
0.0764774220582695
0.107116692459361
0.0693700793736621
0.0448002507210907
0.0412459308376243
0.0756263019977896
0.0399097667209162
0.0409183930111826
0.0383159491940369
0.0375760348250547
0.0364819413718637
0.0340039851880861
0.0584049102003337
0.0384786026820579
0.0473743831272783
0.0399924663154168
0.041724188246223
0.0660867767613448
0.101472659280305
0.092367899675157
0.0449256406855934
0.0992318470595234
0.060814020263726
0.0616313658115483
0.0457576756263252
0.044693593959732
0.0597896426465853
0.0501715936573988
0.0501179449932925
0.0436041053926879
0.0841089689516388
0.0571583780204389
0.0663087706987285
0.0823314501921435
0.0494202804766167
0.0670848680595903
0.0308388194716478
0.29265233506229
0.0624419811258981
0.0933015190697387
0.054689263210471
0.087578158529786
0.139405723914774
0.0724282107403774
0.0614122391098231
0.0639450460326962
0.0573466778423515
0.0678743040946555
0.0709737431275388
0.0787453673898333
0.0824153033136695
0.0741923610176239
0.0598500110529915
0.103729430362714
0.148159737286177
0.141088951846306
0.105530549048484
0.0823031792284235
0.103003098741877
0.106414546283961
0.0792562376547676
0.098003082099117
0.0773742329312323
0.0954166190106057
0.150755396150164
0.0939782840206037
0.107032496462796
0.0919539353991003
0.147573378421432
0.0752345116749154
0.187853063219126
0.1225954138947
0.125479692998203
0.102576555325466
0.115299971915861
0.10979028059051
0.103943605339639
0.153776446285237
0.127592791923932
0.122848495535678
0.126027427219684
0.12033809823223
0.124695304435947
0.121616395275747
0.130731672473695
0.116778101984969
0.181947907669943
0.126430856625907
0.343629094590734
0.147810948392581
0.144154254993138
0.135614929651503
0.13523907626772
0.178788519560011
0.141092122393382
0.193002852743126
0.164384940799304
0.130458478851978
0.138895395239913
0.131479083543194
0.142421533133784
0.126488744350447
0.147636941030982
0.119173546553394
0.182318534093009
0.119227369166626
0.192327190377663
0.205419351588409
0.145813780780787
0.14095598177372
0.134946966824109
0.132938411785717
0.137947362037314
0.128570980664894
0.14173502314339
0.1622549472576
0.123492062027761
0.145451290572314
0.121779490796232
0.162804892686554
0.153175150514741
0.129189917463782
0.138386477043884
0.124917256901207
0.141260688647586
0.116706323043493
0.141817521148046
0.187927756585014
0.125764485978634
0.137013168604456
0.124266894182822
0.12511590800254
0.128382767602064
0.125099392443756
0.125810668274636
0.128764215428659
0.121926835088718
0.133853333458583
0.122788383470666
0.130141511026655
0.123791163022617
0.131726025941994
0.124305129239179
0.13138691133661
0.123627207496359
0.121243749477637
0.122889380849288
0.121066465062188
0.123405392806131
0.121340652575026
0.127901595010581
0.129246070732887
0.124467262570251
0.125534818843631
0.122503407288232
0.122374743739727
0.120920756655672
0.121708354821985
0.122307412260057
0.118907860075444
0.118971584060648
0.117491765385629
0.11783425608251
0.118266086038986
0.11854718147829
0.116245543806919
0.117647963228194
0.11078401595021
0.124923461574575
0.0991217966127117
0.185035785881549
0.131546766485996
0.116773303189255
0.112701840268399
0.105748630759537
0.110164668324953
0.0940981246547255
0.152666843863311
0.132433931282777
0.105711529972859
0.104576933645308
0.0968462655665793
0.114559976653867
0.109768417484768
0.0909759529207878
0.11023371072162
0.0781732898807977
0.155758643710582
0.144970881406004
0.170945275547107
0.19207303478651
0.11609267120893
0.0916869046780295
0.108152638171748
0.137428725616598
0.0783783089903112
0.0975901053684296
0.0772120089407784
0.135667311656852
0.0988581045358194
0.0844348035326038
0.0859407587556249
0.0755148570886171
0.105094526886733
0.119998097669874
0.0923161248490681
0.1095537514218
0.120918236904014
0.0974656057089235
0.143870726774193
0.169341604309824
0.119579798973381
0.0793539193924718
0.0890792824100275
0.0768331648715491
0.0854820430877303
0.1450648142139
0.0848786243183964
0.103072428659029
0.0703554094966411
0.0745460193409607
0.0796819018662246
0.0984254338526563
0.0892761365208301
0.0782541908738512
0.123794204899674
0.0672663405336378
0.101499068304853
0.0926715784439191
0.129757910776862
0.130889980923265
0.0951468769587994
0.0675262403339552
0.118368064383712
0.121341888755402
0.0847810726164669
0.0990342401827831
0.0664138702939718
0.0782565933545906
0.102396689907923
0.0704249675680698
0.0979960616497049
0.0938732803918672
0.104033689292568
0.146520023113413
0.15021219682364
0.139959084850833
0.08847178753679
0.0713723570963877
0.0764165270223258
0.0747277352262798
0.0842726973503393
0.0625271238778522
0.109486108492368
0.0872510700786651
0.0814604398323659
0.134678571774147
0.0853025391811598
0.081301057646884
0.0830970970626661
0.0756007240299824
0.0927510374018328
0.119479872601833
0.135739057304357
0.102737777351637
0.099300105409072
0.115958205056566
0.0932978379439395
0.0993716317008353
0.090048796625052
0.0969648966213816
0.0954150314682645
0.114223533879616
0.105353719927488
0.105273686084333
0.108459700819433
0.10596734553663
0.136684590470976
0.155724470403545
0.109711797785721
0.168253161141327
0.146835780845039
0.19109724736698
0.1456732193553
0.13588415604851
0.139852405180829
0.139094274939504
0.142638964417597
0.139887352555941
0.15084480007595
0.188557398914792
0.14674799208561
0.159859897212668
0.147342835782803
0.16202016918688
0.148236508955824
0.2066572064812
0.175085493348323
0.233984387434407
0.21665630740186
0.190515089617439
0.178884002569992
0.163769679225564
0.182681831146928
0.175133774184414
0.170781112122994
0.167933568126508
0.173379846423571
0.205941147745229
0.173750775464999
0.17514562792748
0.170048251661052
0.175165063057377
0.177538419956863
0.177284215557722
0.177811494980755
0.179940588791069
0.184850607445407
0.187931886246945
0.180524796678199
0.27440883891007
0.205040723116627
0.194642964361307
0.196721320457836
0.201826709518558
0.195719254943497
0.193727503857577
0.215034244093469
0.215366115819098
0.20486915013417
0.208357866258228
0.204774570757452
0.208602680766749
0.219847508596218
0.244563997415636
0.201839917401818
0.224684103887039
0.198289895244488
0.250437945233516
0.258662088752005
0.235143595925937
0.24014564275128
0.220929061906763
0.220766211310972
0.218916302043991
0.215103095626715
0.218156426969454
0.223024069082126
0.216830935672354
0.216627831126238
0.211838739023391
0.215290788491556
0.214736054640625
0.215375114734712
0.241644277025407
0.215675277678431
0.216507502198382
0.211410636957074
0.211898351949446
0.207078448449044
0.242116184283601
0.230537575580355
0.220072069889902
0.217726396083909
0.220003868731636
0.23419076878385
0.227323285229159
0.203208346944294
0.210007797841914
0.207002305538275
0.211094801868122
0.208744713721805
0.218149565905487
0.236651715942508
0.220639129364615
0.216442530510521
0.218455975387004
0.216054237085788
0.217325924379353
0.219710386403551
0.219213845517061
0.222612744181762
0.225296928886642
0.232383158695391
0.221614614681938
0.224989592507462
0.240246589130982
0.240487559276752
0.241027884159732
0.228060103910889
0.227861567663026
0.221271305719379
0.22245121539388
0.230580705362973
0.223878462106036
0.21655685171691
0.218497589113444
0.214447594745956
0.220566763357297
0.247299855911762
0.221249086797996
0.223070595028257
0.214211542697393
0.20579527069384
0.21023747531489
0.204863415800981
0.204535320762443
0.205297383924161
0.204356427964761
0.199839803732807
0.19679600325574
0.197602357530617
0.198677983551094
0.196813434181507
0.198871125210577
0.194311245112349
0.196233811408523
0.195223810503621
0.196068308131516
0.192558163550009
0.190449180809131
0.19151974194856
0.191097877524568
0.205937063002765
0.210582859760845
0.209962797184186
0.198640563098993
0.200749114193947
0.198802536966212
0.188178605560491
0.192616493382527
0.187642503029963
0.189552699314965
0.187910645786542
0.192083226969183
0.187607880436712
0.18871955912991
0.188114533509797
0.192576584104735
0.18524282723192
0.187974013562645
0.185883058385712
0.186505753324469
0.184214016830283
0.187800455349382
0.186032008093959
0.19473275487513
0.188167478686658
0.187890498567121
0.186608163223211
0.184403798526387
0.188047847363175
0.18560905066454
0.188004754252652
0.186193037488662
0.181690134097879
0.181749572059547
0.18222796404471
0.181256708998997
0.181297863560313
0.182006959361054
0.180020341611805
0.178767461845579
0.178506650007947
0.173565702439999
0.172857446134284
0.176762270243875
0.171878456988488
0.169417628325512
0.169758773487919
0.170620666709079
0.164854450027825
0.163818342755726
0.164931375262646
0.16342052009443
0.15907670577258
0.158740592235508
0.158073703621485
0.158856538183698
0.158815853410292
0.157583600780101
0.154725544442834
0.154657361230808
0.1545485277914
0.151466431943749
0.148158856067468
0.15244843291033
0.15157841687346
0.152449527394098
0.151660198605187
0.154467055768631
0.153610613276082
0.150204741605305
0.148485672075299
0.151046424579942
0.152894190823439
0.155219086455812
0.159150438146116
0.158690532762753
0.15884557525288
0.160619552678475
0.158378255299008
0.159955577908187
0.162137160355271
0.16412931223956
0.163230679755338
0.162376306073021
0.162749148292989
0.162824281131647
0.165422469090562
0.165530358190211
0.163603760312674
0.163665916476719
0.163033816858833
0.163901921154119
0.163288536542086
0.162342513434552
0.163248269225094
0.164388557251326
0.165046777294031
0.16296487013716
0.160352868959647
0.161358092060819
0.161729566185063
0.163733304103466
0.161986473485237
0.159839938244705
0.160732925483322
0.1598924686148
0.159657130257793
0.157609043512591
0.155532869593779
0.157616687110831
0.157087647137691
0.156615162915381
0.15432560069134
0.155827574775938
0.155342168109296
0.155438246800634
0.154695575061659
0.155906508315132
0.153134068725316
0.15101855152593
0.150882240351374
0.151540063755842
0.151079592787476
0.150100044996708
0.150620053637829
0.148813940997291
0.146713121850586
0.148909717184703
0.147085014595483
0.144663647335005
0.145167717937814
0.146630417025567
0.14607270249493
0.143821809692675
0.141838430339797
0.141999506071659
0.140357192630065
0.141087204297556
0.141026327887443
0.138189771249214
0.138846607728152
0.137572320067221
0.136033117645783
0.136848896873092
0.13691328992166
0.13648933041567
0.135974725123239
0.136006704284443
0.135463668249347
0.135156500238596
0.135239216167101
0.135728090354007
0.134770330603973
0.134523977891547
0.134573536577858
0.133906308828084
0.132249064537665
0.129784687953511
0.127799782175841
0.128547685678082
0.125925429125189
0.123506850375097
0.123854579577626
0.121280294985963
0.119726049594333
0.121589840224698
0.119042787978358
0.119843018587252
0.121407745553328
0.124103663702751
0.12636358120606
0.129614912081485
0.132702102319489
0.136206471659777
0.140220816276747
0.148186374091636
0.151721152259373
0.1578977944107
0.166282229950179
0.174967275268564
0.181364115506469
0.187954866070319
0.195041973638202
0.203866885814359
0.211765847490325
0.219919390787847
0.228051801501413
0.236657966963515
0.244912802985585
0.256003447733996
0.26089130232468
0.267961419523262
0.276146912623525
0.288016549823549
0.293527147427324
0.299340594692222
0.30846677262224
0.315060119652822
0.320356604870575
0.327585896994589
0.333113220183631
0.336222853914181
0.336591603358124
0.341035133249323
0.345559603968125
0.344393617261821
0.346634220451769
0.345950920436706
0.343238555660014
0.343553985694182
0.341159932831651
0.342582895894298
0.339747790275751
0.341626157068221
0.340587732389928
0.337351755024421
0.338395567282567
0.337155625260674
0.336385045033874
0.33723505562719
0.339108194501608
0.341260282052512
0.339633437570632
0.34273051569673
0.348085861306509
0.346475389378561
0.351336996633196
0.3543411214635
0.355989931532092
0.363157936591324
0.367076200136861
0.373234746793236
0.377476360678546
0.381820915026512
0.389019531918226
0.393685906450518
0.396577510435352
0.403893420759744
0.408073149344027
0.409187439858512
0.412126513558818
0.412296384070037
0.412689868700412
0.415295442130344
0.416143401719029
0.41788404609942
0.416164898237321
0.417885582561706
0.417717238358959
0.41610974814186
0.417166867022058
0.419870519884251
0.418691563893787
0.419205182633813
0.425206655152042
0.431422481618246
0.434632715138264
0.440185534319605
0.447416411819113
0.453713022755837
0.460143566075654
0.4633941164682
0.471325251000417
0.48131987463875
0.487239968693194
0.493778663798923
0.500027509068941
0.50534310570366
0.510511325833997
0.521975167080327
0.528906664214433
0.539288750671021
0.553536676408465
0.568174505972112
0.575462996628955
0.590381343713558
0.608038231946487
0.61604911069894
0.626158162838462
0.647538252446381
0.657647388057704
0.662453812188165
0.676228655129503
0.687357716148814
0.683799362879628
0.687393357190088
0.693245405019437
0.696931184542307
0.701383525886368
0.712876895048898
0.714128029495383
0.708729951625243
0.70230815182637
0.692423771181335
0.693809516157737
0.696842759631568
0.686857108402323
0.690922112181331
0.693062741459204
0.684172233758857
0.687639236369427
0.683380148612118
0.68173119098995
0.695172369445128
0.695248867088942
0.691093823129809
0.703598440672232
0.71407716900022
0.709819268624906
0.713471480034168
0.73221528653011
0.735745097025987
0.752967902553499
0.759932773966043
0.755315100457285
0.763562718463991
0.777939750741476
0.795096157915477
0.79591049730895
0.802522592558548
0.819080031654211
0.819091536027765
0.810905433263444
0.820475881510597
0.82501891789443
0.846965038195616
0.84655648455153
0.848256891040855
0.844729963623246
0.858863064680616
0.855333633429148
0.846649025098402
0.880508506431706
0.869899934355022
0.868977172152159
0.873549117030444
0.877952730398163
0.876820103867194
0.875811077824298
0.879936798281492
0.868588803343766
0.868570837430874
0.871434349519414
0.854641091329887
0.848880778324628
0.853783476463486
0.842329470026995
0.821167911219034
0.803908859305634
0.789649919221573
0.769599454534073
0.744341679160514
0.716493269769284
0.700812925240287
0.683608808929077
0.657473620549168
0.633827156154292
0.602522954112531
0.582801822871573
0.56473531992701
0.549452895134333
0.536814677715686
0.526261615552068
0.512063330512188
0.496930007610896
0.492552124637881
0.482664839305005
0.47370656609691
0.468636958563242
0.460096898381361
0.454694532027716
0.444029450584536
0.434304247027907
0.424638759866499
0.416581889582013
0.405538370538589
0.388499802014027
0.374794677005309
0.370404824581278
0.354639478293469
0.342598304668878
0.328137105612064
0.311231636131283
0.298178585679601
0.285445992066329
0.266797877323752
0.253171074945283
0.240923491144685
0.224181786913457
0.216427288075464
0.201308713681603
0.188361502191297
0.179332020594433
0.167402192750866
0.158528598195265
0.149474487206413
0.1434167516635
0.134316026038104
0.129106312506921
0.12399651079497
0.116291513187263
0.112446429343242
0.108340295227036
0.105147625679918
0.105904054633668
0.103431927439035
0.0997948373738099
0.0973401574336959
0.0939090453429618
0.0965816591340524
0.0921292554292474
0.0920859289522467
0.092346480126384
0.0914301256006592
0.0928306745770529
0.0947051832695222
0.0944598247883581
0.0951221663757782
0.0953955138568984
0.0960050169183643
0.0980709870304449
0.100040646587263
0.104564780466201
0.104163469719959
0.0998317828216603
0.102977666716437
0.105242347646332
0.10621786947839
0.105838577395461
0.1040313385879
0.108250604283513
0.106962251320223
0.107831343525584
0.106087642210898
0.105432727554169
0.105395275085993
0.106054305174798
0.107321247708018
0.106686972501123
0.106400554063089
0.109335750801072
0.111651852227569
0.108817634964484
0.109771930135877
0.112342363716287
0.110434909507978
0.109227841830779
0.115889898600871
0.113215986706328
0.112831661827655
0.116227329162497
0.115866092801579
0.11738914549768
0.120402002887807
0.11855711155318
0.112582813297615
0.113296350611747
0.117172029281908
0.114813099183479
0.119296592835065
0.114742125635689
0.114977718176373
0.115476643031725
0.115647252873641
0.118829009787931
0.118120523335371
0.117926013128429
0.123220177115105
0.122020079621374
0.121581485445441
0.12803256243479
0.133122014636098
0.13320135219757
0.134554483324381
0.143644343479872
0.144874037499165
0.147003289576241
0.14977294597042
0.151744798809769
0.150651051070616
0.154551155980166
0.154590460688872
0.155695729073745
0.146904907556228
0.147572036053553
0.1479962498718
0.14184251523689
0.138277304223198
0.135692969403554
0.128951283385407
0.127066113269969
0.127933188561527
0.129887900251222
0.127655737897229
0.121209461394512
0.129211074227397
0.128380319267913
0.126879257734643
0.130290575092875
0.131658161944116
0.130350678271151
0.127475997512567
0.12802254275038
0.12580849874355
0.122390667822742
0.128272094710654
0.13064661463532
0.120432358354847
0.126296897801535
0.126908751772496
0.126179238343577
0.121931142686705
0.118197905682744
0.121797234300599
0.116516397162515
0.111955806662771
0.113854966174308
0.113975675127983
0.11302551436536
0.116418783486332
0.118432244655458
0.109268277341653
0.114317363670665
0.111925693326365
0.111731015682653
0.112840621583256
0.115479201279688
0.10412637095141
0.105184010884142
0.113311402227953
0.110801858456836
0.0954898950157651
0.102963302041868
0.109321674382795
0.100062940962929
0.0981361189785084
0.0953473302197242
0.101719801172282
0.105739169342992
0.09675759266696
0.0963479878368488
0.0949878763163795
0.0956944751184493
0.101872732637464
0.0991323748168475
0.0872994896440119
0.0946296843098666
0.101845129630684
0.0961921438579092
0.0874813654363411
0.0971250114463954
0.0931204249138756
0.086613939306773
0.0861941352976521
0.0896957487681743
0.0950587009235679
0.0927419398728066
0.0917264868552514
0.0929172463771654
0.0911273947512294
0.0957386744638007
0.0939386660681441
0.0973389105007555
0.0983338483371869
0.101903607283181
0.0985716941736935
0.096728343851265
0.0990890024935159
0.111492874078138
0.102106282887473
0.103278352649447
0.113070607407641
0.119890936491115
0.104118653165351
0.11371140522691
0.122667071755641
0.121130967322169
0.117320201160604
0.120171779383771
0.120855928694087
0.127738126059509
0.138085535108427
0.138121939735433
0.137059055455644
0.149661693362575
0.159703496049666
0.15273299091125
0.149216473646687
0.160570243478664
0.169943271606262
0.172622700190477
0.169691000887889
0.176435249910839
0.184780787731912
0.189730725055249
0.193507824204344
0.187218114007011
0.203558796944752
0.200505712727597
0.192070396773467
0.193452203796345
0.194216101554651
0.174780927050291
0.182712205686468
0.176217392301058
0.176692262437395
0.184444681174542
0.180574457801049
0.18005562860673
0.172929508044503
0.191424591433712
0.175371000424074
0.17740153657605
0.182781107033486
0.164791027559527
0.175746833093591
0.185696325209219
0.188337052018084
0.178452880118742
0.173000257694652
0.173378055204855
0.178771078416696
0.173279431671342
0.171836707232884
0.178795642197873
0.165342884596599
0.158148729322759
0.16273937372742
0.162141708942524
0.166899668913379
0.15205677935848
0.154470735303008
0.161600705242029
0.145618930067705
0.148577037332404
0.157751061163562
0.159958694137511
0.170531561274277
0.159925546526147
0.161151443193226
0.182892553740886
0.166010862722229
0.154432299655228
0.182825575531158
0.187246048024116
0.177215124861891
0.136625281053816
0.135349349600916
0.160686060896209
0.154851037201364
0.152676456292877
0.155676718703477
0.171636764916469
0.15690682457872
0.17175924893998
0.16807864570582
0.151037364811851
0.169272810089991
0.159653179101693
0.172270039227184
0.151920999022863
0.165885092343602
0.171447440693336
0.169167166063263
0.192468314958063
0.189710985561266
0.200552772579402
0.223236988849022
0.195567668483318
0.162616280538185
0.183861369020367
0.214904077860045
0.231343512745846
0.212633836465836
0.166285652540616
0.183856697370095
0.188346283049602
0.220372973893675
0.215904551878188
0.230870301135948
0.243308479196703
0.199535509880341
0.195458883708523
0.264294299512462
0.239567486498371
0.234361368944452
0.240773550007791
0.254587443989957
0.238121382286656
0.232815681119076
0.21485854761854
0.223575870955942
0.244334171003848
0.226262341152434
0.191951113443366
0.218294590659063
0.224095801830253
0.283163526690019
0.241684756083014
0.229816286468949
0.194683817649902
0.199904978980256
0.172771627314062
0.282023762853514
0.236369223108441
0.20133838422459
0.168243269240956
0.183821213202125
0.204536916447339
0.194754559451466
0.265129658586187
0.275780140154445
0.257913318517156
0.248343119947689
0.175956107770637
0.191680171724668
0.13684733507449
0.168905758351446
0.129499103427143
0.224282125544391
0.172641622133913
0.195512134135364
-0.00534104303769227
0.230482600836921
0.198321670026268
0.14866669013278
0.177993989848922
0.232393852458567
0.190447093733848
0.211493614006704
0.192990526626795
0.235391853107079
0.302515751708759
0.106981071687167
0.123354633849228
0.386498392925409
0.153386824940984
0.0868352438691767
0.31971179112624
0.322755257005914
0.177454496978709
0.461321553936424
