3596
4000.36533379555
650.420452594757
1
2
2
0.076813114783971
0.0638831417106972
0.0808533251528496
0.0661344958592134
0.0832952350589696
0.0635422337546433
0.0769340567946479
0.0656615173687901
0.0749938332770859
0.0683310623503258
0.0799319279923982
0.0622600431022979
0.0758311046820232
0.0549676829218211
0.0838415592458909
0.0659949793354458
0.0794693215209415
0.0658863259383774
0.0731074656835767
0.0583390798992188
0.071986038967083
0.0663529038332559
0.0752704978150539
0.066384365676527
0.0782305235379035
0.0681848828902497
0.0762365768606223
0.0610587077052787
0.0744430033410017
0.0628580204291943
0.0729249512766148
0.0647426680907056
0.0757206383220687
0.0578921465339488
0.0764694235292225
0.0647657751466635
0.0802035453028429
0.0597642677624961
0.0780904376730468
0.0730983861644801
0.0743690451280997
0.06438434209359
0.0860645076598635
0.0679658434081934
0.0760004829091696
0.0635652080483761
0.0803438946867092
0.0701172842139055
0.0734604279097875
0.0664979388887944
0.080798955762028
0.063888795800899
0.080513184622943
0.0773954575743015
0.0881537840967405
0.0824440538721963
0.0887302794427929
0.058425211302991
0.0810198961530711
0.0623295334133014
0.100944252345251
0.0715029403120232
0.0762556801561544
0.055051355030814
0.0747094789075365
0.0628947567107422
0.0779411828625724
0.057534199759932
0.0709627837858891
0.0667394444974537
0.0774761403473981
0.0629349120883756
0.0885791418515059
0.0656558429289084
0.08604843736061
0.0679050192238145
0.0756241518321764
0.0570046450513953
0.0710344183706215
0.0705551318455353
0.0967684157350229
0.067095070258908
0.0715875448799502
0.0562063425153308
0.0862843782263434
0.0764246962771594
0.0688286027454012
0.0651597236013522
0.0996779318675382
0.0735694611833242
0.0744557840460595
0.0564175718863616
0.073042702720081
0.0467904535564946
0.0755250169184913
0.0564997676189279
0.069417307793296
0.0603333940187295
0.0623735215910418
0.0657170720587447
0.07959048631979
0.0856309092835129
0.111920812583112
0.0594022608850663
0.124660212318413
0.0772508831764028
0.0718720580611542
0.109646169299783
0.0944047067217459
0.0608466080847977
0.0716870541161742
0.0577296093137504
0.0796906574109935
0.068546784145825
0.0717093468560488
0.08337830482076
0.103973886826957
0.0707412185990707
0.0811009075821489
0.0588373273720948
0.0566464750880852
0.0845065841157652
0.111727753424176
0.063964109223963
0.092005834349769
0.0666565442415597
0.0693671275735734
0.0941038077506569
0.104750394555483
0.0673922364917814
0.0662467492607692
0.0632414607252518
0.0660469702424681
0.0607221001020066
0.115446314433882
0.0670831419014335
0.0707150058854836
0.0473068334501247
0.0956913075321934
0.114414318774405
0.0956637003113734
0.0614671730648294
0.0538225640870714
0.0651753699387903
0.118818978396152
0.0714282741335947
0.0736380434173654
0.085994598408123
0.0807909385447709
0.0587610857440476
0.0621550537741433
0.0477652265078316
0.087626164623369
0.05882483076995
0.0406044732072536
0.0970905236141662
0.147503012109237
0.095693812744161
0.137523340834284
0.0727246782742306
0.0785735575652119
0.061445207884441
0.0676486452387351
0.0534357345182098
0.0793644985071122
0.0496472392765862
0.0886057786064056
0.0864377697823452
0.0729281384151682
0.068443259889485
0.107673726810845
0.0618266138533475
0.0719447886550869
0.127021372543922
0.0930389855438738
0.0521322995573983
0.105337305724433
0.0761124726011512
0.0661153293598533
0.0762712800190155
0.0949862702885993
0.0597568794475041
0.074906878069231
0.0479854785027074
0.0797742341823407
0.0826973493209724
0.0823895331911998
0.0573389102333108
0.0708233334133239
0.0450115018021016
0.0855953505766344
0.119759720927964
0.109419292113446
0.0714265827176042
0.0719798254055933
0.0300875999513327
0.105089442362073
0.0924752465674175
0.0725611360677262
0.0555623994154779
0.0666733480522412
0.0573310495516778
0.0626884610853456
0.0594215984138677
0.0597069384895583
0.0439410796423014
0.117547699293649
0.0831213465039489
0.0706933707628778
0.0502021732606013
0.0680608975895864
0.0488930741201569
0.13025737715622
0.0923003447617464
0.0717897981637728
0.0630959993178282
0.0692427759519871
0.087840314939426
0.0931766994634538
0.0624053902536439
0.0647223072271848
0.0598969857120526
0.0666805147214446
0.0571855401373664
0.0661740938990858
0.0567404352579564
0.0683222527888643
0.0541904230744934
0.0692650591438517
0.0593760802468451
0.0779366124820764
0.0597049866171321
0.0661997999756454
0.0608330829791536
0.062089253389068
0.0747414175993228
0.103855345876612
0.0633558236564644
0.0704444400932203
0.057201481911992
0.0665006401352396
0.0575524566929116
0.0721273300411642
0.0623875162183443
0.0667777855464468
0.0540625572219143
0.106539765311228
0.0706405312206869
0.0779761130303105
0.0524969326301984
0.101020306120934
0.0774476844704262
0.0700406514761354
0.0562883232233239
0.0761136063146253
0.0502036716177413
0.0707400483705977
0.0980378099553795
0.079823724710976
0.0569875666808341
0.0943946049874369
0.0680584706208161
0.0738706000343694
0.056484684441663
0.0728290743340969
0.132844624791932
0.0896520076608616
0.0593045940723569
0.142496370121453
0.0896075261547908
0.0988441096961255
0.0635062154914437
0.0447918108114899
0.155317910101131
0.141195683216437
0.0710486059128979
0.0791844614038994
0.0796372868959629
0.0714046012641826
0.0778441995038431
0.0852125278465629
0.0801842035094536
0.110633191442162
0.12034276172241
0.139827137846174
0.0562021034256488
0.115908336404016
0.0912326022840681
0.0832132514142095
0.0616075011976218
0.0732955001168517
0.0580497491233275
0.10428146535264
0.0881213375012546
0.102090866364503
0.0727784873759399
0.0871211329076102
0.101833411751574
0.0918971031140459
0.064381684262778
0.0894096890848518
0.0797889528044041
0.0745817796557553
0.0684692200161879
0.0765415008769023
0.0822040842603376
0.0795684576917968
0.0646350473590357
0.144375155859518
0.0868424956038738
0.0895515966195636
0.100022097463988
0.0893733747324042
0.0698409587118431
0.0780491753022139
0.0683343514361112
0.0738430117775121
0.0674916202568564
0.0712775360259665
0.102484754781137
0.0877808435227088
0.0626492364579039
0.079863450335574
0.0607482352692269
0.0810973153483678
0.0733822156279284
0.0776137938711016
0.0756598395657822
0.0810538542683671
0.0599144127193254
0.11013464879573
0.0995718894565912
0.0720554853767172
0.105936124901778
0.122827997828867
0.0812245019507914
0.0937379867922719
0.0699513603676351
0.0947037369211864
0.0759243633622485
0.0913667171119416
0.0724480908431582
0.0861548326668543
0.097212728983145
0.104431370349228
0.0761947834015021
0.106837250004474
0.147433291243176
0.163141098592625
0.099783466122449
0.103011614834088
0.0641336718915786
0.143780801266237
0.118857340208179
0.136154638851207
0.122371048291089
0.097639643561847
0.100508488979509
0.101417067176379
0.0897755494928837
0.0997139473293595
0.0994018724775861
0.101232314775133
0.0928652708852747
0.107165223072978
0.103141006306292
0.102359618278796
0.0996849751462707
0.151912221643579
0.115182328544778
0.112713771825397
0.111728718392435
0.113863065873119
0.140514834829893
0.161570753517816
0.172795059820136
0.161326816051086
0.143622220277653
0.187761556168108
0.129688831738713
0.136854192502919
0.10653039139188
0.131427508673532
0.120053038002293
0.143160941047517
0.129461862554203
0.13691742537334
0.136902482496527
0.152909255151343
0.133469943002362
0.146621107719274
0.126019530275589
0.173065770394258
0.142318935250628
0.16150213639243
0.137642875595506
0.186404529352906
0.189924632531923
0.223581141854826
0.155978388462331
0.171496990124025
0.150887328638663
0.156323893407696
0.159235542270092
0.167690174127086
0.163389753749298
0.184846005256275
0.195555851151709
0.211104752936846
0.197550330218742
0.202653945263759
0.146204494704474
0.218031353020141
0.180982298351697
0.211895030652693
0.208601240374259
0.214031785185115
0.170095860575904
0.231409796243884
0.214911075794186
0.220248598505413
0.220851258177924
0.209300904651828
0.203720595368404
0.212077939147786
0.209610529799328
0.220764317434939
0.217368689970362
0.229246705235582
0.216628705778922
0.239931451326921
0.229307942971304
0.245767785364648
0.240915360723669
0.256766258247385
0.237590122796501
0.279643673244244
0.225523847130256
0.26357592174149
0.230482272221512
0.29222504792026
0.26907463679854
0.286328699917509
0.266101020101657
0.274634359556491
0.247792751957352
0.268614267951218
0.267202497220182
0.276482719330935
0.266680126117917
0.292446191231919
0.268822081353293
0.284546847485141
0.294238508926274
0.297616358072918
0.280969068063323
0.303992367100049
0.290992148838582
0.31487163016128
0.295246072106504
0.324075330108447
0.301417302556717
0.376815351039142
0.357694084321795
0.388389918606927
0.366034769061792
0.345727199683287
0.321100649390349
0.338185251778674
0.332606572832656
0.359355425369529
0.356177335379711
0.35978417144151
0.34191924222885
0.371469529623742
0.371976890109079
0.37471471523101
0.347883124304836
0.404317539518128
0.379398639576247
0.392508020012218
0.359253492696613
0.401723300352158
0.377906569534496
0.435845412527798
0.400216976998032
0.433875160059485
0.410929808815233
0.437621405328329
0.394893125792043
0.441530149954046
0.431778728684329
0.456294763767046
0.388111807331026
0.445540867571439
0.434918017787897
0.460026342726609
0.442500988318813
0.48011212392555
0.436200271750089
0.485200105661371
0.442809369872345
0.524541122089788
0.442602172764655
0.478636372680153
0.467096278337144
0.497299983093299
0.482541989317911
0.518086570562589
0.487055819884103
0.525411882177148
0.494434091781001
0.529738895326381
0.465343595867658
0.542591531561346
0.506993491605486
0.543963629869099
0.515417736340317
0.54028747386897
0.529977729765671
0.576987143388307
0.529191415659119
0.567398288054645
0.514027975284985
0.603458237612217
0.584756866919966
0.592660292597928
0.543705151075528
0.599525172145967
0.537320840299822
0.615357616101847
0.563761555483648
0.627382642591989
0.573396813022313
0.629689191040329
0.603414492838544
0.637384977308493
0.595185287093193
0.670065874968232
0.627312958127337
0.635017051822867
0.638201199211807
0.646444413723926
0.61177767743641
0.699617700903693
0.599151217998628
0.681148843848481
0.6009841333635
0.691646823296952
0.645791159153762
0.67454391219155
0.661567058381226
0.752268657392277
0.669583755713532
0.71330224225235
0.677851702527345
0.746532508412665
0.673963069158149
0.756416977904467
0.667586314790547
0.766536693405811
0.683963933735906
0.75762789934564
0.693586185964753
0.72713541261552
0.698766787194792
0.776041805623361
0.717415493768784
0.726936881502929
0.684565055754991
0.794985487182348
0.748404160559504
0.833512306856129
0.773678437240317
0.806149142349204
0.781931332648714
0.854539533966922
0.780213087491915
0.778461048145788
0.818729655448125
0.899938501198852
0.79999979101238
0.808006299541382
0.790032431652076
0.851559294207739
0.796235089402883
0.863957857462346
0.879106964830488
0.905759780636924
0.807876682808152
0.915484228763897
0.834771968540852
0.921135710028892
0.799541238369144
0.89708638842695
0.820328900453386
0.894025629032388
0.832929928525095
0.935429143725705
0.796687718854709
0.914645053152169
0.849134591000546
0.918943380180985
0.837355435541568
0.94305224140953
0.846074422451807
0.978438936307023
0.87140414201727
0.964181577496818
0.864427500057437
0.9527389002237
0.961667825826706
0.99089056380148
0.974114544525575
1.01755648841518
0.98230940244123
0.98908156098334
0.898348931117403
1.00252066232018
0.926221270690539
1.00531581027181
0.946066040519567
0.967117930337791
0.943131441955483
1.17788821748646
0.942854453211432
1.00878556734641
0.92153274679848
1.00231521634431
0.92050101632593
1.11711287293302
0.964273766976031
1.07070343659258
0.982433778139372
1.116196993261
0.945324088722482
1.02311569191917
0.983602288487873
1.06819030157215
1.00916251446254
1.08023505915685
0.968483209265898
1.05310210670342
0.993606145412412
1.06099155057386
1.01157446643429
1.16500153719583
1.08079645925935
1.10139601120352
1.01846710800619
1.01122696575905
0.986712636098079
1.14817861207749
1.04925189387475
1.15873223787789
1.08254731479159
1.25347832929093
1.01333540949522
1.22701255881167
1.07009958768198
1.19225743737382
1.05361836962086
1.15469254109886
1.12021840909904
1.18131398898144
1.06769480914015
1.16107723079856
1.09540627973943
1.16416189248781
1.18413861130009
1.20148741958122
1.08152553796676
1.17448472134323
1.04897262043789
1.13835932068681
1.07255351339191
1.13936865205971
1.16303994227072
1.14029905799515
1.12981584617668
1.18778337043329
1.12572192663553
1.22785737696752
1.14599930983081
1.13605646502244
1.14308353187486
1.21177509175238
1.13134838058505
1.20851255766164
1.1042727981611
1.21444596429046
1.15237951641107
1.23705395814426
1.17233282744109
1.30631514268329
1.12881722378378
1.19682314119099
1.09184846356976
1.31833620121309
1.20797970419975
1.35640185313709
1.17331068659303
1.24022255214752
1.15742504964212
1.16578872545104
1.10825855966176
1.23343138038855
1.13019402725728
1.23504244811398
1.16790709463788
1.40985845866859
1.12535330239175
1.1590703763809
1.11178853260402
1.41018881932201
1.20191950613699
1.26056481153039
1.15854139013296
1.21838973517341
1.1651601404243
1.32478515249851
1.21854831609663
1.22317573998533
1.19356106154028
1.31812368694704
1.1972904427099
1.25087366604762
1.17304548859641
1.24595364644356
1.16849454877314
1.24814884396484
1.16680911941672
1.2050114195153
1.22725215133871
1.30659007593302
1.1327104309765
1.17018008398284
1.15275150110317
1.15748935679311
1.09718453220917
1.20777335854145
1.15383694663835
1.26688980900037
1.13919071000022
1.16468254465036
1.15391234901271
1.20740067056884
1.16384771433723
1.29481579027504
1.25230496388419
1.34330044245273
1.14039545170444
1.28958201813368
1.15949057147287
1.26516074494932
1.18229198843857
1.21869025263688
1.20926742927994
1.20698748517196
1.15625634167137
1.26553811299241
1.17242403269596
1.29028687376589
1.15739403006738
1.25167524119377
1.14891305336672
1.19462026475315
1.12937374097692
1.2465012432285
1.23423540985806
1.23591662583097
1.16370149698647
1.25362928347247
1.30094650104143
1.17195642057823
1.11206762459092
1.18381428493726
1.16025756010555
1.29898140402423
1.1209205766074
1.19141066258914
1.16089941601349
1.18741446940174
1.10300142752348
1.26585765437658
1.17876250098803
1.2582976082281
1.10874974262425
1.23173710210138
1.13080506794177
1.2041740416464
1.13710640928025
1.23271730405246
1.12180015364739
1.1825472580335
1.15780548305755
1.2000643934356
1.25985634869251
1.2237901664036
1.11449595597096
1.18503358929257
1.15904810209812
1.16998708859729
1.10589688627018
1.16896145981614
1.13394704358163
1.13332060783086
1.10544711878138
1.19920156562784
1.13345146708352
1.1563485094748
1.08575371806215
1.1825363882052
1.21023777470488
1.18587068222621
1.11221877519964
1.15211915013456
1.07093197339232
1.11513164535715
1.06239948812689
1.09584528663639
1.07155604992557
1.12082915612715
1.10461426486365
1.10188455923033
1.04780675738252
1.12932802724536
1.07361449546889
1.15931511628039
1.05905939300378
1.10545757239176
1.06345952714362
1.13410365971317
1.06411387305695
1.09694649891392
1.07081774861087
1.05865751200448
1.03299551287913
1.0551185487864
1.03564361559464
1.06125761060498
1.07264405520256
1.05512638253786
1.04974191802829
1.10863336886171
1.0588637831875
1.1178157974104
1.03163465674675
1.02471349372827
1.01048429694148
1.03463741251933
0.990393454768225
1.02852487847396
0.960563680662937
0.992172534273747
0.99578165603063
1.02450565366777
0.962401702519516
1.02452159573596
0.991570532077258
1.00530588611395
0.994416625629246
1.04176446923277
0.953335700490455
1.03534247667357
0.975154359542243
0.972210304007569
0.949659548838278
0.961355734851626
0.927674367242617
0.956953588508949
0.922960921809335
0.961033562511193
0.925299438514546
0.923933163243677
0.918221257627251
0.946552749129651
0.888499412214874
0.908392648902078
0.921569579813062
0.952570532135967
0.896369739129255
0.904049410041293
0.926710776016305
0.928352761849616
0.885498909712021
0.914140480353762
0.850395174885388
0.891336471406475
0.869435982348494
0.880629760668583
0.871675276207853
0.903103125622308
0.858802453075146
0.881129899145332
0.835962268849474
0.859972686079511
0.840763590032689
0.859788126919041
0.815154026499842
0.845641560414399
0.832292328700604
0.820332942973906
0.800539317407703
0.82264516905687
0.812274007640817
0.829614200154197
0.792493051396613
0.803439776896533
0.766671849448979
0.808437750530196
0.77206477973777
0.798189801525678
0.780504905226742
0.778713551972282
0.75119868301595
0.78069638077857
0.754647942252918
0.768625099954843
0.740120527745943
0.760781584861947
0.750167059266507
0.738256513209145
0.738154498801325
0.757732472213665
0.724811002584812
0.743994474736715
0.702744471938085
0.709981805920911
0.706630649612349
0.726922757990512
0.710212242268275
0.706246189883941
0.681374231371237
0.695803214666146
0.694359169769678
0.702430525620112
0.669037698240155
0.692568725934217
0.668457930098558
0.684031955994908
0.661210733756735
0.659900819951378
0.633114977578317
0.662168089306079
0.661700997451654
0.6559149673283
0.631795583537777
0.644133358421248
0.641254108782638
0.653807727844567
0.623892615513466
0.636138757445296
0.608931207082726
0.634932366095958
0.617448514618307
0.612711408288405
0.588413918716253
0.619419030523752
0.595024139326479
0.609585908675547
0.597043933551022
0.603689236042772
0.592602545573063
0.591891549787944
0.596497527988588
0.596197383839834
0.56572523789303
0.58429020211916
0.566128799593497
0.572088513040469
0.561404921709315
0.573352168777109
0.554111732355017
0.568202994002672
0.539441580691422
0.55801795166733
0.556101248888394
0.542970083557152
0.531229005077773
0.53984975446053
0.523208201272721
0.532983120547035
0.53951526247494
0.539065379365835
0.523164467236624
0.523403047414861
0.517371167311033
0.520303105308425
0.507086235933976
0.512596071333031
0.50695360414647
0.505800612156949
0.507703764594896
0.509038200513614
0.488006256721755
0.503977015212998
0.491069242568398
0.490254537785288
0.489701916965417
0.495520989751548
0.473366906449663
0.487112860131762
0.481832763531516
0.488971506310532
0.475783637340617
0.470257749957107
0.468807101695427
0.473921121444086
0.457585071790906
0.464532745422179
0.450001135627126
0.457118568658523
0.447621007157323
0.444867998838109
0.437056879091316
0.446345219485444
0.443522246995676
0.440763119439658
0.439570394813936
0.442650301045884
0.431936106716116
0.432559976437663
0.4230721641533
0.43462982047155
0.420261413994394
0.426913098815224
0.423206877012071
0.424118995400615
0.407580706553244
0.419996219666196
0.412306336530316
0.422195900685318
0.400876130331783
0.416287570764572
0.403417547546054
0.40593012601554
0.399951291973577
0.400909919657414
0.393667928472466
0.401726195738924
0.397566311692012
0.397169122168929
0.384281013182035
0.392377438205571
0.382158805218432
0.38636099925328
0.383644450735921
0.381182182146479
0.375790817084442
0.380888000359209
0.381388388792541
0.389697706686685
0.37453944239763
0.373527744441165
0.370005603120265
0.370316918240165
0.367425901779234
0.370640218860533
0.362972539483846
0.367402415904449
0.366963355809267
0.367983261395458
0.363467299057846
0.35955713510256
0.351195005601009
0.360756761524674
0.36045168345104
0.36018756916245
0.34944022013589
0.361998990274135
0.352323348232084
0.352156132180709
0.351267142364584
0.357967838016652
0.342974532799763
0.358161913401781
0.353886169987958
0.360608073374401
0.346371077565056
0.353450908921125
0.351036072710265
0.354958304835276
0.352858727513682
0.363310001281372
0.346989200634
0.353131102374472
0.352195133613434
0.35325285102832
0.352899704356544
0.359771819407808
0.357214305129958
0.355280570909948
0.362629443709913
0.370558648315835
0.365542033259978
0.368837915823021
0.361009449534632
0.367776293117766
0.358124984085767
0.371282864843195
0.362273284090376
0.373993007867952
0.3705187620441
0.374747426678695
0.370307034397154
0.373556543361297
0.372458772918818
0.380381135843638
0.374945179303646
0.384679656432771
0.378709619096284
0.393659853527808
0.378221242901776
0.394608843938801
0.385080324921428
0.393281648687546
0.394712207661461
0.396293258982088
0.401023891962123
0.408589466119
0.405946172395844
0.411901096047154
0.403051359468508
0.417762296100297
0.416233532310175
0.421915913251959
0.419072550710635
0.427090264602056
0.426202445096646
0.438131867464984
0.439420455648974
0.449019740392314
0.444219723990888
0.4590994043044
0.449104430229128
0.457469092160861
0.462667278296015
0.465897865200416
0.466208573758974
0.478360982959339
0.468357622164376
0.472350731229957
0.484025162283126
0.4853643633104
0.480640894349537
0.492612184058253
0.479014081967855
0.481229657798821
0.489245233595963
0.497504299328714
0.490189897135793
0.507196854270803
0.491968541023164
0.496671116181754
0.487995917174221
0.483471260561373
0.477768972860396
0.490186368546569
0.480423423903685
0.492829566498888
0.486773796225306
0.486775326710367
0.477460131602572
0.479932173188515
0.477837177495217
0.486376222259461
0.472337957352391
0.480309787437652
0.475683959121429
0.483392848080611
0.478395985592271
0.483942016410507
0.47235701592465
0.471156634179391
0.469181990907452
0.474219423622603
0.471602544924879
0.485264994856702
0.475451439239879
0.473369692660404
0.475744807620609
0.480315975406768
0.464753523014853
0.478624553722768
0.481907721227874
0.484347811732737
0.475110644250079
0.478988888648254
0.480568734354002
0.485097397125892
0.466425799652246
0.476759181185817
0.4727856881626
0.476809864102449
0.475109133023026
0.478620016014473
0.472238210300531
0.476762503042871
0.471353045268884
0.475235715250956
0.457125768971608
0.46440837786793
0.460651244885983
0.470445284586248
0.458899926423146
0.455837580393013
0.452892768199541
0.453841120236015
0.442198771135119
0.451376568572329
0.443773306853507
0.442707399434041
0.44055663335822
0.432539287467498
0.425379553750298
0.427351629850965
0.425762244824618
0.424741144326192
0.414347670847381
0.424668102706117
0.415136572911617
0.410181458497463
0.402010549475028
0.411449403896107
0.401928172128731
0.400020372001254
0.397178849037742
0.393428395548885
0.388447319933384
0.39353194460502
0.396360588636967
0.389720512890063
0.375969659882413
0.380740368635801
0.372702036967958
0.370593947918975
0.371114980014981
0.369875968578337
0.361133335517823
0.35969812561401
0.363511799926688
0.365250398489241
0.358562058901318
0.360076929773148
0.352945583019432
0.346913466878499
0.351721696707401
0.363364920823881
0.349348839693124
0.342231601251065
0.34194194917509
0.342464639214542
0.336561041227272
0.344151106519403
0.338527085311606
0.336444993211876
0.333813844686098
0.331063521167516
0.334654303198032
0.337488117493472
0.330568165492967
0.327890562875353
0.32617958265005
0.328874317567267
0.323418786793155
0.321386113346876
0.317874943818559
0.316808225259329
0.315507452556898
0.316468079938336
0.314401588404591
0.316616878677462
0.310521603217432
0.315291710674637
0.309827588639469
0.309871635543348
0.308816405235061
0.310746200682238
0.307909320982716
0.3065104660082
0.302490977507047
0.301457371489936
0.297431828146745
0.300950787229495
0.300038508692669
0.299433727886053
0.293594263309137
0.29871338610779
0.2922903713992
0.290067937712415
0.292638862314203
0.297048173416252
0.291062250317737
0.290271285423865
0.286890768110221
0.289527916413136
0.290395411389526
0.29036265624625
0.28803150400377
0.288755046541968
0.286886237400878
0.287135779458968
0.283312706670492
0.282109001082689
0.283242174277619
0.282799646805088
0.281267177411713
0.279533511150851
0.279155196651534
0.280570746182478
0.275772473608791
0.276371253764781
0.278125490640967
0.280649383690237
0.276816183524354
0.279270821717811
0.278660939521235
0.271216327844399
0.268214501728587
0.272925205623397
0.27034738108647
0.271418400836651
0.269476161651146
0.275178001454311
0.269978125311179
0.266408010133853
0.271826885610776
0.27083627091947
0.265667413160764
0.269352771979824
0.264100552531343
0.266681649242744
0.259061843202972
0.267733631480249
0.264724995710863
0.263011530640902
0.2626358776124
0.264267446949471
0.25849264362961
0.261470990394876
0.256627698611059
0.257064055948661
0.25854036580783
0.262558535742404
0.256296261422908
0.260520960453661
0.255350067828478
0.26051209015742
0.260370425976515
0.258609976431775
0.252201675994924
0.256917935769097
0.254051467428049
0.251826917116897
0.254315742389817
0.255845943118409
0.251924296143737
0.249873505249959
0.250027716629969
0.253231484975883
0.247160765270507
0.251580616481433
0.253719338144984
0.253352661703881
0.252669900061465
0.251174408094622
0.248556974625662
0.255030011471645
0.249808244964511
0.249887496420029
0.249612328312095
0.248483207492214
0.248425338468468
0.248280345421652
0.246279405670358
0.249011161365373
0.2447079535303
0.246421447266646
0.245113210676268
0.245845423800733
0.245225894592624
0.248850251079779
0.246704021640255
0.246562483556991
0.245645358244031
0.239572515362017
0.240089367094021
0.240820295656167
0.242302574999558
0.242876286659604
0.235116175651887
0.246495078425674
0.240764446603629
0.239104308123864
0.23754640449809
0.236774568869392
0.239363494927106
0.239062033034848
0.231281877811285
0.235570692784545
0.231594174699397
0.229891338085635
0.22893487038834
0.233756021676211
0.234067318720472
0.23195357527909
0.233620042157965
0.229531986435665
0.22622582566807
0.230770324326235
0.227218685388523
0.225799789224081
0.223733894854764
0.22675665267808
0.22530983589178
0.229472060304063
0.224882547761012
0.22485230727977
0.225864899863329
0.224434084599263
0.222191335850406
0.221722418341429
0.223212155871989
0.218839752082458
0.219028604927743
0.220215119521004
0.214645398002079
0.219637431940977
0.220136983911198
0.218311063390914
0.220294636252306
0.224136306727433
0.216711426775772
0.216715780842672
0.217264019690797
0.217093559063506
0.214133423846218
0.214454360460188
0.216058157693062
0.213403894718204
0.207259337130762
0.212502881075464
0.212325295125925
0.209859081538945
0.209134908324316
0.21019762860531
0.206811806072744
0.202272486008683
0.203351682841843
0.205879340130506
0.204509262715028
0.202366894407444
0.196212010093899
0.199077098006789
0.202307592821931
0.202357595828862
0.197992200731451
0.199206880970235
0.197976773687964
0.19759050862863
0.19456684018143
0.197936433982767
0.196291784010319
0.192128226722727
0.193160141651557
0.192435752497107
0.188123284890563
0.188340845289794
0.187683658283739
0.187868727297071
0.188456726271717
0.190314156226664
0.188968586254145
0.185612927885404
0.186422833285136
0.183085068180308
0.183052004865184
0.184027861022526
0.185291047728262
0.185879417948058
0.182457118864773
0.180759523590506
0.178811670774617
0.18093774164823
0.178567977880258
0.175838655303945
0.178785796709553
0.180538241849466
0.178822762079168
0.179509102987901
0.180565294876323
0.17869338491315
0.176218418262512
0.17813509610171
0.17717459199498
0.175723034553724
0.174298009530424
0.176750496366189
0.175187843743135
0.168630004290413
0.171345423570268
0.17109509778926
0.167511153261934
0.16897629518218
0.172118031477604
0.167846595138751
0.168744419803836
0.167243431000843
0.167151807757871
0.171417556043104
0.168757228648804
0.166650008741859
0.167861449259036
0.168847494978473
0.16743421040474
0.162068727263737
0.164587156998284
0.163637670776727
0.164590722571493
0.167354957592354
0.164114051632429
0.161492822439252
0.162232301245765
0.160879784628559
0.160767250389095
0.161552484793396
0.163890677936498
0.158153594898903
0.15926259442383
0.160738502363065
0.155721304245297
0.160693183380589
0.159520930285627
0.156974745276698
0.156456637573213
0.156873542369
0.156877806937206
0.157787191493917
0.155860096411824
0.155208305755015
0.155693902299303
0.15619245217311
0.156184718599235
0.155376383601941
0.156270617718898
0.155463498874194
0.160040521284227
0.156251733401087
0.155738920823529
0.15621458600379
0.153423800985784
0.151175589725634
0.154038944875058
0.152446664651509
0.151497984519547
0.150725678198754
0.152843725668729
0.152605690323144
0.149455436675856
0.152241389815832
0.151541039745332
0.152533087657561
0.14901097860898
0.150014631427848
0.152899490496711
0.15131644624221
0.150385834675872
0.148821643143599
0.150148092446637
0.148549607230047
0.148180650138077
0.150371165634527
0.149051093394228
0.146024945747213
0.146892837679808
0.144312689704781
0.142827934156258
0.145666411298679
0.146115893051324
0.145688975231344
0.143282571404503
0.142901286223855
0.138394877343168
0.141013316607109
0.141390847336191
0.140688656050757
0.142781872742232
0.139288158201379
0.139715375404452
0.138770473765323
0.140788663633386
0.140576240450732
0.141658997454587
0.14191417408357
0.140176021242575
0.139852742907629
0.137003838138139
0.138759727587034
0.139338266885894
0.137361431879722
0.139538746661533
0.135693141445775
0.13681619628272
0.137014293896157
0.137852372684905
0.136547921881238
0.136931944049435
0.137714515872654
0.134248000101622
0.134302542883424
0.133828840287743
0.135855217221898
0.139193615892494
0.135120520984915
0.137601967904709
0.13565651116115
0.135904474502364
0.134704517152174
0.135424177004762
0.135198451022964
0.133789222986237
0.13175617838252
0.134381413553322
0.130343727653976
0.132421085344503
0.131424548439226
0.130927265781241
0.129500860034181
0.131384689417967
0.131581015841929
0.132424783588992
0.129540477804134
0.131197131987398
0.129735521257508
0.129024970540121
0.127766056752093
0.130071812888773
0.127438890991452
0.127655136498516
0.123280108416138
0.123509809123846
0.124100004047327
0.125650692904145
0.124497261719282
0.122797222517756
0.120847226112245
0.122480348985359
0.117993283763175
0.120050166096634
0.122837247280629
0.123762327228405
0.116903308668794
0.119003455256238
0.120736498179079
0.118767810443854
0.117007832505061
0.116099115733013
0.117023516391176
0.118091203143484
0.117471720452618
0.117746058002676
0.115433048879894
0.114868382346045
0.11396609634468
0.115091324756948
0.113954444752206
0.114890914832537
0.115468603264957
0.114095739984247
0.114087267363193
0.112517063312308
0.11094022283488
0.114015041983443
0.111253842757814
0.11339819255605
0.11021657894206
0.109516379200312
0.111398592159067
0.111554837010823
0.110437801016617
0.110893586632121
0.107370236162203
0.107995419683333
0.108791967676632
0.107743351570026
0.104784562457465
0.107696718497242
0.107123857437303
0.106480327609282
0.10587882080182
0.107521470923331
0.10560592475206
0.105588035381839
0.103177660916784
0.103751470251003
0.103703601774239
0.10082717082555
0.100968971097296
0.102871921648952
0.0986548435954714
0.0975992162381438
0.0973022275602295
0.100751008431232
0.0997863766750822
0.09747701033925
0.0980127407253946
0.0988391097495313
0.0978379966638847
0.099271879110882
0.0966740847305525
0.0962400034332772
0.0957863672822365
0.0958854006824224
0.0942757384783158
0.0964657044431845
0.0956778197835106
0.0942507170561128
0.0945068142592575
0.0951737403159871
0.0947938246269725
0.0946255377064591
0.0948646642554052
0.0952637185030965
0.0963644798296616
0.0978654208941229
0.0915937687638795
0.0932238790132047
0.0922753239647902
0.0948381166511099
0.0915342585742208
0.0933124157804735
0.0918779023812737
0.092335513597236
0.0912185558104749
0.0940101865396989
0.0908780703376885
0.0921762611702964
0.0908149807166586
0.092749323222246
0.0898235550461279
0.0905541608331334
0.087600474152961
0.0879891780945839
0.0881048670218607
0.0877367164820729
0.083595327641731
0.0809015531197581
0.0784532811186942
0.0828318213861927
0.0888152057519551
0.0864829897891314
0.0825248423401687
0.0795008112547774
0.0745062507348056
0.0805515938422762
0.079126303233335
0.0771375726656837
0.0725679047172505
0.0800276230690723
0.0709690653962061
0.0768546617830429
0.0729913212574617
0.0780272546959904
0.0705884518368577
0.0778411912236491
0.0723283671934054
0.0773573194527609
0.0809425736186752
0.0870786928610857
0.0841171946740684
0.0888124089391241
0.0777319072349346
0.0778523123827789
0.0733349707189312
0.0787239342306292
0.0701026360430124
0.0827728877916579
0.0738698611177444
0.077921972252025
0.070081850495269
0.0762135295441487
0.0686693061594355
0.0765110979316471
0.0664694384345721
0.0763483306566111
0.0672373729974664
0.0838852129422921
0.0706539886732038
0.0851927179721033
0.066366705204512
0.0782867455543197
0.0647038014522079
0.0876524019876742
0.0695219167082513
0.0931345275519333
0.0607257811855131
0.0852126107859518
0.0724942763387994
0.0981772071327259
0.065561315433408
0.0832202832725234
0.0736384018975709
0.0939429988194452
0.0758233770941479
0.078941481476738
0.0835863639925117
0.0824603404428981
0.0798348178521789
0.0777425728492979
0.0866954106477331
0.0728617854334668
0.0877845688450004
0.0766765790339919
0.0844344587242035
0.0796503185232431
0.0821686262173119
0.0803540715376593
0.0767055276995774
0.0808323909085776
0.0789172456672607
0.0818605023348896
0.0793206695750478
0.0786901133199012
0.0782648902386541
0.0764541874267856
0.0779461877680112
0.0765594411918166
0.0776838472717111
0.0781195504557494
0.075710771705275
0.0766284084132979
0.074918030788905
0.0747578315617515
0.0750306932809545
0.0765141962651272
0.074891884036305
0.0762993486516903
0.0791004631297303
0.0760522345248379
0.0776191750234456
0.0777245454094386
0.0761820231676013
0.0748560335744788
0.0755673400056912
0.077461095627521
0.0773423322294494
0.0780611081684952
0.0781670748478879
0.0766488268763413
0.0746039132527526
0.074508857541191
0.0755025420903815
0.0763991742983995
0.0766523240009628
0.0786323357247169
0.078597158219968
0.0748602317410043
0.0764727602110071
0.0778091853344524
0.0739210427328165
0.0751942332901963
0.0778565476386623
0.0784364990250225
0.0769203035411809
0.0786413804608814
0.0778759027767588
0.0767913407942958
0.0745865871927062
0.0786811653767435
0.0760923660199606
0.0747647995880736
0.0785205296093195
0.0795900203394125
0.078283597152532
0.0788516233444002
0.0777626477166521
0.0767038625374659
0.0755721862193463
0.0761832833727256
0.0758388026864169
0.0784658083300109
0.0772712164701712
0.0778471671223058
0.0769420401479384
0.0730694615499391
0.0730753159158826
0.0774696945583093
0.0757524543590468
0.0753039198389936
0.0786165991614546
0.0755293741057285
0.0755323005329767
0.0755118102413598
0.0764986278154983
0.0771678169338849
0.0738480103308123
0.0762843553392901
0.0779688336980135
0.0736586070910447
0.0749535574750565
0.0769675836834264
0.0747048105225145
0.0767962384096255
0.0766288284564571
0.0747591223594743
0.0749448652410828
0.0781359206200675
0.078037288521148
0.0769021091909243
0.0772699279639471
0.077750784106182
0.0773482649899413
0.0770617154782914
0.0797088991000093
0.0778237146374082
0.0770405171683552
0.0805750802309632
0.0774970051358514
0.0778953681743236
0.0779148562017225
0.0799636731581587
0.0788987912268299
0.0788565332518338
0.0774208367257551
0.0795919697197876
0.0794601359908015
0.0811434384286648
0.0812444019126988
0.0800777927393031
0.0778053161150586
0.0818920496735846
0.0806663678976407
0.0782344319670415
0.0795055047577828
0.080594247225029
0.0761881075504024
0.0802712785989139
0.0798148789675009
0.0797951145787848
0.0802037324934513
0.0827545163364048
0.0803104727270139
0.0806944926297093
0.0808546120954132
0.0818311191708869
0.0800973813988882
0.0805835651610082
0.0795588918898066
0.0798383866590923
0.0809689768219467
0.0796593303570957
0.0800831969678064
0.0821485451504862
0.0801966478169538
0.0805869320679678
0.0814861066537838
0.0810509702194254
0.0808293051852678
0.0828544120020159
0.0825687736659217
0.082767317779733
0.0798161979507979
0.0834873764199872
0.0785229110754856
0.0833365002141363
0.0832862271467203
0.0805965013660315
0.0800892479840598
0.0838834100769984
0.0838857057057243
0.0819311620427305
0.0822428219086194
0.0847327811900375
0.0840548546755515
0.0843823712823255
0.0824503235067523
0.0853380920933052
0.0820570621826213
0.0834219986502057
0.0850698267190594
0.0848910928730416
0.0852042100721254
0.0855911646758012
0.0846440202493096
0.0853432473830839
0.084200198256493
0.0849305664395493
0.0848622588580287
0.0854996748795637
0.0836518360670718
0.0856854248011999
0.0820343092461257
0.0837781972304438
0.0820326938564687
0.0842069450711573
0.0825627620640831
0.0852618393290775
0.0833431333713177
0.08459395950574
0.0826051010548238
0.0850127737158715
0.0808426050678597
0.0827525305483013
0.0825656937387479
0.0823570052485876
0.0821343273711462
0.0834631331170949
0.0811676762412735
0.0832655970551233
0.0791305407143813
0.0813508656634987
0.0810537312194671
0.0815990931444734
0.0808133718356581
0.0801531078114479
0.0779442704482799
0.0809660289009472
0.0801567482421766
0.0803359820789365
0.0784429186134239
0.082141354986117
0.0770971741901905
0.0803467671587075
0.0815030931132752
0.080568587263274
0.0768026109265604
0.0802697268386913
0.0801889496425169
0.0798205027416385
0.0790870590069845
0.0812561724773631
0.0779961122730714
0.0787228758735451
0.0804717203080485
0.0806063246304272
0.0781895115852155
0.0779205701392604
0.078468917785236
0.0780688382574711
0.0793602698949708
0.0801032068649163
0.0770335518504107
0.0790014647195564
0.0769865314452617
0.0793296982495343
0.0788850479601132
0.0800784824644935
0.0770166549707004
0.0808873443574984
0.0775529826635464
0.0791596654790084
0.078654799674527
0.0774840955859291
0.0772520773224197
0.0775785815880954
0.0770473235790032
0.0784265509732411
0.0769992772534792
0.0782180151256021
0.0758499765836202
0.0771227354587852
0.0752445918981078
0.0762199388857765
0.0763293518284542
0.0778115777798308
0.0733147894828291
0.0792530489575334
0.0736038907982595
0.0748506585925466
0.0750097458300506
0.0778681247082901
0.0749513580333847
0.0751866843917119
0.0735976435402046
0.0778686114130966
0.0786100906648437
0.0781045387649057
0.0750547522329257
0.0778493063937013
0.0756808050607517
0.0757275628017829
0.073274378321351
0.073681974196912
0.0743864919920705
0.0755327115569104
0.0724779559859941
0.0776747411659455
0.0769827756055903
0.0752994159194661
0.0731385496244802
0.0744365066227365
0.0750448294249583
0.0736501718530681
0.0690268288189058
0.0741999650305398
0.0714804240436423
0.0734968473548191
0.0729088891453828
0.0767571725869074
0.0719407910682435
0.0752730785936436
0.0738103113931403
0.0734463836603862
0.0719303272916494
0.0733957931520455
0.0688020830920376
0.0720117509705592
0.0709589456165934
0.0715924857040081
0.0704944186010224
0.0731680884341783
0.0713063836303678
0.0724492130094189
0.0671776098839516
0.0701540515112531
0.0703976400450126
0.0716104588402616
0.0716489171766134
0.0697850305607416
0.0691143884160709
0.0689579354962124
0.0658532497414461
0.0678799051160422
0.067526263263198
0.0693270160854409
0.0685087082857226
0.0678975208530227
0.0736119487672342
0.0671957780834685
0.0664030041941936
0.0642843833009287
0.0639701401343959
0.0675990795604396
0.0640693670936452
0.0639338125810405
0.0652935198196486
0.0641436468243585
0.0652024725988282
0.0649557206324446
0.0633514070493173
0.0626047343655892
0.0627002068711782
0.0623339343436906
0.0617818243415411
0.0612505132037518
0.0596532858672613
0.0626342805583897
0.0609212727714424
0.0612377083025305
0.0655929340037033
0.0622655850528494
0.0611693845449986
0.0582344819426262
0.0695844098465116
0.0725266297014366
0.0629167682322148
0.0641777680806375
0.0642527463379148
0.0642177740171507
0.0587485921416032
0.0635434362972566
0.0597300667122497
0.0607827533913811
0.0592916379071477
0.0631596144869451
0.0582498160630356
0.0600349522024918
0.0601984527596068
0.0613643687294484
0.0590805588027167
0.0620819499602476
0.059089333905056
0.0606176607678471
0.0592596782607994
0.0590249926054739
0.0574961821975872
0.0616928005705179
0.0572993695486077
0.061643117016813
0.0557107235486521
0.0689397511381362
0.0628943372850588
0.0631808526064193
0.0565255233720939
0.0618167280034517
0.0566911137645978
0.0606689828611154
0.0568955135681145
0.0558928790779999
0.0583539247280245
0.0592422077781919
0.0577998947635288
0.0583014330855063
0.0562436502812535
0.0594557073954508
0.0576650883454711
0.0580714473847425
0.0537477098177499
0.0594366552610919
0.0527162665680613
0.0582221215450636
0.054869800403342
0.0604981881766247
0.0537717963928675
0.0627224515919927
0.0526063332687419
0.063754372896368
0.078793333863641
0.0596387209676185
0.0593090508067529
0.0553794217709128
0.058003734115302
0.0545257179420937
0.0565453867518503
0.0553107455080966
0.056908150368781
0.055266175517274
0.0543202550872647
0.0519607022737479
0.0574409979818976
0.0551489725481167
0.0553022959844836
0.0565650027262842
0.055288198971031
0.054103744594816
0.0584011022359501
0.0530407506771183
0.0610154944335142
0.0714328187606816
0.0584612596963889
0.0593609867863332
0.0573241533642657
0.0477327388263613
0.0872828594603681
0.0600731098747314
0.0596728427367555
0.0570081125557957
0.0581505237985763
0.0518568274716858
0.0572625479342449
0.0520442995407704
0.0570409510421779
0.0620379555398928
0.0569617456309561
0.0635962138537885
0.0528362252823024
0.0565489765562224
0.0556036513348183
0.0565785818958624
0.050333903806429
0.055303697802952
0.0534391304521365
0.0535319659243549
0.052585763037248
0.0526516918984956
0.055704437710164
0.0508175159392944
0.0579331813723103
0.0571510190376645
0.054817284825335
0.0522883176894441
0.0570260653778043
0.0500036229912808
0.0590956968489357
0.0789952243579529
0.0498634835993883
0.0584439761857607
0.0497114742367068
0.0584979785181364
0.0528232505101345
0.0587970893103371
0.0510777345289743
0.057612414504935
0.0513766117233296
0.0570390616547225
0.050708235946872
0.0541445585386345
0.0499564041835172
0.05786197879912
0.0505958510249606
0.053124444178301
0.0555926286006662
0.0522257825297313
0.05687191650252
0.0533428271796282
0.0738249254343206
0.0732272864059808
0.0694204629446142
0.0671845261308897
0.0583575594761845
0.0545716716903807
0.0539581885560176
0.0548569816313438
0.0503584779600019
0.0575790187520309
0.0516019638941852
0.0575498308810741
0.0547262213919528
0.0565570488219196
0.0506754942668658
0.0571758021157828
0.050070401054209
0.0575944354058558
0.0477356025021418
0.0578035498991713
0.0472289359885195
0.0590613479888969
0.0419104881227355
0.0675429113067346
0.0522305584288013
0.0666766826620463
0.0362442146843919
0.100806699744375
0.0719900046121331
0.0617421819440085
0.0627327610444571
0.0512480501215525
0.0563346091357577
0.0510013915931092
0.0548688810424099
0.0608658494189312
0.055246989833425
0.0551165672824136
0.0518444105285377
0.0591286068708839
0.0557491981032064
0.0494710234855175
0.0651715749649536
0.0943877443158374
0.0589748636949511
0.065173410844606
0.0468587705622626
0.0648065875077529
0.0877402464280893
0.0536084494801922
0.0651134004128996
0.055599854730304
0.0580319024367429
0.052830588489521
0.0538263219308228
0.0539746802847863
0.0614018289572361
0.0575707523123546
0.0543562125093515
0.0593282914274899
0.0515192983508839
0.0604387322563148
0.0562659873914319
0.0713866766681782
0.0682430416644172
0.0542274021699694
0.0642932539068227
0.060275156637485
0.0561682167344187
0.0579094171337006
0.0582087861764161
0.056486858422992
0.068352655385333
0.073741721209441
0.0579540260684329
0.0776042349163845
0.0704265755722797
0.0545473323644441
0.0628563824595209
0.0628271111861433
0.0770281110606677
0.0484524438253152
0.0769240262540958
0.0938503787105472
0.0713338823183019
0.0899199810637513
0.0532296392400965
0.0713130491088114
0.0516201438858706
0.0686211274435011
0.0469975111434846
0.0958097529901159
0.0497199093241551
0.0756732151076014
0.0446665708860949
0.0851207562888789
0.0693230363036099
0.071708052905395
0.0600440148290931
0.0636624273149204
0.0568182379627771
0.0871207101677212
0.0643881408991208
0.0617685243848061
0.103786168917951
0.0909048297018291
0.09642872732055
0.0703897631373745
0.0562804635812117
0.120377623770531
0.0637820008168659
0.0778487920261561
0.0586808219326787
0.0757100351951244
0.057111892297437
0.0738060295318915
0.108422750009502
0.073319801262434
0.0659022267995003
0.0793433332747093
0.0603952373868838
0.107627514773793
0.0752627791006769
0.0795064817872299
0.065730766959827
0.0861181432037554
0.0504308406627612
0.14969844870865
0.0783399606956384
0.10003398913749
0.100907265762559
0.0949242188905174
0.0947669865141878
0.0878123384025868
0.0780841476087914
0.0973041940130857
0.104578931182121
0.0857047018089998
0.0693749220322976
0.107918330165753
0.109535711448358
0.0780560250967746
0.0978989356391942
0.0800063111790082
0.0827736060872756
0.130157764391882
0.160023790101985
0.12551866622606
0.0992741895834121
0.0979511516913493
0.134187948982773
0.0985557992464825
0.102198977511184
0.0968905876162738
0.0980083267420783
0.0983453339174713
0.0961316145735789
0.118398773269848
0.0981935571987129
0.11331229633479
0.101825411232474
0.108503249205059
0.131232540375089
0.171293352769146
0.158952161380621
0.112005685733647
0.171143959986829
0.132538436649199
0.132568516642371
0.113482588484149
0.116418557878313
0.129973118092991
0.122791916073597
0.122848990665
0.112437774578232
0.162490306803311
0.132985569251281
0.141527285435668
0.157330219450647
0.124009978512123
0.141352925380871
0.111123324488166
0.371742455838247
0.142762524960413
0.17526151065258
0.13424937212861
0.172042958711681
0.228187706993826
0.161608200774435
0.150947087960046
0.153493165492752
0.145403303609733
0.160563460356696
0.163237166077597
0.169494794375444
0.181406122369066
0.17218821325225
0.157163396234972
0.204070499321445
0.243959197993321
0.248871119612341
0.211545750752966
0.189249642365421
0.213160872345143
0.218458345038969
0.191456618163652
0.209843217470258
0.189765517870175
0.212556864541959
0.276449559897934
0.214618649632946
0.230332565277587
0.21527322000776
0.279111373103587
0.202529819952405
0.320584071172178
0.25902097542697
0.260620275372764
0.235323302067436
0.254482748213188
0.251598190623571
0.246624898599008
0.303486185956052
0.275263475700908
0.271815456072237
0.272305141994916
0.271180423627928
0.277375245297099
0.271017646734247
0.290895242695699
0.27893892132213
0.336161098056612
0.298387952024038
0.544320609661957
0.323314234828625
0.30981539456281
0.300043239177594
0.294321379952791
0.351045137303692
0.320473826470976
0.36836140239581
0.34024816889115
0.299138174485073
0.312816150111217
0.299842431069165
0.317922197421193
0.302364965612305
0.323151560524731
0.288395208252445
0.358560162829578
0.290862010501658
0.368068246603719
0.388694799228168
0.325590039074994
0.309492284857898
0.313145244355272
0.302654000143001
0.31138893482231
0.297838755115741
0.317233536359837
0.336588092132391
0.297517562553419
0.309537189593288
0.286784872040189
0.337475345107958
0.324193903985727
0.287038257161381
0.304580635717609
0.281206769984958
0.30693175090757
0.268782440023322
0.295828958816397
0.351397452884721
0.295422835128519
0.287788582521166
0.273587089562936
0.279332618758989
0.276296242076756
0.268690308492395
0.275857396280368
0.274320072078419
0.272501643314669
0.280178769454872
0.266275078239776
0.270479370791487
0.259473321761883
0.27095174717286
0.263479387851073
0.270059027602084
0.26724531705127
0.26133867396591
0.260315344579108
0.257700671504495
0.261450425850096
0.267257592222613
0.264186721699803
0.262912730370074
0.255852369564527
0.258612458814973
0.256048247545313
0.255267075188848
0.252294841746241
0.253782611541151
0.250229326841509
0.249606893882902
0.245121909085426
0.250347052922491
0.243491754602894
0.24617868698779
0.239912230633874
0.244543038549723
0.243159840205742
0.23380286136049
0.250306202431539
0.219420918350649
0.319769196356471
0.258955569979352
0.237064348095997
0.231356293187096
0.223625231717501
0.231877516226214
0.212027039061894
0.275645819178445
0.254376867734109
0.223140498550206
0.219074586260923
0.211354448650244
0.231233377437447
0.226311338617348
0.201784382337896
0.223432607054446
0.186176046175111
0.278865499044012
0.259247594322165
0.289220350659188
0.29738136126849
0.227644141330512
0.193822933208151
0.210426709792762
0.246185760724645
0.183916784592681
0.200200084259454
0.174379052415467
0.244429974662123
0.197259374596673
0.184051106184516
0.181591292407
0.175053685300537
0.20831988524853
0.224332644793212
0.184162447854435
0.214315297670251
0.225744263719603
0.186236750437956
0.243918668154889
0.262959438325503
0.218699685137303
0.175311605022088
0.184050432731293
0.172666475335033
0.178189165937951
0.244862756306477
0.177014477713165
0.19395876412251
0.163486265353303
0.167309483089412
0.169758231789554
0.19269276568742
0.181177876623157
0.166687001186049
0.218137784264768
0.159309820348949
0.19438257373522
0.180359401228405
0.231145965885776
0.224538775500529
0.186125948770958
0.157548557684777
0.210708294661431
0.217558097353697
0.175862879884441
0.18948688754716
0.159924369987231
0.167116314410001
0.195332464707035
0.160090150842648
0.193019328956124
0.190889645839913
0.198951086759747
0.24079229022195
0.241919476485275
0.233993929868633
0.180965442582453
0.161546557252316
0.173865986307512
0.167558309221858
0.179234480239835
0.154459983562329
0.211373888952873
0.179396264878471
0.174966504388546
0.243684132631226
0.187988522559514
0.183687156424492
0.183900480694068
0.176440504671739
0.193079663993202
0.223910796928687
0.246661438807003
0.210730419026175
0.210695198649546
0.230191831099253
0.204483689778563
0.211824330725851
0.205905308247146
0.218051400940989
0.213607688787314
0.233986969303021
0.225723251860712
0.233016430945912
0.239805787804809
0.235542889232777
0.266199659836202
0.292154500391599
0.244182433246249
0.304574593589481
0.280118206244933
0.347087734377956
0.296416818120899
0.290140840897134
0.291488106977392
0.295481641801666
0.304565373490696
0.302270909646603
0.316844427999382
0.35778589329862
0.319853738433331
0.336969672957552
0.322285032428831
0.336422791992748
0.33423987754093
0.389033686744041
0.358343129152565
0.436686222178328
0.419105563697069
0.390418281977969
0.364555910481547
0.349878431266967
0.371980172330021
0.375438076547338
0.369561643447963
0.366249686683384
0.363933234534397
0.404802752811839
0.375701159568177
0.373815082631338
0.368264753812277
0.376222691047908
0.378049665372768
0.379013588673002
0.380583727888464
0.382332636928564
0.384527704778549
0.390775415189333
0.382513337862479
0.493146293501985
0.42130583122011
0.406452781415119
0.41130656350745
0.41193984599323
0.415227822562772
0.410079286905918
0.437165380307759
0.43750719121266
0.422819354462603
0.432963581979344
0.422286482139663
0.431888707995949
0.438820635162007
0.473276708411079
0.430928165892267
0.454023109990659
0.426481586462543
0.488014094617901
0.510978775247018
0.461123945091781
0.477771837894471
0.461294713455003
0.451009295899302
0.456298929249218
0.458911422015056
0.456534141049247
0.459296850365934
0.454978659032473
0.460590948752235
0.452184250831914
0.457495152436812
0.45356744742591
0.449171969309516
0.472364127950046
0.45212713839009
0.449103383733522
0.440853912794513
0.448347144071291
0.441857494433881
0.475132943112947
0.467032517535386
0.450985503003084
0.445335012507744
0.443665707267344
0.458923790717668
0.463269595794904
0.427190432457948
0.438096649173219
0.43103958370987
0.440081851802232
0.433925418506845
0.445914265724453
0.477740937625156
0.451673940175448
0.449208758414222
0.447674305290524
0.451266994054163
0.453702463307922
0.462476533920991
0.460790190118713
0.468498097704572
0.468229576183364
0.480595740072073
0.475989849280419
0.474838557483102
0.491328044285631
0.496303870159727
0.500616297845288
0.484458525723778
0.484431920218345
0.479391812541388
0.485711879883779
0.496843150643014
0.487369101493832
0.473088124230255
0.477010678642506
0.474309930731056
0.471221621411191
0.512436517017583
0.478165508707445
0.484483331292456
0.481236288988817
0.465145118504012
0.468670508649291
0.465063036976163
0.458654054068657
0.455282848709323
0.459732392357617
0.450671368022889
0.45531766918381
0.454631102224254
0.449364813743216
0.447463482877923
0.448646352423361
0.447763794618548
0.4430522140696
0.439570507968074
0.440485352327033
0.4377506498231
0.435957794159907
0.443478106618098
0.437585556774318
0.451912941596016
0.458210159931882
0.45703291466987
0.443429746545593
0.447035096550957
0.447156534428964
0.436244680719699
0.444034172032455
0.436678206526476
0.437744801949362
0.434340387079946
0.438267168309994
0.43531854358815
0.430502467824228
0.427740728811214
0.438155336540849
0.42654217197336
0.421520780989495
0.42590254377286
0.424884118166966
0.422671164001513
0.426503771271988
0.421902470067495
0.428548760969179
0.420296143892156
0.419055869926606
0.41806383938724
0.416162640930829
0.416867982059445
0.418861416637147
0.420752954225694
0.41290637677496
0.411971355250135
0.413506382246226
0.410249894231331
0.411157644817175
0.41059132599301
0.410627944019517
0.404846247880546
0.407544972187336
0.405751206436631
0.402828096046621
0.397807420773753
0.403239657384248
0.394918051764042
0.389932504686452
0.387302229423821
0.386903699563409
0.383448302665944
0.379268413931406
0.377391029275103
0.37470027160278
0.369272250191594
0.367777631847585
0.366445179360581
0.361715477979885
0.357859383851674
0.363269586278612
0.35766889288142
0.355858814786207
0.3533422724885
0.35345097005176
0.348790212526142
0.350988452265375
0.350604307996131
0.350643474140362
0.349012309915457
0.349079199637776
0.350224770450709
0.350266538490706
0.346661399507322
0.352085088476307
0.354766214075664
0.354018522408186
0.356485194293478
0.357944079619303
0.357177028504456
0.359079661756967
0.358893896201283
0.361036123116203
0.365848970216072
0.363469379944562
0.366797725199421
0.366679293749613
0.369826221291491
0.36675406518309
0.372097972300274
0.370684410452341
0.366595119469354
0.369753478522389
0.366883135245588
0.368861615981006
0.371395593056909
0.375042256058831
0.37087348729962
0.368568646148311
0.369937728615182
0.369312923147888
0.366102218759403
0.369220531377694
0.366241593215887
0.36606224998761
0.366165952535974
0.364372389756078
0.361086965748726
0.365613767826135
0.363025487040783
0.361224879050068
0.35891300818648
0.357148357773921
0.360769084325936
0.35730863255313
0.3536918492247
0.354446623957432
0.353119871290032
0.350460073777686
0.35011938588293
0.350294272658543
0.346086266800134
0.345081736996821
0.346465417397898
0.343172741679148
0.341546389884675
0.340446899492191
0.339729916852588
0.338663854414361
0.333490380722296
0.332179955832179
0.329845532211196
0.331014083271062
0.326679184604635
0.325807603155975
0.320699710693571
0.320466982376725
0.320347409601634
0.317249178951872
0.314144159259013
0.316076753543747
0.313581168733865
0.310133052240865
0.308724820999839
0.306978586435672
0.309453479180826
0.308560041516812
0.305716514582536
0.307635564029184
0.306147164384523
0.304821282648441
0.306021379942735
0.305409161295425
0.306004687067633
0.302800652345908
0.302146344690243
0.300664006821602
0.29716951461367
0.296455599965341
0.289944436681715
0.286039469369802
0.284601309560068
0.282616522326621
0.274808318736046
0.27216363750687
0.269325685491213
0.264394671101687
0.262960784280467
0.259194140002516
0.255182055702259
0.257116471499574
0.258009055260604
0.258096419292289
0.26159264575908
0.267627637245674
0.270688964140073
0.274218180557404
0.282194966034426
0.290477474513233
0.297350763832105
0.310210820759954
0.319565136545563
0.332313695651005
0.344935645783687
0.358847084333566
0.37154042039518
0.387552506166014
0.396678221839852
0.411132037834298
0.430465019336799
0.445881160574452
0.4618082513803
0.480219707811962
0.498113073662828
0.519644576177097
0.535219094636704
0.554649820375896
0.575059144510044
0.590288424426262
0.61075108122053
0.627767825613898
0.642812178471786
0.656769259473167
0.67274507774329
0.686816630547687
0.691310001202687
0.701297607860821
0.706583114594171
0.707964737991657
0.707731482004417
0.72170896756633
0.717751276382111
0.70905011269398
0.715152675646455
0.714893782858671
0.711119657672085
0.70383737375315
0.698441035939409
0.691624911509558
0.692003996204138
0.687364814405206
0.6800578521316
0.678112344920311
0.67621639806481
0.676554425842549
0.674353736078656
0.682770940753059
0.684326884155336
0.682613300596484
0.688898968513065
0.69038513402568
0.693890670119752
0.700458878257694
0.709023674480991
0.714499310231638
0.718989671688131
0.731450230913297
0.741587451653926
0.745369974122342
0.758758628283754
0.763974379494933
0.772357519902161
0.779923310895659
0.779593758295816
0.784872936297304
0.80422477567122
0.803657363295566
0.797793796274881
0.802278086676423
0.811562122581703
0.806171122854401
0.80286572490272
0.802993249482365
0.808924305243126
0.808486528019661
0.809207223729157
0.81079433386205
0.820012559927787
0.816437318241635
0.834457955026814
0.839065905278967
0.837079908106818
0.84339188184806
0.859256722606545
0.85813394192281
0.861341284705195
0.87528306775967
0.885532658483606
0.888870397864316
0.898700920585943
0.912270947435531
0.926710082287558
0.934184789793999
0.937095698341002
0.959812205992394
0.994325016233997
1.00192350110865
1.02576979629161
1.04583674218713
1.0862257193405
1.11605704178825
1.12390706406495
1.16436101876236
1.17140233988383
1.18759944346451
1.23033392013431
1.22488385737433
1.23947066076351
1.23903815048339
1.23409867288374
1.25851579653652
1.2721982097591
1.28078275526558
1.30983383623415
1.27271122477346
1.26159521281692
1.26339165951409
1.27783631108518
1.23913355951733
1.22193126442703
1.23530166388098
1.24145039988181
1.2392299110958
1.24911520949484
1.24034207399934
1.2597449270793
1.27662984776082
1.27386356362241
1.25706175506718
1.28692117295435
1.29526512561539
1.29846210916998
1.32693576477658
1.32929416038864
1.33001426332677
1.38071830645613
1.39079854590767
1.40716837530059
1.44011928223951
1.45547367489874
1.47058361700855
1.46185658031078
1.47099769642816
1.55227328337567
1.54723236509437
1.53779983479871
1.57010671812972
1.54952568073787
1.63837186354891
1.65143464303998
1.53491974842987
1.66236862302214
1.68828364493604
1.6712053475008
1.63424174048131
1.70267399758451
1.7882534821501
1.74857622169163
1.8164522921908
1.75524745135968
1.70921853757179
1.83263075429189
1.7845899721364
1.73079524214613
1.75276308327743
1.92675904043879
1.85762988013288
1.87351094705269
1.81820582522072
1.76706872909662
1.82296432660207
1.91419796624708
1.94836009015637
2.04653144087822
1.84872580708448
1.83387462773716
1.8598708759383
1.78817283419569
1.71297221233917
1.77937682325633
1.70563591088919
1.80009615841531
1.74501750320569
1.61417891363177
1.67108786149254
1.65860857963594
1.57825151260707
1.64298953447168
1.57381212890264
1.54693218867705
1.57310856922929
1.49724868775202
1.44422503557129
1.49418866810262
1.46196954384553
1.47217477681807
1.48191640435972
1.45752416235645
1.43318097506131
1.42123188439482
1.36520507421454
1.35327095236549
1.34702011138418
1.28419202094149
1.23275670514081
1.21481244672207
1.18346088737337
1.15374823298964
1.13142911983189
1.08601575196624
1.00964155215709
0.975328164143178
0.933274913250646
0.889870473836283
0.84931439493781
0.796472765861298
0.753787724016958
0.719747821665708
0.676373612734207
0.65166427081185
0.623138078748192
0.59019094791459
0.570232410943519
0.551073054423749
0.523892616614983
0.497210902186716
0.486947002816095
0.476167828189965
0.466178673042696
0.447865393500847
0.43893695462809
0.431133763668196
0.420839621798751
0.414457662530974
0.409937666218433
0.408627073239826
0.398679859294758
0.3979101040003
0.401083192311362
0.39657179150425
0.394102048972296
0.396895236245067
0.402465873783728
0.39703454228063
0.401901642216124
0.414856738410307
0.415031082128575
0.414569687972782
0.420849009980698
0.424410001009805
0.422945163502457
0.424528476590168
0.432783498684028
0.436352779473554
0.430360745413872
0.441407201132632
0.437617272762858
0.435084686621709
0.43979090939655
0.442916956324209
0.440118612591936
0.43710725525154
0.443399825933479
0.441446536293005
0.446479708744655
0.452195959737112
0.4488521179892
0.449828497414558
0.446883054232271
0.446563259984061
0.44735888224746
0.454938768358803
0.444457075791971
0.442418167584454
0.452229023039216
0.443119631333538
0.442492085075562
0.44561371265606
0.438681577745404
0.435009746511192
0.443664907287044
0.430973147919783
0.427176722276254
0.422333585368031
0.422436142788737
0.429506986594114
0.42573624001589
0.422064677805863
0.420540203782715
0.422135504707486
0.425135343023604
0.433038624109569
0.433497694777558
0.43710639803313
0.445892546335112
0.443555267869694
0.443516041631888
0.456429450509118
0.462521555797097
0.479398824208632
0.484741021676076
0.48870443134033
0.498274137813169
0.494991234980876
0.492418515443383
0.489029639301958
0.480425307789343
0.47465140760919
0.475925624499631
0.464933552995684
0.455597117265487
0.451028559726748
0.437458532595962
0.432116289810492
0.428657423946778
0.427332275844957
0.419216958944791
0.422293716794692
0.426343173424487
0.424877029566393
0.427140347146993
0.436869822238399
0.435981195342283
0.426582080558589
0.427056799082959
0.422622913616513
0.427740891331179
0.427752377705532
0.421552710623163
0.423669729069025
0.423687112022526
0.427389982972803
0.433012743875256
0.431413042884755
0.431215473407009
0.428933237254634
0.430543056638564
0.420772580011411
0.41757912003325
0.433316300590241
0.421129236302866
0.412036640800366
0.423671658710988
0.427537837927973
0.419667499133204
0.420901823551763
0.413224222166147
0.417390240525614
0.416208157888831
0.413600531641545
0.407500135754614
0.412635588739033
0.410141277253392
0.412518475248205
0.405121805015581
0.39048202175802
0.403076103894823
0.403688495109865
0.404041791758307
0.396358451454846
0.394153443831422
0.391716115974237
0.380346778789569
0.386481946384562
0.390505837135359
0.371208872836864
0.37737736036398
0.383547874971669
0.352050544241922
0.356926334890792
0.357251403533984
0.351801328203617
0.355301216773945
0.35607778113945
0.356267225383712
0.35171451749607
0.351140014596146
0.369438177990748
0.375080276742999
0.359362191626244
0.361236214717278
0.35231795884349
0.354566049546538
0.361758059324279
0.35912604671515
0.359811440911614
0.358877016925694
0.376816400270999
0.382121636377334
0.368221397036126
0.361640233880843
0.375534911362964
0.377454734262762
0.39782289494486
0.388470289301881
0.392687053806287
0.394449696476279
0.397266697904406
0.405697754161205
0.396815872306392
0.394362102507716
0.410394146943524
0.414455227659004
0.421857159972673
0.428372979827902
0.428919617235933
0.454201508296498
0.478796945742493
0.470724181418403
0.464075013756701
0.463309007994501
0.504571231888604
0.5141774451012
0.507357345483884
0.527503028273716
0.531802730354281
0.568100439962365
0.554792705188861
0.549729499077161
0.585396168785448
0.615864372300475
0.580054449029884
0.579233544406138
0.605950154882467
0.585743870682459
0.583434095764001
0.595731675268148
0.571625936413012
0.57291728819917
0.568128945777191
0.575449422489446
0.56190706924502
0.576833312848602
0.597976256580064
0.601229035903494
0.589348343305834
0.593979286997875
0.595876687046834
0.607520631265605
0.633427501962089
0.634860873441109
0.615910603581072
0.615171864904412
0.614330217034368
0.611527895847386
0.627735708742587
0.599699420231876
0.598592128427701
0.597022920606792
0.586335384039841
0.604258898785525
0.579021867939542
0.550768093280466
0.542410884138369
0.560819462891466
0.563213173969572
0.572216994350893
0.567790652887025
0.579187375561538
0.557862874929549
0.561411387831832
0.560141057670279
0.581282241239803
0.574949192860257
0.564683658695242
0.543538114679544
0.603653936398005
0.582758518923553
0.621401740274282
0.539237325464145
0.5381804604868
0.586265101933821
0.53673378744329
0.532960504888131
0.532404449588466
0.574254374368852
0.622453877790145
0.552542940287207
0.572259439578063
0.534137343202727
0.580531063413432
0.604785042158769
0.604723252476381
0.553496581814855
0.569621009682332
0.577146310544929
0.600393716527816
0.646175366733297
0.700276269106409
0.652956177180977
0.637152312230168
0.666912931317081
0.603113297651283
0.64216271157811
0.749572771884746
0.647018326042357
0.693423984680591
0.715968027677235
0.712423900020766
0.738665034197329
0.791958108038463
0.798279051848847
0.807589557509775
0.677966342860765
0.750303782450434
0.704326051676643
0.739622866882676
0.739163860524215
0.923377531210114
0.848146133761796
0.716864493492827
0.78775868542216
0.710483663216922
0.702280575752395
0.881917638630163
0.704207285667308
0.670734337135861
0.717775901050996
0.874596949838635
0.785337324875842
0.910308451685805
0.821239400786091
0.864738733351048
0.697851045915109
0.757081056856578
0.782437904523149
0.729090885766684
0.737969666764187
0.874758198943755
0.767632327195956
0.69153583415961
0.763218093106088
0.879659188964781
0.738072619474663
0.858796054956129
0.829402802441287
0.77149127657503
0.755971227484083
0.726562601065893
0.761612609274925
0.835889096883388
0.598692056195377
0.909317769566177
0.754864793465801
1.06508842922974
0.625190119622067
1.26906792663553
0.870587367615285
0.436739225684041
0.940963254575898
0.801420428438396
1.13016088353862
0.849907648302173
0.726227385904385
1.55701274207745
1.02373190113787
1.27478844992127
2.06355541808168
1.28936713575189
0.710807061298353
0.601223806316503
0.794701147371671
0.98129344720775
5
1.10422129107473
