3596
4000.36533379555
650.420452594757
1
2
2
0.0721820031557369
0.0606141542400108
0.0665045923887015
0.0560497190278654
0.0759793893822841
0.0582040745772105
0.0686875450720362
0.057391023342269
0.063361774735207
0.0652637268327897
0.0661372152406449
0.0512601207838417
0.0662843242803883
0.0526741542473812
0.0675174534653329
0.0554365793681296
0.0666796898744519
0.0588183890509333
0.0654755735000811
0.0626726815190182
0.0712475572519257
0.059194597436277
0.0651559888615224
0.0640722707437116
0.0708695026095147
0.0610411378294911
0.0713403377881375
0.0576047822994456
0.0683495642517742
0.0630789876022589
0.0693884848066476
0.0559081621747474
0.0665317915893374
0.0585235133301291
0.0645881585520401
0.0520349080588105
0.0713161691526193
0.056552563169231
0.0614103275304882
0.0704902635072617
0.0667688088888633
0.0561744460620396
0.0706414166420647
0.0588448344357642
0.0703784875381537
0.0579903860822803
0.0764940872581509
0.060782009252328
0.0698367890529768
0.0619225313821957
0.0724348622805544
0.0583172408001911
0.0715164949401838
0.0644547711847323
0.0804088323786622
0.0737092559518391
0.0792451543543212
0.0538652517747346
0.0681247569566432
0.0559358200440451
0.0897501040195749
0.069735154137141
0.0724067724393983
0.0507621885627518
0.0722739240858458
0.0588521154831039
0.0714652624998731
0.0580579069480177
0.0652248185986433
0.0527574243093328
0.0674285717560018
0.0671590935007604
0.0859805270555096
0.0642650179649909
0.0836896135337221
0.062603378924636
0.0679239315248938
0.0578535161870711
0.0649428047742852
0.0575002078798196
0.0890541896598495
0.0603889478804371
0.0726568635055059
0.0474257919477359
0.0796750119194054
0.0707290574616304
0.0622014237989547
0.0599421472260802
0.0955610323323411
0.0663428254802037
0.0709180489433093
0.0444533048459707
0.0647707899875653
0.0521459821877812
0.0659692711170684
0.051498609765512
0.0614217180854326
0.0531319941112897
0.0614349016909962
0.0603148879222244
0.0815965428507494
0.0787877585095348
0.106178403737923
0.0579202217477929
0.111998409468403
0.0708370746462695
0.0724464231585764
0.0978973099877336
0.0948864669248047
0.0562811868433862
0.0707746991045353
0.0477163835279196
0.0753947936219588
0.0557803057238648
0.0677308762080485
0.0765719313810386
0.104794255757616
0.0641971388114114
0.0681174464879904
0.0491404249862257
0.0559485877753156
0.0684212610436106
0.111840363342859
0.0552630633250882
0.0836930760312241
0.0602671887036243
0.0621575067837926
0.0866594629785205
0.102707861146654
0.0603897276563408
0.06000451152665
0.0530957822061106
0.0545703644355291
0.0610504861279344
0.103256864987878
0.0661094058992405
0.0635725132585577
0.0475752624793091
0.088829196539739
0.119979909430013
0.0917786336016774
0.0608916966052269
0.056420325049047
0.0683408872898237
0.115945113928753
0.0660370023326623
0.0649434805422949
0.0744297575419646
0.0785609500538442
0.0508243442620928
0.0552168974623103
0.0505370376758227
0.0835869948809817
0.0555441808632893
0.0441677523547507
0.080593262353762
0.135890715714374
0.0864268761580635
0.121894276854263
0.0737334801765352
0.0753969407160019
0.0604303552408067
0.0635364572852839
0.0491368141940963
0.0667473724771637
0.0483973650617585
0.0840337521851806
0.08956452970041
0.0650578187439946
0.0644622906039496
0.105831457016227
0.0557635505558139
0.072113922076612
0.112340388779553
0.0840547772934536
0.0555388921374296
0.0983220430303519
0.0735066238272862
0.0524342824494839
0.0673128863401935
0.0996429714759764
0.0580676037899582
0.0716833963494818
0.0519898770726412
0.0763783584031227
0.0801275607067031
0.0724348803140161
0.0545768952406179
0.0611112018798219
0.039136717715672
0.0826338446066638
0.10857152959043
0.10243638033061
0.0667781034463481
0.0655944304875889
0.0324205503271717
0.102098910466757
0.0913206289755622
0.0681407077853755
0.0498482725355731
0.0580797962858664
0.0484794491704795
0.056046765319382
0.055524368474152
0.0519629478671011
0.0414452645693007
0.109350792390458
0.0796907128159607
0.0632164785672484
0.0513152866247162
0.058578117623952
0.0508178286008866
0.125620169468256
0.0860453685272951
0.071062130293792
0.057527941720318
0.0592937807402191
0.0853563727286865
0.0865087307838487
0.0571413013100274
0.0602733274037217
0.0497330353163074
0.0563269130162819
0.0495000765376943
0.0619774759863032
0.0550162581984516
0.0631062601108493
0.0526171167047105
0.0577152774326125
0.0550439408188404
0.0733119620893673
0.0554561156269511
0.0587891689124566
0.0550333580384512
0.0577149769779902
0.0652750101992344
0.0851702985194197
0.059320407343456
0.0610756159828273
0.0548286416466533
0.0581576528527452
0.0540237987744396
0.0632138126259792
0.0589069705160769
0.0564831040896595
0.0487599595045103
0.0950764879834676
0.0731135059616206
0.0650223907253272
0.0452710331010593
0.0843648576839008
0.0712341347070599
0.0620514106607627
0.0504570090433603
0.0642334250728187
0.0454261411396586
0.0658303363015902
0.0821145837078717
0.0760267061785877
0.0541447034019193
0.0813464617137935
0.0662149442498964
0.06461228176219
0.0458366808227539
0.0675336283198264
0.11886574933473
0.0843478307163237
0.0487348920079094
0.136669456504236
0.0811630797396084
0.0859829046178023
0.0552196800180406
0.042634191497571
0.138908249990911
0.137995939299034
0.0640492143363975
0.077720983114023
0.0758370327595388
0.0686065593713838
0.063193068905224
0.0728943787250785
0.0659868095464412
0.109195610854861
0.111595034283581
0.128744916849633
0.0530771297827514
0.103685382479131
0.087107732937031
0.0805994413653838
0.0622075155066035
0.0692364150679722
0.0507664188934117
0.0848420036371332
0.0779511833608598
0.0941377550152404
0.0618547133839295
0.0806123847787325
0.0864588946038137
0.0803414129839677
0.055976340262943
0.0762831530589144
0.0673439365349751
0.0673241311535808
0.0581126469772529
0.0689794656958376
0.0648544124368804
0.0639557568225854
0.0528193988293187
0.136724649254316
0.0813097231295064
0.0835212817409864
0.0870823048393152
0.0769516259448291
0.0573747705480634
0.0750552104967463
0.0566857006646392
0.0625240735992293
0.0544885907686711
0.0560792705599093
0.0899708805866052
0.0812849711216395
0.0547073645173346
0.0697535026714022
0.0504280624249766
0.0708987730205405
0.0569523232731965
0.0668227280839324
0.0585147767638918
0.0684297882427497
0.048257189474442
0.0905302412951186
0.0935608914114198
0.0618034517668716
0.0984135855541862
0.115579659153665
0.0704588721619682
0.0757434050227145
0.0512731002342994
0.0804907371549825
0.0650192850678796
0.0687181238791712
0.0573900009973326
0.0730517595242108
0.0816918945508341
0.090518678385953
0.0662946070494724
0.0835893026821067
0.142754315645849
0.15788848910587
0.0815137432213284
0.0883337437151532
0.0551549671970935
0.121558983014482
0.110581917957983
0.117042165165361
0.107158566694469
0.0836619976659645
0.0754029489083477
0.0809994566289346
0.0753112217588168
0.0805235293496942
0.0794164892223972
0.0914474311873958
0.0723727729061646
0.0916784206038116
0.0825624424945266
0.0827309784072242
0.0851678719537661
0.135713977844131
0.0977244794860647
0.0915469631321153
0.08683891102144
0.084971684553745
0.103783527763981
0.127733091103809
0.155768815817094
0.148546946322579
0.125426666919634
0.172600757475251
0.100222820863379
0.109563441919435
0.0914424393272526
0.110541438342098
0.101586999209723
0.111056658731047
0.0993506015105946
0.111013254907417
0.111329678113252
0.115544159835805
0.106678521898237
0.115413605254729
0.104041703136836
0.146865432468176
0.122470629427346
0.128679953045283
0.108531268409288
0.142051228572467
0.169270501330762
0.197491621070554
0.134033276682848
0.151908845797376
0.122679304694791
0.135452620081751
0.121302033454989
0.136052905628957
0.123467773957166
0.148740179160598
0.169751279536997
0.175145176817391
0.169748370221676
0.171761696370422
0.123702524175487
0.183284982155979
0.141868738438689
0.186758049737133
0.180496352945795
0.174089216562924
0.134258682054782
0.212227268856034
0.177323498284695
0.192841030015229
0.191752473557751
0.180189335365706
0.162521183109374
0.172568341529485
0.173233618881171
0.18421917596074
0.176644580358225
0.186854732543912
0.180660306884472
0.204244477514809
0.179787275588975
0.19808726886016
0.203049638624491
0.21029595067152
0.190566086182917
0.232894228072456
0.189489614868473
0.221057400319302
0.190021281062178
0.251682924694788
0.231322505896948
0.245542699385293
0.240556760848673
0.218270327213236
0.213855085433598
0.233144032606859
0.220951755633392
0.239751777578296
0.220742690985873
0.24570222254484
0.231438029313198
0.24087048822583
0.229307980185531
0.253419565894193
0.233957817266547
0.269311517023036
0.235238784232191
0.261052127578846
0.242508818493024
0.271708491673645
0.238495980320188
0.324503086783073
0.292188400448116
0.325544329360628
0.302202126368431
0.300126532345262
0.288578994735818
0.299860448169074
0.274318653973376
0.302640238450953
0.30568005392042
0.303177524482709
0.300237489118108
0.31437559797002
0.296920499180245
0.321038275550422
0.298003563669418
0.343523557693939
0.308740486819845
0.369482114658143
0.31779035935442
0.351231101967973
0.327123262463729
0.353568666599166
0.339065769085555
0.366279615279538
0.363838650232109
0.356773240900779
0.37421413639763
0.382588770088351
0.366916710476584
0.367587053845037
0.36578791539801
0.390988109538856
0.363405364942272
0.396383639700805
0.388714136377407
0.406465180983867
0.373541971484623
0.418491184222113
0.376256435642695
0.42172745511101
0.365763531624461
0.440098421665437
0.406156827593591
0.436688087985106
0.405199398599711
0.452859233872033
0.42307483218758
0.44784254237493
0.422690385296778
0.45672105061192
0.428123120062129
0.470589074450013
0.433534000696144
0.481546668736823
0.450198993005214
0.471984047789545
0.456828832842288
0.483262731523658
0.455612135174042
0.486420577959762
0.469611293202531
0.516818163228232
0.512055879400757
0.516969701103766
0.471202095456574
0.529450930585895
0.485816030682495
0.552727053375735
0.49469570549041
0.534696978079359
0.528428700366857
0.549260370282982
0.502142376093636
0.551563467443148
0.516937996071706
0.564463002483637
0.537342629719166
0.592138764094419
0.562507394902883
0.575921719737683
0.52938513094955
0.595817412909722
0.567671271628887
0.623424097750825
0.565207312567926
0.603100250106569
0.57111917593254
0.588547548042663
0.577271343739897
0.614454510574302
0.572107481441522
0.634888179366455
0.577078006224037
0.648020103820197
0.595388454233284
0.628662221666019
0.631098105642686
0.675373013905746
0.602490603226942
0.647243231068393
0.606842514638452
0.653946490529762
0.632182905818096
0.638579522661684
0.625946057248909
0.663492446980098
0.619668803247972
0.70556619922139
0.664819651230464
0.698251263760465
0.644344941946454
0.710616943348591
0.653688079137507
0.733072075097218
0.644985870453587
0.702366124415369
0.645844034045569
0.730897864821605
0.70572280714025
0.706012276283915
0.693276987555405
0.771925894351765
0.692742471403519
0.732946922648711
0.715319379344026
0.782329261030505
0.70673347073006
0.735199431451173
0.73439873900524
0.771386096975337
0.706041943335796
0.808524087153105
0.746147888953139
0.779034430763325
0.7291301935903
0.791490779832285
0.718079450132089
0.801343294092895
0.721432351420345
0.8021919828312
0.747403800490461
0.798056648878462
0.751446396699859
0.795574093090684
0.773808991486244
0.868570833249976
0.779307800453997
0.811418954951483
0.769965498622575
0.87998764049849
0.808443646664919
0.850355581430144
0.812577446336394
0.892377963812472
0.844923623844136
0.843335003908262
0.81165394680718
0.876851035868021
0.812068462065842
0.916902838824985
0.856937236142059
0.877641001191338
0.823248678689353
0.912159035641301
0.826188970766044
0.858430790654862
0.831733115394838
0.902945739758049
0.836728407020867
0.909471820351685
0.836907514903525
0.908938989264674
0.83082385861324
0.884731874433223
0.82321194062825
0.945570720083369
0.831032489199078
0.860903900951209
0.8249351192658
0.906596225113344
0.890348642992559
0.944284997059728
0.90614941360548
0.904390473137869
0.839540990541922
0.957428728473995
0.916797637319248
0.937182651550308
0.886330142164017
0.930549250257609
0.8991767476565
0.963353089026647
0.874450119430493
0.956517188495434
0.928573607739422
0.995616428802399
0.917967931088263
0.954280180890269
0.938714599038377
0.991956918310384
0.942039743773708
1.03766056935585
0.898048786828581
0.96090338904448
0.91123647968777
0.957781478973132
0.916200725083179
0.960964352854511
0.936003762511869
1.00408270060414
0.885513986904263
0.964531190575753
0.919981522568022
0.941313058576269
0.955996430249521
0.965693846500622
0.94330339606479
1.00588787620043
0.914680263032305
1.00226599618963
0.976016603528809
1.03252560445189
0.891164112439368
1.07760349362508
0.970230536619319
1.02976191915628
0.991893163997067
1.03857375787205
0.92245849099222
1.00763118005707
0.929217966590488
1.00421062030827
0.945606522594138
0.98584486266911
0.973411100610145
1.05081770756426
0.943581573771567
0.968416259390523
0.970185572463207
1.03693214429128
0.946659698075623
1.00528816252776
0.975532760137001
1.03356186637435
0.969031616214816
1.02298309152479
0.941700291097521
1.023425361007
0.950515362803329
1.06919785361701
0.975965438344883
1.06759332539562
0.972230185537137
1.01397470684196
1.00427555826428
1.00072338098288
0.96414085721165
1.03685624766965
0.928661709006644
1.00411880488152
0.923826476648806
1.00496813913173
0.939974391951581
1.04322367188344
0.936256852928874
0.996017121269337
0.966208719103466
1.02909123117949
0.954447713501804
1.08227953143449
0.974599397826967
0.976195392364441
0.98546120331079
1.04383939401502
0.958012904588403
0.995564325968423
0.96555225526308
0.982533513685091
0.934181628872853
1.05545820637607
0.966118697826413
0.990933923136795
0.926828232493579
1.02007886121785
0.97238264091804
1.0044992622463
0.947391236632852
1.03251895098349
0.96234887887666
1.004843000842
0.934839611040885
1.01296512434866
0.977053591224436
1.02638440756986
0.945377553413747
0.959794464763434
0.919237674842403
1.00030558832176
0.94511581861045
0.975928219063528
0.946774483807358
1.01622672722253
0.901189284118519
0.963039981134983
0.948279734665324
0.911123238371569
0.956897323988927
1.01022080082512
0.921237019590418
0.96496547792131
0.923980152699756
0.999125550558118
0.951364814242254
0.974790980803782
0.951066792280266
0.942944177585024
0.930603536699073
0.977608041200646
0.929882602689664
0.964095598912216
0.892124269311281
0.951715032569632
0.930801909286073
0.947762329321963
0.905898562298297
0.969529014454175
0.924494552958553
0.94249601665678
0.916522244498498
0.939165025041232
0.888704586189249
0.923375943527288
0.895634501608349
0.965934605428989
0.880261105743534
0.929543948251858
0.853622353933248
0.905350631408183
0.912894742481176
0.943983311862813
0.854266476971998
0.922716676876492
0.85920087302856
0.909254691114235
0.90454850295377
0.91307131845682
0.845698173653235
0.894665769831435
0.866747466696992
0.881478371262332
0.85883154809099
0.904587143253736
0.840361269590684
0.926015513380987
0.876014081655006
0.88312648500078
0.827998395101525
0.865660491419601
0.819783880492045
0.863972897245841
0.807684092718919
0.843801568080357
0.859958922807399
0.869624695265765
0.820840637391136
0.870762058067795
0.790494245124443
0.846341699997663
0.789695252622247
0.835771519624326
0.806569033562119
0.841207063533131
0.801488445753631
0.855998274887092
0.799852163463125
0.825506277330544
0.812020986337222
0.815821363091655
0.759127213138722
0.756927355915879
0.780240996091658
0.838726207538338
0.785167517904951
0.806326513731401
0.776405134572961
0.822386911906966
0.745516138649049
0.78474511313309
0.763933758761199
0.772092563706634
0.732188045912972
0.77035183099951
0.753700134854696
0.777643073465321
0.749321772892339
0.749355768983239
0.743048330518779
0.739735797832196
0.723922827856097
0.751311489107972
0.719298113022891
0.746616129976336
0.69542823700437
0.724726540509223
0.69494521806176
0.719914343311404
0.685657193366991
0.730261329974182
0.708608469327004
0.713422003919355
0.693906197973068
0.70867869597722
0.66913172942302
0.684618077996393
0.666470244525804
0.700559922790769
0.654979564526844
0.67071011166956
0.665957751156864
0.692807010634243
0.665025812894378
0.669168592959835
0.64092011917726
0.663306689977959
0.640465562711538
0.649649406903029
0.628505375001561
0.638289740691718
0.634978323848292
0.637393397705843
0.637158876813877
0.637172712987484
0.609763208975046
0.643158362054559
0.592618995498459
0.605934728475384
0.602059622677393
0.629454631744354
0.597677417987403
0.603733694190005
0.592076828138373
0.602658491741082
0.576099326114743
0.590493427908245
0.578780793136257
0.581626460460018
0.563124916457598
0.584966887717111
0.565257092296813
0.565838236368942
0.563773801390258
0.575015124947715
0.542826527210416
0.554756802567576
0.538631988231747
0.547676189045915
0.536447227485474
0.53068961253969
0.535068310398248
0.528216769066189
0.521746143924791
0.537417389620279
0.521150282055137
0.528561954479771
0.515678412427496
0.53937699884896
0.509398933842635
0.517064866876757
0.501430067232536
0.51301637610552
0.486054597329285
0.504050323839094
0.488591817027515
0.489619635786188
0.471152954826308
0.495346903201645
0.487001235263332
0.482793408882078
0.474449695924091
0.479436149222347
0.459778884878614
0.467412613662913
0.460057130764372
0.472702506243759
0.451441647430068
0.47609748283636
0.451296522515977
0.457855402913756
0.441163231647249
0.448416284680274
0.435600896839345
0.445147436480351
0.434350725319255
0.443503161325692
0.425614060547561
0.445204142928384
0.429103238272315
0.437787596287218
0.416246817289277
0.428465144132232
0.416762682203069
0.417714983814291
0.409269251484602
0.423016986081111
0.408974856291159
0.417285286423301
0.398520198405921
0.408102269590471
0.398842657974575
0.401100764380245
0.400146802757582
0.400562829861342
0.383481505118491
0.3899537686339
0.384592700883236
0.388807511377013
0.376360568740202
0.383155435886939
0.375178125038167
0.371395913585727
0.371432964857242
0.381052507949815
0.357888751953162
0.367642916558716
0.366185563946649
0.363591273631657
0.354652246144543
0.371599865390061
0.352893087981042
0.359382643271036
0.348439270069967
0.359774615405821
0.335364289628955
0.350541271219945
0.346325438837393
0.339840150192905
0.330635513073704
0.336348973509591
0.327786092743272
0.333255062917761
0.327502240801843
0.33282466156251
0.323449793611445
0.33194498959981
0.318450990582114
0.326958257558851
0.311679704322284
0.321935159436125
0.312872440167377
0.32522583527477
0.30840569532748
0.313573344993026
0.309592830715752
0.307593570225739
0.304046867172647
0.306514826181019
0.297068996799659
0.304301687161419
0.294518268637597
0.301442885636858
0.29155987260221
0.291886411813951
0.288806216555157
0.293989393350742
0.281492357257883
0.293264071331169
0.282677062890255
0.289899128383406
0.284191837899476
0.285714224934811
0.275586457030566
0.283532911001255
0.273098646426948
0.277511674885014
0.265692794738645
0.275324901946848
0.270194413351744
0.272633320355059
0.265432435672021
0.269072582124869
0.265398871251668
0.264011888295128
0.258107569819435
0.263930162112464
0.255562461103295
0.26137538974448
0.254285736527923
0.25510320502943
0.247377080558038
0.256936087024268
0.252221057664732
0.249873928605254
0.243976399119705
0.253159917569336
0.247451319691054
0.248636017706333
0.243974090872936
0.250600531640985
0.2433959706462
0.25452557964049
0.241208409065909
0.23421185124677
0.240680450189996
0.250709173546016
0.243611826254326
0.242699421331859
0.237642443874951
0.241570342092662
0.23705755652722
0.242027250659229
0.233166147101977
0.239051071672957
0.232168360395436
0.239631098799716
0.239573543005625
0.245074869145636
0.235359439408727
0.244004654818602
0.238907065650508
0.245635996485043
0.239742410991032
0.244388495838623
0.242513749227844
0.247669554323515
0.242709083772685
0.244983596640026
0.235968061035503
0.249349445907136
0.25010683768619
0.251929950086217
0.249065462490252
0.248711710192988
0.242843572936231
0.257417500514342
0.252688321768394
0.254800914664164
0.249500366551196
0.261743594732023
0.258470826115111
0.264324417576807
0.25930041575581
0.265980974948078
0.261633940069636
0.265574154622086
0.259419450324095
0.270114862057568
0.262322250094562
0.280702035475051
0.269577970230045
0.276072153827163
0.269338834192839
0.283717979740208
0.275686069282581
0.282956635636328
0.28463888594121
0.288447077194426
0.284493019192683
0.29881989983244
0.291479533903095
0.299176594821258
0.300716695634629
0.307749603983693
0.305439002246254
0.306472832836734
0.302211662658822
0.319187594815729
0.315693062799113
0.325319441679416
0.325239485156027
0.33347335553965
0.328659591259665
0.339892347174983
0.336896299571018
0.349706372498486
0.348355352251779
0.348405909195236
0.353757952352679
0.349952441039
0.343091806534374
0.365553019575869
0.363802156823721
0.362081215728477
0.359055327323825
0.364417153466852
0.369740094114851
0.372160175367446
0.368805345478885
0.375632982603199
0.363885014470852
0.376123322151828
0.36459234856406
0.378162204099519
0.363608038774695
0.362454200534563
0.356703190716311
0.373621109165175
0.362727782337503
0.353105886596029
0.358556395461751
0.36738077204927
0.354377497890826
0.362489824883157
0.354537302827294
0.354396874793354
0.353795415652041
0.353761605025514
0.347748198097732
0.350548373975891
0.347779336611838
0.354520093452123
0.347001528314057
0.349295737444235
0.34934904864263
0.34980715668071
0.349092874712843
0.352394259600607
0.346727085262278
0.347532191302751
0.345528956492605
0.350701085945151
0.338532665001652
0.346608733927759
0.342903401021256
0.345810533583693
0.349940243929638
0.348710115987712
0.342047022868683
0.347805630587674
0.338803521306835
0.34820365416013
0.341203488311364
0.342705480233675
0.33548392458555
0.341739706199505
0.333902318120448
0.341057992433471
0.339108585356254
0.337087187400608
0.329141519731151
0.329294412537672
0.324800038315123
0.326715062822793
0.317474295069259
0.323015296851247
0.317294568174948
0.320745525336497
0.308831592316934
0.317488350968476
0.307335607613466
0.305392259699458
0.30118476060171
0.305571954782574
0.296544676018617
0.294347109190344
0.28658031247543
0.291591091328958
0.288281310048746
0.292695783487749
0.283724545788512
0.283280958015552
0.278217339003774
0.280450180520785
0.271638306990124
0.272499943717946
0.267744253236209
0.267160220391835
0.257418686684763
0.266301428365625
0.262820156828464
0.26028339584667
0.253408280938267
0.252596233204204
0.255840818858794
0.248273230741235
0.246190975293384
0.246652742037812
0.242203966295032
0.241358253496767
0.242849328063754
0.242868961714992
0.235612009787006
0.245996253970147
0.238688721141528
0.234093720185753
0.230585619792774
0.235346962892077
0.230018042921779
0.230815377746531
0.228298191396352
0.229189423054576
0.221626549913587
0.22656834934629
0.224975341347779
0.225251153541692
0.216459522038884
0.219086448079673
0.220176845607823
0.221469085475217
0.218790137027732
0.213727220240655
0.213867431672278
0.212868093247994
0.212765993678915
0.212194340567084
0.202292632268289
0.207414480770076
0.207609322995187
0.205533216378648
0.204009717018288
0.206350325930849
0.200699993760499
0.202659143768489
0.203236108292961
0.197891640895249
0.197136171325919
0.204504906061014
0.196274672285214
0.195814699875965
0.193857715434303
0.196590202954271
0.19341099589961
0.194535640065355
0.193765195482022
0.195934840288029
0.189215805540191
0.193155218983428
0.186264027904914
0.183627893362836
0.185811077118264
0.191912649706699
0.183000304220089
0.187589876565856
0.179852406888916
0.181641360637363
0.184728688670068
0.18381613760067
0.179753806820897
0.184237132111822
0.182257313338477
0.180800012812299
0.177960792520297
0.175152803520749
0.175788353761163
0.177496845623182
0.177148331711463
0.179116135015054
0.177320784643043
0.180877685124628
0.177839785704708
0.180918019404352
0.176420130464458
0.176381135034596
0.173214093198106
0.176958917499224
0.173691199295701
0.171854158490881
0.172018485447188
0.173615492766622
0.171046520793829
0.173193924893101
0.17099286245495
0.171961164975768
0.16865890309193
0.167320331988011
0.167496727016591
0.171855849896502
0.171541894768368
0.171554173606471
0.165936834444468
0.170413941341095
0.161560173419222
0.171265198859957
0.164439303733902
0.165014823336986
0.164925114555583
0.170466075025548
0.165238609949218
0.169862039021908
0.16341497422087
0.167218065707708
0.163557993796884
0.162619489390688
0.160905562846717
0.161300456426285
0.159657645901837
0.164586115464244
0.15961278742787
0.163495173900402
0.158004020501385
0.158855152433817
0.157990903884656
0.156700302450985
0.15850881096683
0.160672605866118
0.155082394279557
0.156810164413391
0.158943894127996
0.160967645860524
0.15636547116304
0.159923178036197
0.159045626707487
0.157562065283751
0.155453781578891
0.161407928871156
0.157112266347705
0.160635549967455
0.155694420068622
0.153497908707585
0.150983882938436
0.154442917549016
0.156041980096777
0.155662360559438
0.156542438961057
0.156325510353518
0.148647237551346
0.156069979705402
0.152331300341377
0.153601632206294
0.157518809572631
0.157767979690281
0.151839632046228
0.149932386758515
0.150068243120171
0.151091695452041
0.151203067770872
0.153879534814233
0.151038392368018
0.149690147942471
0.145799011198024
0.151720738739266
0.1469961798047
0.150056344914783
0.145798800289188
0.146883884226747
0.146596439384751
0.148388874963928
0.144169814040591
0.143583965862602
0.139839007892919
0.144526903672869
0.145554785022875
0.145372212128668
0.143484982160324
0.141100577119083
0.139494040532724
0.141043031994573
0.135705995996639
0.139843901867264
0.138383673012823
0.136238883759637
0.135754983118674
0.140470766552719
0.137970331460558
0.137102104547358
0.137006075255258
0.138803101499025
0.137820766120699
0.139239059333841
0.132433541885631
0.134916004186266
0.13557572092285
0.134016167743834
0.132760836353648
0.137297502183301
0.133572225570824
0.132099581016402
0.131582620381992
0.135827687904689
0.13218909862563
0.131109041181751
0.128452964427594
0.130889780064574
0.130991718655944
0.131736331021227
0.13015957156202
0.131565619166006
0.132163068484107
0.13531612748427
0.128714942295987
0.128022077378327
0.129268762663277
0.130027979949475
0.129825743513332
0.131298009624174
0.12542622074041
0.126085628849503
0.125565753958058
0.125583122940453
0.123469208892204
0.123632302927324
0.118510089222119
0.119838914939266
0.121975432309964
0.123550351934591
0.119261578919975
0.122627874636694
0.120343568158745
0.120038003674733
0.116168729098139
0.117791829781301
0.115183784079827
0.114919868625309
0.116906288350055
0.115781634476892
0.115372456064747
0.117203045297858
0.113053129300394
0.112005324192225
0.114508790755409
0.109920079571836
0.111088027199604
0.113804389950813
0.109017092629559
0.111765012793537
0.110739243919272
0.107832162548552
0.109234910952686
0.109534443980676
0.106336431762827
0.107685008058772
0.105733307163275
0.10652534483438
0.105684423090556
0.104862655891954
0.106565918082111
0.109416661259785
0.104604938495475
0.104968588204607
0.107313333139257
0.106244572979976
0.103687572603844
0.106804171685665
0.104906657331015
0.103309303394264
0.103976275116534
0.104496292011935
0.103273305855059
0.102572818989318
0.100731324968402
0.0987530608532519
0.100166932879595
0.100848773374866
0.100160033487566
0.099696921508289
0.0988179105270444
0.0994454356205985
0.100152474784323
0.103047078162478
0.101747485147001
0.101223680818947
0.0999223712793255
0.100298826299858
0.100055398961084
0.0970669227563397
0.0952379642558759
0.0941722034467745
0.0965905023649896
0.0961246665593606
0.0950056645627846
0.0958539065482376
0.0950734614096352
0.095536676307198
0.095533093636396
0.0951531574568256
0.0935186211598909
0.0940048087858793
0.0925676079595017
0.0950830444835925
0.0917154028618078
0.0911502036009339
0.0920121082902488
0.0944317146286352
0.0925027633020271
0.0923759837986455
0.0893491119487348
0.0918699517437113
0.0932245722225081
0.0925455370048057
0.0916449392896497
0.0919099614456289
0.0914392855439331
0.0896796102563913
0.0912327999161842
0.0927444066187711
0.094333521745421
0.0901138571146158
0.0902415001401061
0.0927427738124957
0.0887375673682758
0.0904027533962999
0.0928412760351373
0.0904076756927754
0.0897638666885787
0.0915090699846343
0.0883157424387228
0.0883969326444631
0.0903208782662691
0.0920539169346256
0.0876302197500076
0.0887722002849517
0.0868687690931223
0.0902727032038407
0.0907328371216779
0.0882298523220316
0.0871619229977549
0.0870108769562537
0.088540749252509
0.0890969975362869
0.08536961837353
0.0885606344425797
0.0891632439027145
0.085086197139391
0.0873835168290256
0.0847901257957934
0.0837813981266759
0.0870148181145419
0.0856262877563917
0.0863071240314779
0.0858996679112603
0.0844831852507894
0.081010018769553
0.0857707652381123
0.0845657343246643
0.0833890917605518
0.0840143675915808
0.0806136682624371
0.0807997841065236
0.0820185054473638
0.08189314814622
0.081183446037996
0.0810820948602503
0.084600038445871
0.0806137243468559
0.0786946186736122
0.0791825426775981
0.0818729079173959
0.081408914541527
0.0793449900798163
0.0812441509358012
0.0826139036781677
0.0804054056763871
0.0805140013920989
0.0799120666104856
0.0790115881234163
0.0803939248236378
0.0799034264618128
0.0786236719277539
0.079605834435613
0.0775071205034398
0.0806718459268885
0.0810046713887864
0.0791756958121246
0.0829317308388208
0.0831735983110188
0.0804806672834154
0.0795284226922054
0.0795816003296075
0.0808736841220144
0.0791620047306886
0.0783360439131427
0.0787911200256945
0.0779258500212415
0.0805384374022824
0.0777901972046548
0.0784477066782916
0.0758559233613496
0.0765038686544253
0.078017564338201
0.0785582651663926
0.0766060384061786
0.076237046488476
0.0756876832185407
0.0770995906006461
0.0778898409390741
0.0747426606678683
0.0729000827758157
0.0751850959152924
0.0756209133628125
0.0734526210369539
0.0712931338621289
0.0744233310211148
0.071453846265812
0.0723645862191923
0.0724153201002264
0.0730569005822609
0.0695991631447449
0.0688953626968484
0.0715561506720554
0.0716395757220485
0.067704727913801
0.0705518931902274
0.0717271598065833
0.0695101180154682
0.0682701559492522
0.0678731612559307
0.0671380679639127
0.0700115861915411
0.0693086732627706
0.068657987467922
0.0686989113005385
0.0684036485060901
0.066480377696216
0.0675401846191264
0.0671515899749366
0.0683993698751801
0.0678743977098452
0.0667400009116419
0.0675858290757041
0.0680001399452227
0.0673865889974714
0.0693496942186018
0.0676216045629852
0.0675740974954565
0.064870452621597
0.0657326261564905
0.0660961309584747
0.0656620139215633
0.0640746317186942
0.065895019350986
0.0664943719474733
0.0647848693637651
0.0645598172056397
0.0653004888279291
0.0631889105402703
0.0649312279076483
0.0633413261209564
0.0622671954817223
0.0635826801393677
0.0651492391054651
0.0616563590569472
0.0605756747916583
0.0621441995148834
0.0623882243361105
0.0615105986215479
0.0601757437093539
0.0608922889110888
0.0591737064372202
0.0593972311852438
0.0587526029666183
0.0568609523706557
0.0605756148068797
0.0589522870743429
0.0575317891703436
0.0581226384993382
0.0576694391435942
0.0571898829646302
0.0586968929134226
0.0569038353675408
0.0574074360944082
0.0592456520390948
0.0573315836792747
0.054807942214114
0.0585520373285133
0.0568454903515018
0.0541748684948079
0.0543714521661032
0.0574836775406195
0.055533504879555
0.0538244453402235
0.0542546649750375
0.0569066406382098
0.0562852461723097
0.056101473060805
0.0554708414411849
0.0554723222131733
0.0523204696818047
0.0552317929714604
0.0552554672405099
0.056475278374801
0.0534642300470197
0.0542607516597014
0.0531784404699839
0.0555057548552566
0.0548796775719829
0.0557610813088222
0.0531579189501396
0.056146556730957
0.0531800633855133
0.0528120925002948
0.0514365524655512
0.0539816753158687
0.0516415346380477
0.0483805042168605
0.045142789202523
0.0439368097475704
0.0417275042208757
0.0429293580127379
0.0476903819062241
0.0508663011409959
0.0481798144229438
0.0442380442425461
0.0337914906939588
0.0430665931334873
0.0407908699670854
0.0371230627507027
0.0359286047732967
0.0430475915130259
0.0374430312926241
0.0410194237979633
0.0353988216160449
0.0411331931140046
0.0357152945770286
0.0414174800701502
0.0408614847549088
0.040281480248225
0.0411361581271708
0.0514721358594292
0.0498549625030208
0.0512768477927094
0.045121380184523
0.0438807906696637
0.0410326985937088
0.0469177173661139
0.0378778959137651
0.0449451308652106
0.0398894672052769
0.0418733769303986
0.0369513969546762
0.0385702996308745
0.0352001376981346
0.0382368816430442
0.0376663054259021
0.042691096095861
0.0310538372860414
0.0458398603795172
0.0391409306897376
0.0511394597776731
0.0355376735066043
0.0426854809407917
0.0311391799380655
0.0474795292067377
0.0398653464716966
0.0562174119734982
0.0309191258123893
0.0467993421626769
0.039775401604566
0.0612187064101781
0.03672036116499
0.0495079369521843
0.0447335945427252
0.0596117674188051
0.0428703186110176
0.0468727488965073
0.0516959834536978
0.0486061470044895
0.0481656023529713
0.0460579947085305
0.054026989605901
0.0434742377865819
0.0561413337322584
0.0465826178680168
0.0506858722152375
0.0463231522995726
0.0493533760341227
0.0477002415342235
0.0460740174009799
0.0468617663350759
0.0469264756637247
0.0499290537012916
0.0462430039319319
0.0478436680391945
0.0473460657792278
0.0464593434846318
0.0463701324452066
0.0455347673335608
0.0471084463263036
0.0473258972476576
0.045556799658521
0.0461881947644742
0.0470810205533804
0.0454009337333504
0.0452614512804718
0.0464919017363907
0.0437634357574492
0.0439718236538297
0.043994128898399
0.0455694834405967
0.0443914804088199
0.0455018345112616
0.0446850093696912
0.0437812640030322
0.0444847123872608
0.046505191229054
0.0468220698014886
0.0455601530620789
0.0456972748561023
0.0450899322466141
0.0435803003477027
0.0439961073959519
0.0460759595539699
0.0461566127273138
0.0452201145446738
0.0470610657434016
0.0467651048824619
0.0476885264747044
0.0456761907042392
0.045654042286499
0.0455910532659321
0.0462848094273386
0.0463821498657909
0.0479353951359399
0.045486202871796
0.0461464150058428
0.0456088843592683
0.0458721366899376
0.044940328449531
0.0456651981152596
0.0483538113501133
0.0454284306087587
0.0468392539129353
0.0479954561859529
0.0464810931441653
0.0463000611802887
0.0451146585414032
0.0437958269078859
0.0442391581706329
0.0461368784129363
0.0466522073008143
0.0433872056298944
0.0448644571382916
0.047300605230943
0.0444064966110264
0.0441491727702365
0.0425905260762583
0.0460699037513566
0.045285985401568
0.0464419454315354
0.0453480600424261
0.045444849394648
0.044518262952452
0.04565663662639
0.047894485020873
0.0464069700960952
0.0440930952306919
0.0464636860360362
0.0452314415980478
0.0453966630988827
0.04483544420597
0.0474203818972926
0.0451787978450556
0.0460861930145375
0.0456374357494241
0.0462614998416365
0.0438282737478592
0.0460137875279634
0.0479743722750332
0.0467890571540519
0.0472129463517274
0.0458050075756244
0.0461804405711834
0.0455943478078677
0.0454915014262573
0.045584145236611
0.0440574086701705
0.0480425856335112
0.047001016169929
0.047368201689478
0.0466755978508332
0.0494720392298939
0.0472105542752587
0.0488694233835562
0.0477841523547549
0.0473893520178186
0.0492249168422496
0.0516023845682429
0.0500997685560458
0.0484277292858905
0.0459379124603011
0.0484607229091119
0.0484416590845992
0.0482382336833093
0.0474086938842772
0.0476558217141543
0.0460474138109862
0.0495851280778109
0.0476726780691912
0.0456653416504655
0.0474328930329905
0.049972536683821
0.0470962224662996
0.0483463447955576
0.048250714181351
0.0496537581114688
0.0465318582641674
0.047839188476489
0.0478857080451394
0.046790064820752
0.0467462043787298
0.0463866302355761
0.0491421188157505
0.0512316986877635
0.0481176267967626
0.0478205873360721
0.0479321937631323
0.049371466212497
0.0469009843583839
0.0511495718983612
0.0470622027480449
0.0485865166684616
0.0492536419069725
0.0479968489058653
0.0468009679029348
0.0492393730554538
0.0510305776208158
0.0496419761046935
0.0486014830226251
0.0487045958095549
0.0501104498046281
0.050741129390855
0.0483889041771609
0.0518199977842459
0.0490431670355036
0.0499048474994195
0.0479445260550132
0.0521084504300293
0.050191464067035
0.0511318868802247
0.04987748515338
0.050812685905327
0.0484770385479568
0.0510827311416018
0.0511796974223527
0.0522066514424996
0.0495696385530588
0.0514549036560347
0.0501956027712462
0.0505925731111097
0.0482234945367501
0.0504964449036875
0.0492589017255565
0.0493383036158417
0.0508699803648262
0.0506778563786242
0.0481260279238109
0.0506466229655628
0.0492835432012487
0.049456660924346
0.0505695219913948
0.0518831456567415
0.0477949517095809
0.0486572960505605
0.0500040915383691
0.050663025521012
0.0465386523531906
0.0489390364617492
0.0485664250865158
0.0484985540442002
0.0495289352558747
0.0477466900684254
0.0487036521854713
0.0500103213162396
0.0463523793370879
0.0479999936656716
0.0460786644547771
0.0483532261145183
0.0468687717049802
0.0484481698897796
0.0466348147296587
0.0487986493620359
0.0477630105887298
0.0483984590027063
0.04826355636025
0.0500263460764102
0.0455052171932441
0.0460102027414599
0.0471321369118808
0.0478968121742849
0.0476639179339533
0.0504471578999333
0.0452563955198734
0.0489533569658589
0.0485181343863156
0.0484806859755908
0.0465000006607464
0.0471035335963284
0.0444919115949125
0.0469039244415558
0.0474189001758963
0.047918494105689
0.0456060249871723
0.0479516806374615
0.0465448681410228
0.0481786959175386
0.0477870287211272
0.0485876103472837
0.0446557341441065
0.0508377741419751
0.0481030160397013
0.0479089859500824
0.0456886236354291
0.0472905018263356
0.0453115526181806
0.0467321926614774
0.0464866376411697
0.0483644679891547
0.0439092510573193
0.046094147479582
0.0455251777787023
0.0472761431122281
0.0452086868333471
0.0460495934269841
0.0445701595446535
0.0456998628227756
0.0431059719690783
0.0463729868478379
0.0456357440905536
0.0457538448787557
0.0459569598460391
0.0473169651497473
0.0452841689887222
0.0445207321222431
0.04610249117918
0.0475954871956159
0.0466759751608989
0.0462932222407273
0.0445404745469214
0.047764736995976
0.0457559450663401
0.0474199645799077
0.0431772786098791
0.0453271519014042
0.044666225316466
0.0464726015037695
0.0450907649122107
0.0464593517340098
0.046846803848705
0.0470972115386196
0.045645794787002
0.0468411214758859
0.0430849134216364
0.0439933735057443
0.0436686093737086
0.0458863453512429
0.0446286608317056
0.0448810964218786
0.043480191467335
0.0471916301949039
0.0432689980537562
0.0455541839413131
0.0455304120288724
0.0438123522211935
0.0429146243096091
0.0439695248739576
0.0431317836509775
0.0462891153142836
0.0436964253314962
0.0450030302914187
0.0419487894580961
0.0443295508117226
0.0421866235880319
0.0429677095846221
0.0418456763837469
0.0425596392386343
0.0437608985846075
0.0448813268645498
0.0416112268068225
0.041653096717197
0.0394665379647993
0.0425080396182645
0.0395765906130999
0.0418040864322109
0.0421975849904378
0.0421226086080888
0.0411449063091678
0.0418400509520969
0.0468365290350041
0.0410934481156896
0.0419712561755671
0.0396255232513081
0.0390223060093487
0.0415933474132988
0.0397289380943877
0.0395811636792881
0.0367822632926402
0.0387891066317087
0.0393461308945599
0.0386218659368192
0.0387564526396642
0.0386418982255565
0.0368736223082492
0.0383667388783385
0.0380439810993716
0.0366341842979383
0.0347479157197352
0.0403264371306905
0.0369386313301268
0.0350524150038437
0.0401077153847254
0.0378985909956766
0.0384303977662933
0.0344288096874743
0.0452271625322191
0.0470419514346365
0.0378884931574815
0.0406003520489257
0.0406036601449063
0.042963827889196
0.0360742890034918
0.04224631020027
0.0350246517930618
0.0381054954645277
0.0367903024607317
0.0389424341115678
0.0330010125822043
0.0368114672329804
0.0379202480862963
0.0403455494576559
0.0364709979076142
0.0387928174001697
0.0363431184172637
0.0394813872112262
0.0353099912952085
0.0378790500901582
0.0348358929834376
0.0371335563900904
0.0338052247409623
0.035515496295521
0.0326490058184387
0.0476635360165927
0.0402411206149814
0.0410294550314107
0.0347391002043816
0.0391674894230305
0.0328852963605756
0.0392966238163555
0.0357291123679866
0.0357772817521917
0.0351553971075633
0.0390479432939998
0.0326942415098102
0.0367365335246286
0.0357223395583822
0.0393496991885585
0.0345951311430304
0.0372082173350265
0.0334719394837142
0.0379000550614624
0.0324589845899418
0.0364639375470654
0.0325290153688585
0.0393446637861711
0.0324322693635103
0.0435461433294192
0.0303898271102676
0.0435306553142082
0.0545695349382106
0.0381446340699147
0.0381431268861129
0.0342872261657526
0.0370081154649137
0.0347916550772601
0.0364577740813219
0.0337739675602245
0.0368438073750257
0.0349431594600055
0.0352224568449645
0.0332169853847435
0.0360306459743198
0.0354662653925614
0.0346733970644824
0.0344692793270677
0.0346600381678909
0.0336054074480205
0.0372061772582788
0.0333826523373892
0.0420206263659964
0.0522148166509887
0.0388416187043331
0.0402048007187612
0.0360899602996751
0.0278430302082104
0.0654990483080166
0.0376588585274493
0.0383169069772465
0.0352387212787181
0.0353866013629928
0.0321920681784412
0.0362490919424903
0.0315963713468245
0.0373616697966869
0.0401164562518907
0.0375489459679256
0.0419430926303597
0.034519589354647
0.0348279870922124
0.0331100559253936
0.0358460145249229
0.0323315605855618
0.0355461023166728
0.034096510196876
0.0323810306698913
0.0340231812611439
0.0321369229015119
0.0350915712052451
0.0289959208822481
0.0392472077341265
0.0383292607422809
0.0351131922931296
0.0327161782095909
0.0364820672368022
0.0301164131103945
0.0393079385197722
0.0545308186971393
0.0305756284689093
0.0398677363596792
0.0305459199291187
0.0391080299981844
0.0313133552760013
0.0353505902424898
0.033077749456134
0.036611772937592
0.0313311396469727
0.0382741239353266
0.0321649652123847
0.0365260129622305
0.0308175496173274
0.0353908254233242
0.0305373098633608
0.0332916492716356
0.0351678606893306
0.0322022769750809
0.0354613227752108
0.0316967262112459
0.0533811998458628
0.0557697347118658
0.0482969823295858
0.0476425942967829
0.0397946884676192
0.0336756587297554
0.0344276832936404
0.0358457426248262
0.0315551820027426
0.0376401534890721
0.0323563004121913
0.0380453863811424
0.0357737905168554
0.0378292132502477
0.0306110882344195
0.0378355236647117
0.0296781505888274
0.0364851222036005
0.0279097425420853
0.0383750534510887
0.0296375352150911
0.0404170326200934
0.023203284921044
0.0485559480598311
0.031142297701881
0.0456968612699512
0.0157879513657052
0.0830124526656085
0.0516190657159454
0.0423919680979466
0.0405835307926822
0.0317271585723427
0.0351768853593302
0.032418886293941
0.0347232911781028
0.0407225736684189
0.0331420178076361
0.034980605729753
0.0333455386607823
0.0374271673222001
0.0357501557515327
0.0286813726305319
0.0434040115084985
0.0716432922255127
0.0380717365577732
0.0474958602991635
0.0248772634302458
0.0478874075226234
0.066438886448365
0.0348279596258661
0.0437483352585843
0.0357505133812458
0.0347542285481456
0.0328962585415771
0.0359258895261947
0.0330220262993057
0.0421513797612469
0.0371605395220969
0.0330814833520569
0.0369513524991176
0.0286049104029597
0.0413043042350606
0.0316739427846802
0.0498773876981193
0.0484576403157076
0.0330852253096186
0.0437772332900381
0.0390205072781075
0.0367130345732331
0.0348752802040123
0.0357127750827389
0.0332632114728501
0.0465995852252891
0.0510236279343897
0.0367338694795928
0.0557454318517331
0.0478515304304056
0.0338400821347356
0.0434288482790808
0.0415046021320577
0.0532496878881454
0.0239895320275228
0.0573033732753163
0.0693508564887187
0.0505751074127424
0.0670308816626451
0.0302861087380665
0.0481182504728484
0.0283549726865769
0.0443114508384473
0.0243547613619339
0.0717072821749291
0.025145460371172
0.0548557975080399
0.0230773902236272
0.06216847362951
0.0472380369562272
0.0488834666649158
0.0381485755487345
0.0403756523366763
0.0312182049622276
0.0668588491136752
0.0400138145252159
0.0395315841889524
0.076201444356018
0.0636811875464209
0.075329025738902
0.0461942933615874
0.0350765726407316
0.0903742975676514
0.0396884780229758
0.0558706821037195
0.0324115237975674
0.0487419651081888
0.0300489003883658
0.0473836985580492
0.0834994753144241
0.0469673992840986
0.0428602241374389
0.0510096121131571
0.032799045551392
0.0816965537036796
0.0501428265322996
0.051736520869026
0.0384742933851829
0.0567079101611922
0.0226282903100319
0.120336155954524
0.0468657502848497
0.0740860216677658
0.0717958145967853
0.0683332159189537
0.066589829860824
0.0593790954139351
0.0511394148543406
0.0669735561714444
0.0725176162210296
0.0575971764268996
0.0375223347461536
0.0777697114198342
0.0815821288530918
0.0487325705814275
0.0664656379243112
0.0462693733684414
0.0493084339695987
0.0970325872748155
0.123910513109143
0.0924611059383909
0.0634637651665439
0.0626365597801656
0.0968742919234638
0.0598776458353654
0.0639314853211631
0.06138926478692
0.0599393616091248
0.0594891204382675
0.0565803167695403
0.0804973473263602
0.0578644999820039
0.0731059119437932
0.0570503041195691
0.0675580283585683
0.0895008426160671
0.131625748414546
0.114502373102671
0.0704817389614856
0.125512398980386
0.0921697188781758
0.0906690336910122
0.0711926679513924
0.0741628542715941
0.0848684607348834
0.0771724621096483
0.0773102895682719
0.0685559543647281
0.112918027016854
0.0819126597723745
0.100764500181471
0.107866685834229
0.078791012756093
0.0885298056275341
0.0625545769099226
0.355778323937535
0.0886800220729946
0.124517960555358
0.0767040515923015
0.124092024071133
0.169661510680919
0.105514386473688
0.0900069522627339
0.0928126835867919
0.081563171723093
0.0998811964977021
0.0974407438467146
0.109355532627654
0.114237531930363
0.106080019469001
0.0851455839373554
0.133434834920435
0.186068513576345
0.182107685163532
0.132700989032016
0.112613954519584
0.134017310969624
0.138393472970663
0.106158114610711
0.129259824563896
0.105084036110206
0.129393746989353
0.187487633351093
0.129187132588594
0.136181906779603
0.121465506247885
0.179884432034356
0.105920197696877
0.232159232609258
0.153190213667918
0.163500452539142
0.130856957061055
0.151013667089977
0.143931738782181
0.136821114774965
0.191743191415774
0.16660314622425
0.159566926876075
0.15621924703766
0.159316677553344
0.159430441770051
0.159590552593832
0.167802285996278
0.15215288879001
0.217978385013646
0.157721219062901
0.408050862407759
0.195340802704555
0.18297398792962
0.167141833440186
0.173456711698092
0.220938914865157
0.186782827985492
0.245699673378574
0.200183448222446
0.171397361710749
0.176547927803927
0.170682139942814
0.183190432933676
0.160644875829335
0.190199577671254
0.149971391205774
0.220973783957924
0.149015221409979
0.244417398739826
0.234110671592822
0.184159900333758
0.171214607931437
0.172029729697828
0.164731739851544
0.175124720018318
0.161760811116242
0.172830188314251
0.190597412496362
0.156391937795623
0.175004944551868
0.144261432290211
0.198443442859628
0.185608964634792
0.158125828497723
0.163641887221365
0.147362533126128
0.168267008718013
0.130753463600349
0.175312925828045
0.219000978058059
0.152266607859094
0.155411458668704
0.137701446567832
0.147655952692413
0.145275732010712
0.137042037632147
0.141423186131786
0.143715323961319
0.137201403103117
0.146644848953557
0.133768881146881
0.140153931816007
0.127612971682557
0.142279179795079
0.132622196500375
0.14037095307642
0.133435408507501
0.130468447302308
0.129818912294428
0.129318286242103
0.133621847139065
0.128333936573538
0.136135536816556
0.133550563622684
0.123450140252494
0.129063128936583
0.126345632209172
0.126102085022595
0.120997189489327
0.123241887616115
0.119581076059485
0.119369596249236
0.1212224944755
0.120793076814394
0.117151308014444
0.116877207537892
0.11664387468627
0.115899328134073
0.117441943970082
0.114148498099997
0.123155815973598
0.0993249917024184
0.197302568289172
0.137602168147797
0.120536093168567
0.11073015647976
0.107142472779719
0.113755548944229
0.0908704646666933
0.166287733849207
0.134497346889339
0.110562097382009
0.105862282348538
0.10083913091775
0.1215122076058
0.112200934555955
0.0960323339449144
0.11462713621033
0.078729763638442
0.184592042292501
0.152915916589012
0.198354986135044
0.200635023961014
0.133119167355564
0.0973984072639412
0.122039632994974
0.150747849285807
0.0903069262837949
0.108467535958412
0.082722980932413
0.159764077534704
0.106167502343458
0.0974477186187466
0.0939549611796926
0.0851235558539039
0.118811629312308
0.1343028344333
0.102786188432689
0.128822999102115
0.136101999755469
0.107374609125773
0.162728430682321
0.182043580489227
0.135941572725146
0.0919931309168037
0.105015116550497
0.0929276346924487
0.0987778766229764
0.166725683275935
0.100757446167497
0.12040930563386
0.0869082348228363
0.0895642943872139
0.0981195654347737
0.119954507454191
0.105250159805926
0.0964796775577624
0.146887050213157
0.0835396163449551
0.123986685133284
0.107312797524352
0.158846122669313
0.150725296858813
0.11567187777721
0.0825000104253459
0.144283052356103
0.146444845378878
0.107347570946869
0.12317330526621
0.0880488377866381
0.0997928727659518
0.127567008535338
0.0892959227463124
0.123568478146432
0.117533368206568
0.134481124548195
0.172110633827209
0.17100029632438
0.174366374358946
0.113797421120621
0.0951452333313978
0.103944393712347
0.101437794993811
0.115023197102409
0.0844298346885185
0.14614439306254
0.108159101701851
0.105189845337655
0.170156897146869
0.114916504636474
0.110600617535392
0.111781086311996
0.103882903208264
0.122667947172046
0.149190365165202
0.173102207404391
0.134002228494565
0.137540423719906
0.153578166528256
0.128941080647848
0.133491708854359
0.127096987080155
0.134393521919519
0.129838451583641
0.157210516574278
0.142937910597183
0.145983968619434
0.150282756911882
0.146011162196912
0.187204216537594
0.198598782723503
0.153986460768221
0.223911001156075
0.189138994812074
0.255730095426727
0.199067108408578
0.190076606719482
0.191374771064314
0.193615832969805
0.202876561960717
0.197731619308115
0.219941338401794
0.260167371953783
0.209667260400838
0.227704411657592
0.213468513293821
0.233088503625647
0.219763660313095
0.278835471025221
0.241121025299849
0.337367223308546
0.289844898480773
0.267348093609708
0.255499148509993
0.236846549853517
0.260488930812226
0.251447878979058
0.248181917758886
0.242411743707585
0.244329985483854
0.284166641777111
0.246737949161177
0.253056759979113
0.247580772024326
0.250626060635248
0.253488680576271
0.254127197709587
0.25256140659755
0.252975251358917
0.258813040845147
0.260551281901489
0.255912411901848
0.359672130161034
0.279021286871494
0.277656976126444
0.268496290712776
0.287210225422978
0.275697922327543
0.275269574270625
0.295520320254927
0.296681131986683
0.28406807005217
0.29009880033166
0.280140965786541
0.288229577020374
0.297085852815542
0.327396368376895
0.276451365207289
0.307901460383227
0.272444742785436
0.347180212076385
0.342315837766376
0.316184729679515
0.321680310864972
0.305539223395575
0.302803565444919
0.298034016869438
0.298236975224344
0.300885683382603
0.303377560749657
0.300792014284602
0.300075241027365
0.290097496446081
0.296864959484377
0.294161149366749
0.287600742537591
0.32071255538712
0.293151039194141
0.291875110740116
0.286630927800511
0.289128431358145
0.279984559540982
0.318547333262293
0.299870915299758
0.290998419318019
0.288440513256068
0.293452989115881
0.308942869706079
0.30231253616067
0.276439144650584
0.278578071339955
0.27313918709061
0.279633521084579
0.272037940092401
0.291727235282099
0.311189610745299
0.295487924496867
0.290014075941558
0.288633738099994
0.287907298244696
0.290003701003247
0.294733075237371
0.296833483935862
0.302517577027605
0.306493921054677
0.313148892760474
0.304166249506866
0.306657704163945
0.325685453863292
0.331492987669358
0.329856953293454
0.315460329978805
0.318687583114006
0.31114810880707
0.318327439144945
0.328678342988684
0.318525229166516
0.315015581683939
0.315848323467324
0.313178290085735
0.31631696891435
0.351746882729258
0.317848163216875
0.326364095433369
0.31686714954232
0.310052647935097
0.308713294371708
0.306875746415017
0.30909519280835
0.303976544142705
0.307408472814783
0.30149565309879
0.300201234729892
0.299274249439983
0.297559036591923
0.296700119284259
0.297728923119187
0.296785026402982
0.29595814887437
0.292497523492339
0.292065157980973
0.294537741244729
0.289413083821076
0.289869745910207
0.289859040268743
0.309855742225068
0.310117974553917
0.310326385994218
0.295876462478064
0.29993375464934
0.296906832720029
0.286238807391705
0.291808256949877
0.287744607344529
0.289972149810224
0.282441434620339
0.287132870679157
0.283246097980773
0.284851136239949
0.281129308162781
0.286121890374493
0.275150576991189
0.276151549646963
0.274882015815807
0.27858838341838
0.26995189208306
0.273818022965642
0.271491777655617
0.282996977508404
0.27081227481265
0.272811799247222
0.268541581854352
0.263701496582131
0.270131060653293
0.26449560946812
0.269696347209291
0.263750458303936
0.262746910910751
0.259879651029636
0.256876749421968
0.261238724704461
0.258569942511422
0.258416059538485
0.2578181645664
0.257174681860623
0.256945341420248
0.251091111585744
0.252681348509259
0.255012732605281
0.248889881727278
0.247137704464877
0.245399951644741
0.245118746169551
0.239104133319802
0.235937436104111
0.236043743992367
0.234903259848454
0.229834248499818
0.231794233612372
0.227131436283521
0.227417418547982
0.228244108784079
0.229052719375191
0.224222891575573
0.222474936003499
0.219322246636015
0.219808968268296
0.218930733316139
0.219712576037346
0.21844345530229
0.218867602219119
0.218019503153103
0.221236775097067
0.218711214418491
0.221379473132297
0.220786474170296
0.221207068256914
0.221812490111652
0.222759571250371
0.224433108529541
0.226504613738633
0.22681878372264
0.22655663878939
0.227575170139636
0.227415771637907
0.228128376673959
0.230292625298991
0.23233073356508
0.233118732598423
0.230533301872217
0.231621239748218
0.233865497530849
0.234916421772161
0.232425156919898
0.234163012983415
0.2344970265502
0.236070754192853
0.234951013859312
0.234665011543505
0.232991814708287
0.235118873898143
0.235074605923165
0.234396042419921
0.233772698968811
0.236818065372152
0.231542032033396
0.231987702103437
0.232500030613785
0.235519053508469
0.234307344485995
0.233904658171952
0.231590611759894
0.230252482282358
0.226886486798362
0.229788797708382
0.229678204053233
0.228614419594168
0.227141451784279
0.228795306691881
0.226423686726669
0.224669478653212
0.225519139096836
0.22548614392241
0.220402352912082
0.222830841090945
0.221799207849228
0.220027227301578
0.217192337306442
0.217176574806931
0.216059032651824
0.212240180054742
0.210192475330538
0.210655610038351
0.207135731908591
0.206437647820019
0.204452125965601
0.203218810293277
0.204539544156778
0.202436012147335
0.200893222438979
0.200752063144533
0.197266653397408
0.200199681100217
0.200164827295995
0.198560361826806
0.200531642399206
0.200500148176743
0.197875443725468
0.200442489755157
0.198258177263147
0.200473933667554
0.200034037014416
0.199529834895837
0.200327294383694
0.201885982629853
0.201386378037899
0.200294354205763
0.19548899322455
0.195954908311582
0.192805925259896
0.19169782173393
0.191060181037011
0.187883988849986
0.184536530281332
0.182889193043534
0.178171055620902
0.177261697210465
0.174073479367318
0.17208978258364
0.170295099889402
0.170421159917597
0.167306681874627
0.165605163678298
0.166957455218981
0.171062783828757
0.170279052216426
0.173514834491378
0.178663131473331
0.180258947866407
0.183939212210906
0.19150816168156
0.195647219042248
0.202856825543498
0.211105907708278
0.219901101546513
0.228532916481496
0.238937793988981
0.251697606666439
0.260744584975753
0.270198974950656
0.284069832799755
0.301637780222862
0.315506861391857
0.330144593283837
0.347566392705486
0.363023658023617
0.381806075594194
0.400213862101971
0.418812455874458
0.43450130364699
0.451187300860477
0.468833000902814
0.485552400294288
0.496524008250718
0.510359754556928
0.520809456752225
0.535042958063803
0.544985484364867
0.551221350854725
0.549574765216965
0.553911284625995
0.558594510540757
0.556632490475785
0.553137276450896
0.550270224030533
0.547770695423234
0.54177093030762
0.538336189729725
0.52818787832546
0.525361797610333
0.517907971658343
0.506518580974382
0.501642990101928
0.495099105408271
0.490211608273239
0.491904292414757
0.491112958960489
0.484621187509996
0.486953758127587
0.487837921673271
0.488725865514523
0.492236958143385
0.493789937079728
0.49716471011151
0.500795211134679
0.510120330365555
0.516641568435363
0.519748969415138
0.518769023735901
0.527083745998666
0.535467716335476
0.541744153542356
0.546857717844021
0.545641528010042
0.554269356729923
0.558258538112306
0.562222351861244
0.56674098233829
0.571563158186907
0.574992589181444
0.5783158798403
0.584072340287269
0.582846154685446
0.588144974709546
0.587273254174174
0.586811280727369
0.595725997833018
0.601428893866994
0.601682279577234
0.603158737619826
0.612362552415846
0.617796979309971
0.617248490974626
0.623498428542709
0.627147213108232
0.626423419003061
0.626105141209737
0.628508161646849
0.629878022248161
0.634605241403244
0.649627473392609
0.648023487437007
0.655559880318817
0.674379357891006
0.685555748972084
0.697155991792822
0.714026480775168
0.728076014698527
0.751085422229095
0.767884812390412
0.786578691586406
0.821083020401355
0.8418102700692
0.858999712860015
0.880578646840266
0.897215531178512
0.927258401964189
0.923707257183926
0.93541431197992
0.940519549056149
0.949114228777995
0.954319829989914
0.938888987332439
0.934985687255358
0.924497544937934
0.905772972694753
0.896063919417213
0.894877530279673
0.888530314537234
0.88747495137427
0.883965783899649
0.863846792296968
0.859636908448497
0.866687141909215
0.869448503284641
0.885264036723772
0.89144304158294
0.906656864983415
0.916560025727854
0.919859801776345
0.937850967857554
0.939609837985836
0.96041637939768
0.983309638505559
0.987518017203884
1.00003036346536
1.0193304869691
1.03849483259711
1.04078756014368
1.05642440677445
1.06247952603047
1.06870281711373
1.09366761945524
1.12761926959268
1.1306369572211
1.15238364302342
1.15083187785952
1.19169616290641
1.22050962216679
1.21390328156598
1.21070968496016
1.22909124500653
1.27545407249625
1.27497516406889
1.28168896211649
1.30149541867794
1.33151319288142
1.3693974238106
1.35021933384914
1.38005614321355
1.35989858940502
1.37493535955074
1.39903871746429
1.4322876570451
1.41429635297564
1.38901629734253
1.45911047916863
1.44081143644888
1.41325305411934
1.44411403250003
1.39104548027261
1.40996032467025
1.42267960394598
1.39621049088463
1.36863001912723
1.34828887231455
1.29981735997659
1.3039529275555
1.27872938228941
1.27835258451948
1.25241946444156
1.20275686002316
1.15760312999988
1.1287902772696
1.1363871812789
1.11443692883653
1.06226786341555
1.05674846112606
1.0586304380407
1.0394631270178
1.01513515560256
1.02333912055381
1.01619896137919
0.986011989997887
0.978195275197477
0.957036032373155
0.934676536041232
0.923992746362004
0.898962671217015
0.864374426851015
0.849391402871259
0.829123756681174
0.79864358159678
0.771328535444536
0.753204065357617
0.727337401195486
0.687370417315066
0.663089096578849
0.630107650627464
0.596803508636054
0.570428747931737
0.540942121065555
0.511112370543359
0.484437974034165
0.45422616920555
0.430922364776655
0.409596932429528
0.385867599602072
0.366878099182834
0.347458090209231
0.326639764871353
0.313935087327516
0.299391463032559
0.287822094736317
0.274983564984817
0.260220546205524
0.25219061965381
0.246668862975365
0.233541445383814
0.230735076621432
0.229816924403138
0.220365575175216
0.214558226051229
0.208585225121636
0.207965955292905
0.201845856341655
0.203572262047626
0.201358464617476
0.199262352009071
0.200288851744989
0.199281624394873
0.199626486562617
0.198441861318592
0.198194225737387
0.202255290411018
0.202727328920883
0.203014333332761
0.212711819986341
0.215989748657644
0.218198215828513
0.224383775701517
0.228213506676372
0.230830927054099
0.235727571651139
0.240108395367023
0.240562144280877
0.24521580179495
0.253896078822295
0.250462604784287
0.25228409153281
0.249356934923409
0.25187069957917
0.253646446579122
0.252485311292863
0.252282094071433
0.256403185188038
0.258669917517035
0.257549945963344
0.259502604379168
0.258524703800227
0.257168292460031
0.257103061954982
0.258263365361753
0.254743677532126
0.254062855071294
0.255788487978035
0.252509548876134
0.248219633404255
0.249176947262819
0.25039164441748
0.244062357927694
0.238419955080739
0.242868119394089
0.23991818786588
0.233049908271562
0.22929906682526
0.232347570385733
0.231329189116482
0.227146667563725
0.227936827379493
0.226420749845856
0.223412188465521
0.227964329609259
0.228626348202306
0.227036084194728
0.228477657797762
0.231964809630318
0.230327371370228
0.232466102395594
0.239736777690049
0.238282575857983
0.242645669710989
0.244672288416567
0.246084698121576
0.239542520041697
0.243728357370532
0.239036911064337
0.236522897689301
0.232886465855127
0.230195239978577
0.22793750242932
0.222529595642944
0.21602078275532
0.212733600891348
0.210536641225622
0.203855501037284
0.200828690508215
0.20148713999423
0.200743474241423
0.200665243472774
0.205576188066651
0.204614763720607
0.199035738589816
0.207742561723007
0.20729378091052
0.207498664737297
0.208945454608421
0.207046201895425
0.211078400159867
0.209751306950817
0.212311420815825
0.214373551470188
0.207125891060833
0.215745203857953
0.219198383045314
0.222723960361028
0.222510012193578
0.223570923138458
0.232713996729483
0.227444585249051
0.21883201415548
0.226517678977759
0.225093902686252
0.220866191607627
0.234040702950063
0.231508017594071
0.222049789705265
0.225749316556025
0.222457509264973
0.225901624095703
0.221186555178552
0.222163895220982
0.217904066631025
0.221555542892787
0.224585002087757
0.22309777803586
0.210587333399571
0.210685108733479
0.216106371478342
0.21593950046572
0.214057803387559
0.21177284312352
0.207545603489763
0.211175645988917
0.203034137011498
0.205209597004248
0.201425157730987
0.189830684285247
0.196542782692248
0.199649665915394
0.185436740503724
0.190051804082726
0.187265335615098
0.178942743463989
0.176106421975916
0.184229183497244
0.180727392445117
0.177048408115773
0.179093024964184
0.182001899193848
0.176195679948931
0.17940909176861
0.182142102113019
0.187765795683318
0.185629360502007
0.185704954466379
0.180304422360711
0.183289093837514
0.187614725997847
0.191968345208923
0.185148105523576
0.188240295703892
0.182969394460555
0.191125938749002
0.201759584725725
0.193169131794214
0.192469683988849
0.200047410401753
0.18950836444068
0.209650179518973
0.218341503519773
0.21020759162101
0.20728136715298
0.217669983583726
0.210443996685549
0.215441259719107
0.231245730947093
0.230350388833296
0.226799722435606
0.252353846615689
0.251080567921958
0.245248841515223
0.249439047009809
0.258058626566665
0.259434581089677
0.264544305957874
0.272861164428069
0.274434230218359
0.270218973377381
0.278515660409766
0.298741337990382
0.297411396861987
0.284275875562875
0.289953285502761
0.298891704613843
0.302511659822705
0.299881667984463
0.285489055454774
0.308645068211061
0.301436573382995
0.285218832976522
0.300961224682636
0.303993656826359
0.297716355864368
0.316407921449514
0.333330074880049
0.313467539326183
0.324288741306284
0.337425735903826
0.321481616043415
0.307864987440194
0.318027314119199
0.323939076262889
0.319496774422695
0.31625908545774
0.332100319339319
0.337011358915621
0.329988948724697
0.334021925950093
0.335014011127189
0.313281760031112
0.327372439398971
0.308520661104627
0.29029244487113
0.311643762340361
0.28948023429249
0.296344532026506
0.295182408659979
0.281292772469183
0.280154182740382
0.290663781416041
0.288455112815006
0.284304886160203
0.27676597939701
0.302287537783051
0.3058111303545
0.288779745007664
0.269360432154477
0.309899373445624
0.309362767939099
0.294496128258744
0.297653934348233
0.28906241230912
0.287525263755595
0.279541156414738
0.284400968323007
0.292940716798341
0.312598564847485
0.300877649363737
0.32338782173659
0.293860054555216
0.274519681982808
0.291176393462728
0.316232861332367
0.298799007463564
0.271451610528407
0.309388275979908
0.304940922981752
0.341464699767996
0.363203184972414
0.344258606909432
0.341584507605582
0.323374999103997
0.332588117761859
0.305675170610136
0.317960652203711
0.38157618380184
0.36780957079153
0.392224575260851
0.350349620555134
0.326563008937755
0.364044706729004
0.41966080591941
0.403821724329507
0.398164818618183
0.368875547642996
0.350951972934112
0.393571639357906
0.457170535689413
0.395700617717312
0.423114715101593
0.39636253394687
0.386479389596392
0.41728885045573
0.398385152321788
0.4078432005222
0.383848538309552
0.356729673221864
0.37776318333925
0.384080536674593
0.353706126681236
0.321390016155465
0.44228436050399
0.347140713439645
0.464909136574031
0.368000188169775
0.331810435048492
0.333608087192984
0.417494938537376
0.366587144341655
0.348207324121322
0.337167958323845
0.315187484029887
0.402066634762119
0.361213248257794
0.40783600055659
0.349387127535947
0.380144169021222
0.45075847651914
0.368576419854337
0.413687924798829
0.342977642917635
0.401557664908116
0.235041755299749
0.338343044451512
0.377394969118044
0.452033209801578
0.0353017837840224
0.457451694254156
0.540874945271098
0.350685813893678
0.398537358607656
0.426948532146846
0.357600025549262
0.711289685612811
0.563800157930278
0.526577394665725
0.421683553938582
0.542425379920092
0.492401972868739
0.433774955021626
0.340766879888862
0.344051561088307
0.559801906898552
0.422210645584415
0.182236337524489
0.438184015983005
