3596
4000.36533379555
650.420452594757
1
2
2
0.0466092393978218
0.0392058668174107
0.0508464248162137
0.0282568441320157
0.0515030918349782
0.0407320229032553
0.045692621783392
0.0352851416269995
0.0437922208541638
0.0346838316401805
0.0457925085278663
0.0384781111730026
0.0461255795422712
0.0269246691117865
0.0464798406104587
0.0384069693040381
0.0487200745185624
0.0379086764091387
0.0388929400044663
0.0407350670255622
0.0501703601390562
0.0400531567604158
0.0503584203552917
0.0420759982408014
0.0477395206351165
0.0420970200871626
0.0498997213444642
0.0303539142041858
0.0488680248721794
0.0420201785678842
0.0463523480322095
0.0352291491034161
0.0481974690859728
0.0350833979357245
0.0465826231685843
0.0318487697907881
0.0536793696638685
0.0366135670990981
0.04444277917945
0.0369050748592578
0.0506996679441942
0.0393883948854082
0.0578061287091517
0.0471999480162772
0.0521739659788607
0.0343669639281484
0.0541720352410694
0.0364115832299211
0.0423468700911447
0.0389215155854647
0.0510797527030315
0.0411667988829372
0.0473902269729694
0.0474633271433412
0.0566183805708423
0.0519890262274981
0.0560420748270427
0.0388203809516362
0.0499059330794272
0.0368629812992194
0.0573272768333141
0.0565387588390595
0.0437996952603027
0.0339454506477862
0.0456562053038194
0.039095095096928
0.0471791924625543
0.0387987332261539
0.0459803870107349
0.0386582705692422
0.0516125276930966
0.0340268999202114
0.0639614391508497
0.0404780364683665
0.0566441523831477
0.0429489642425708
0.0502964133969256
0.0383323325028964
0.0383603379224334
0.0365592191522225
0.0662973746296144
0.0349142874094967
0.0482844634287841
0.028555261671738
0.0433437567259983
0.0463689481505882
0.0462692914704031
0.0291055032054473
0.0713959811851981
0.0471519985845697
0.0503631803101428
0.0275052246818014
0.0492770239480127
0.0308083734124552
0.0506331511431476
0.0259914926287973
0.0456144531219086
0.032960045151024
0.0480723797926658
0.0302798047884964
0.0615003954836825
0.0376646862059625
0.0879166411616928
0.03913416200256
0.0867247416837875
0.0739414115255486
0.0296066117310931
0.0791491316111583
0.0661072908334602
0.0437701998553264
0.0491364122976751
0.038992079885594
0.0484508993925758
0.0394683116569823
0.0430872296223884
0.0468017081882498
0.0910313048881566
0.0423915715032494
0.0489607904722759
0.0259831179537676
0.0358058352175444
0.0337337969289338
0.112803172863455
0.0352079258735648
0.0634944646889803
0.0399173717116542
0.0460629854420517
0.0474966708637894
0.101916902917335
0.0447166654250657
0.049033204397175
0.0288283226575498
0.0492679115224865
0.0215124690620092
0.0828990611282853
0.0542337853790857
0.0497732299862826
0.0272140537293948
0.0566664332279926
0.102861833392375
0.0711007450721959
0.0412607114779414
0.0401082496602621
0.0308978035664939
0.0965677403438095
0.0516189015938319
0.0431108902174918
0.0469927262946186
0.0714977033444019
0.030724903258539
0.0410958036115863
0.0270957222345659
0.0649796433362058
0.0399650843967083
0.0207804253958696
0.0236976256508065
0.15550414153683
0.039218379227007
0.120713013852694
0.0528674186037631
0.0526229913313744
0.038968033380396
0.0409444071715216
0.0364008279304256
0.0456524910024789
0.0345309373479852
0.045874486311395
0.0722230557658024
0.0483483233153014
0.043761657869968
0.0745511510381524
0.0471084201860449
0.0362814141943883
0.0851747522421448
0.0799802517237227
0.0120046104051025
0.0844758986414043
0.0587604543995622
0.0428463073782075
0.0339388475107376
0.0840787304212169
0.0413748031271832
0.0496522757392297
0.0304893009232447
0.0554553489752863
0.053839009786316
0.0569097946366074
0.034228251394724
0.0564056694324601
0.0139234094909365
0.0454385794729539
0.0781192110584231
0.0925965298462087
0.0389075882522632
0.0535690184569939
0.0109518517478794
0.0612270958494908
0.0886671194760459
0.0544422448665291
0.0369748196788225
0.0412581708910163
0.0368055899449826
0.0474547580832263
0.0341738711279118
0.0414310734331546
0.0159823911847513
0.0807020707802989
0.0681444768363883
0.0446922100320167
0.0298609291676687
0.0369200690141289
0.0289428005466975
0.0755178939940548
0.0847119235192635
0.0433308045487406
0.0473934631386346
0.0418266255874667
0.0522860601654917
0.0735110845581346
0.0396660591984715
0.0385026288140723
0.0360893833576438
0.0378833356434754
0.0325475891663422
0.0410223750971294
0.0350355688511468
0.0449954696771935
0.036721201438975
0.0428556480040826
0.0375461494002504
0.0523655837138747
0.0457751413745282
0.0403647762016601
0.0353128669062745
0.0396335514444631
0.0297961591735209
0.0734895929444424
0.0360007719739411
0.0455911301669528
0.0344703207272101
0.0380971659158932
0.0305385774507021
0.0465972848803411
0.0368139555956132
0.0388446250350735
0.0262589862525286
0.0764346338728955
0.056242292668922
0.0376867077660967
0.0324396564573328
0.0413896911450065
0.0627165848649152
0.0357812277929472
0.0412570544340226
0.0364593761707019
0.0353060157445753
0.0309062911600798
0.0661008179647047
0.0561646907870572
0.0456842015362025
0.0536003131792724
0.0555465868647956
0.0308372504274558
0.0324591301945901
0.0200335862651298
0.0948850272710788
0.0748492052650029
0.0211355399677095
0.113781154365676
0.0747586731331012
0.0557085986779408
0.0488493652791043
-0.0129560313350886
0.107992451181992
0.115260839663981
0.0457006918467752
0.0519429105177747
0.0520989700435375
0.0479816448342722
0.0379487098264575
0.0550202088049308
0.0222146431219929
0.0798882417052528
0.0856053663032929
0.10767533128231
0.0389157128374852
0.0490390448598573
0.0840552621693569
0.0425602377324585
0.0432844088996488
0.0399858745697539
0.0403489885224615
0.0556071631880232
0.0679688283159226
0.0539499823600228
0.0563965930583047
0.0433898783298542
0.0631774761053465
0.0532700304406697
0.0404884373645487
0.0448252449422431
0.0507123701538639
0.0393654425822888
0.0376704139404391
0.0392416881387775
0.0356970955367202
0.0415187610267233
0.0193674954412701
0.0913862474269392
0.0681354306612257
0.0351556197391942
0.0752504085808999
0.0521964609827371
0.0353584737003945
0.0406809128493365
0.0380792505460629
0.0381885458414124
0.0332190542202103
0.0223738755005514
0.0598176370725555
0.0599164951929697
0.0239504540058903
0.0445452333804906
0.0271246040071418
0.0416064012301182
0.0317070540322897
0.0390694129316651
0.0316521878551108
0.0344655675130874
0.0228343558422187
0.0561422290511671
0.0691042795187942
0.0261944214027804
0.0453281883584186
0.0991252337065108
0.0344190838987556
0.0484440615497398
0.0251979368122086
0.045971191766671
0.0342130663643658
0.0362505723911929
0.0319098374625344
0.0384314727221718
0.0492950456038458
0.0599078571266974
0.0223066941727964
0.0364967209424922
0.0819398375755519
0.106784746305188
0.0513452137388649
0.0418111847617312
0.0233173234958016
0.045679065898082
0.0950070671178157
0.0427968197617917
0.0697094295830249
0.0390075701591681
0.0407490568275156
0.0387066929085378
0.0356467823562248
0.039071542941838
0.0290659150662305
0.0416574344955471
0.0246976099991279
0.0430235119762268
0.0319601499119663
0.0378988033381144
0.0234110244707047
0.0780226066096904
0.0531435142160221
0.0326944890331083
0.0330461968639201
0.0337769194036757
0.0311325933792185
0.0921812136313874
0.0618618026122604
0.0941794165088553
0.0316603686776803
0.0942357251986261
0.0468470521649124
0.0448811511886465
0.0229415435010163
0.0379690180909555
0.0368639236826328
0.0403511012289599
0.0299561587722931
0.0383494073464701
0.0301948166182971
0.0430937723396619
0.0308323289171694
0.0350048322165076
0.0181918972922518
0.0518018213923542
0.0464171624070102
0.0352700530403905
0.0293286085269429
0.0170046676973117
0.0749754301847364
0.089672992812583
0.0574787884565562
0.0323102059250354
0.0408491040820193
0.0268150011803511
0.0380330507944323
0.0302304560520044
0.0373300998675873
0.0322019056102665
0.041411349550364
0.0692707746264082
0.0419128739923116
0.0566523564120879
0.0161063092387873
0.0461750585882913
0.0431569429798648
0.0343398509866574
0.0577245987961427
0.0547641242156454
0.0242998038683251
0.0418076290638394
0.069113406460861
0.0363870338949175
0.0605272922608193
0.0430658951644794
0.030580146970507
0.0325612830016586
0.0247292757975446
0.0364528379478852
0.0280830022577486
0.045018474381519
0.0335676715379473
0.0407711391617164
0.028712969388296
0.037762825650629
0.0398613427140733
0.0426868305699249
0.0316393897089113
0.058200375771955
0.0313434770527802
0.038681985830631
0.0249274954652725
0.0272959108120223
0.0641446764656338
0.0432210586246277
0.0596514694331181
0.0355931787275429
0.0241963842234911
0.0329847413786223
0.0261534158458754
0.0275727757110539
0.0257755235782926
0.0322082652214605
0.0268236486633036
0.0269579500160925
0.0238942734572369
0.0297321076562657
0.013452425832334
0.0401758045163739
0.0244482507910403
0.0238525295912605
0.0240405774790246
0.034499022715674
0.0143702607447857
0.0385555398576905
0.0574594745813376
0.0411272231849342
0.0599935277099093
0.0415041086949015
0.0244266184773726
0.0404068006610257
0.0311406169018622
0.0237571318113971
0.0241281023794386
0.0308683851543579
0.0183316094875007
0.0346196231363935
0.0220482288041083
0.0266579382981703
0.0189256209308846
0.0319518758118144
0.0324864542378136
0.0417986612256298
0.0228421541180784
0.0312469055719888
0.026003086442821
0.0301957211589562
0.0420646398278286
0.0488374383569121
0.0385451580273348
0.0382828225478745
0.0279882048092124
0.032505565926838
0.0233442635081983
0.0317996969079279
0.0154132062145162
0.0223717855026876
0.0264835762191891
0.0338132901517841
0.0318318634263199
0.02920294150708
0.0190486665008106
0.0355500757538865
0.0080001213538011
0.0284670175659144
0.0193534789577267
0.027638306299475
0.0260098182757035
0.0374622029347088
0.0234421490284608
0.0316231091234464
0.02642431673406
0.037214294385699
0.0237978707769298
0.0406628333695457
0.0206457708350322
0.0262928278904409
0.0199087618120994
0.0357068980100553
0.0234890692471429
0.0238327119888558
0.018694444406056
0.0295044170367964
0.0213816639453468
0.031943083643688
0.014395324252334
0.0330344589771131
0.0334866191975489
0.0334992894535236
0.0182562292618119
0.0276392200719621
0.0115093338669444
0.0258967294473999
0.0210943566823307
0.0419196257133984
0.0222881307272078
0.032514135329946
0.0275854960485345
0.0303909856102354
0.0257139170225969
0.0285646455927607
0.0146163919069287
0.0249321330064365
0.0301112696627885
0.0345785339557414
0.0230676592997354
0.0304854315208828
0.0205729417775765
0.0341383870205257
0.0222846149870138
0.0288822073851594
0.020015179600047
0.0321455167959747
0.0176157057461031
0.0286843060414891
0.0196156225714443
0.0272329047020581
0.0277390277484771
0.0255174816430958
0.0254055803952721
0.02643378883671
0.0165889832283776
0.0318007185280088
0.0160323337510586
0.0130252117702791
0.0177866227461194
0.0262170537225537
0.0270494748753847
0.0246955629984699
0.0146888416725467
0.0265166484580118
0.0130297991589734
0.0267243489982067
0.0242689816082033
0.0282513962993304
0.0268916913423472
0.0283669510726297
0.0127949974151826
0.0339121194721342
0.0216649748910439
0.0307822843100055
0.00869239215157369
0.0251298302092454
0.024248205169673
0.0240872511401991
0.0164505618653038
0.0281183197563348
0.016173572381152
0.0262988223525092
0.0190005984890578
0.0259584122765755
0.0174991362723735
0.0295542011326237
0.0149084102704204
0.0226662750956563
0.025358456307767
0.0296030802537043
0.0208910197182438
0.0245298539056627
0.0210553197622891
0.0315334130112318
0.0179137614401181
0.0316944189753228
0.0183026422600851
0.03058072713733
0.0174668240762996
0.0179391449331612
0.019695955764379
0.0237593071476698
0.0132636345878483
0.0215233703572844
0.0177803873554206
0.0193177829482657
0.0100036137068348
0.0256574839025408
0.0267976278044559
0.0285542136033067
0.015783268992338
0.026036250764556
0.022720058370187
0.0194092921642834
0.0112442628384228
0.0315299257917567
0.0185904657741484
0.0353958514657393
0.0318394922177828
0.0185984908379248
0.0138065076771072
0.0209402391394832
0.01370610552459
0.0192332234713877
0.00925640258126971
0.021838967644686
0.0105752819357574
0.0245455356456433
0.0212906943730339
0.0231320608728121
0.0168379085050244
0.0277589666130871
0.0167781352806907
0.0147265971867065
0.014664152703507
0.0236099520231507
0.012379504233263
0.0201859137292082
0.0106823888990295
0.0214530668441594
0.0125802403885772
0.0273396265198935
0.0210937158316304
0.0188427520474254
0.0181585516247836
0.0190169569824899
0.0176201583104423
0.0224141297501205
0.0182555988406518
0.0260938856722683
0.0149709525038979
0.0237136928274012
0.0167198876965427
0.0224257845846481
0.0159267511843871
0.0215489118504126
0.0162981993266118
0.0158280533177724
0.0203001907656551
0.0233664621998976
0.0108400111827463
0.0113997399187329
0.0137065319056947
0.0242171106050894
0.0112632345217505
0.0171651371828818
0.0164388016647887
0.0160729422990154
0.0180545302086176
0.0200956471875435
0.00802834292612144
0.0194292884900428
0.0237057769693785
0.0118282810693462
0.0130772708600713
0.0212849599821352
0.00896988852995818
0.016287565907188
0.0182048666994988
0.0129315588291541
0.00976002357230839
0.0203003686487646
0.0127301640751289
0.0150043170710923
0.0097223370180394
0.0134188238208642
0.0085000869200295
0.0163727153130196
0.00868369187099303
0.0130397641277523
0.00624620279218664
0.0188107078690962
0.00616659323404513
0.0129986216219043
0.00582554199627919
0.0140665909115635
0.0130596973994607
0.0141686140849189
0.00300694266411241
0.00652046732905119
0.0168026917868935
0.0253565398987196
0.0123863288731691
0.01517551302733
0.00598400707895948
0.0167430927706733
0.00307370716516084
0.0154573837011464
0.0118466688416803
0.0140208421544753
0.00668523323247259
0.00945372690370935
0.00869734006969203
0.0203549119247538
0.0126683020570052
0.0105027658157252
0.0135298229004945
0.0200727468042551
0.00411389237178676
0.00550579428148394
0.00528358951476376
0.010819198765006
0.00248579070945905
0.00816512093063858
0.0174447568890819
0.0164542411402529
0.00884909875967022
0.00997421960701543
0.00745800005737309
0.00557134894273485
0.00323310872206181
0.0106483341370054
0.00422879323950404
0.00523633078130743
0.0052827456119213
0.0141433938487545
0.00498913957261583
0.00679900802112946
0.00147081345513891
0.00994800728938588
0.00793921276591355
0.00529376494108378
0.0104987442515253
0.010666039160295
0.00729086604149034
0.00765483899608937
-0.0071412432329093
-0.000653794798811685
0.00298953750176321
0.00924848673307575
0.00592049658338186
0.00886795077401317
0.00582625786478074
0.00761675434380646
-0.00555974004479812
0.000402571094898746
0.000889014070451934
0.000408993013566648
-0.000654101276743348
0.00198510065407154
-0.00145315825381836
0.00216989114135992
-0.00697278301978537
0.00591744726646215
-0.00248147934146369
0.00270935381438245
0.000718215888332306
0.00704099961159106
0.00274747494006305
-0.00105393333510089
-2.16378098838016E-05
-0.00175563193351379
5.1723948435637E-06
-0.00247713180036206
-0.00169066274252063
0.00463843989710496
-0.00108019280571542
0.0066888777954237
0.00508674008928013
-0.00458726511913616
-0.00459200778393494
0.00164093412643592
-0.00496227936948767
-0.000549829876501612
-0.000276396077432257
-0.00218742412497095
-0.00242149779934375
0.00370889402418903
0.000345530416687011
0.00168347752799172
-0.00790755177559945
-0.000228137750261855
-0.00373178028317662
-0.00302019948170475
-0.0089530154261368
0.00323557907925081
-0.0100564167165577
-0.00249838049477056
-0.00157813855823896
-0.00517717979302068
-0.00273371898382216
-0.00141934899223616
-0.00247173656562497
-0.00288831713451284
-0.00308722701370983
-0.0021650121875476
-0.00758666915499775
-9.50685876495733E-06
-0.00654697239063774
-0.00660955927202121
-0.00746980788027919
-0.00245802579524922
-0.00527475538410869
-0.00335371692557644
-0.00603723774691916
-0.00366576793576113
-0.0112321845793297
-0.00999118838095248
-0.0139169261760132
-0.00670827500838753
-0.00674471571115845
-0.00390936250445093
-0.00540568905304709
-0.0048616889605855
-0.00629911248043166
-0.00055319510641276
-0.012788051648346
-0.00602316233222554
-0.0109259488582366
-0.00290296235697555
-0.01024296894143
-0.00905628722640353
-0.0054663847183066
-0.0051139266814075
0.00112836904364973
-0.010148509311997
-0.0119587046777016
-0.00537291784027799
-0.00502714677280056
-0.00468349094699342
-0.00911127882375675
-0.0105751392386407
-0.00823955141465568
-0.0032613737202145
-0.0102352075473052
-0.0061253196038606
-0.00986102379629886
-0.0110660072315166
-0.0148170073374972
-0.00669637716901997
-0.0102802481321711
-0.00293659061909044
-0.0100378473883197
-0.0127171056527543
-0.00545040914223943
-0.00848591438774762
-0.011085427257118
-0.00429310504416173
-0.00791162233568535
-0.00477163343871352
-0.0120677026383768
-0.0057786516130077
-0.0131067257948288
-0.0075346823854022
-0.00854795458627104
-0.00427019122581856
-0.014996555084795
-0.0107183232759704
-0.00540651766824239
-0.00612260089713268
-0.0136999841027492
-0.00808838841275077
-0.011243094308591
-0.0126294624867581
-0.0126660698041195
-0.00574020026466667
-0.0104377811153959
-0.00661234063433074
-0.00518797032794798
-0.00727708878232955
-0.0111810651619171
-0.00933573239434574
-0.00936702774476436
-0.00902617586056771
-0.00508821092354179
-0.0106975353636239
-0.0102818762535353
-0.0105754833273642
-0.0088982439393448
-0.0112353792722132
-0.0134728170404184
-0.00636092076882455
-0.0091183406828469
-0.00989228390337518
-0.0123836465973521
-0.00835242975626072
-0.0113814426581087
-0.00549720133723051
-0.0137363219861692
-0.0074994912149593
-0.00558443180179139
-0.00824567746334903
-0.00621482805445362
-0.010250723308043
-0.00958566146742862
-0.0110014015129676
-0.0105991710763989
-0.0114507459247755
-0.00993593555901035
-0.00923827095500235
-0.00549722422334893
-0.0106129342884348
-0.00776831651427516
-0.00872202962074115
-0.00706727466123243
-0.00792369744265936
-0.0102364956785654
-0.00713802356610009
-0.00762896187171545
-0.007237049684738
-0.0114573365721623
-0.0130387684181379
-0.0125740103502711
-0.0118070850726015
-0.0110151354124703
-0.00463756098280502
-0.0114839064449939
-0.00562334040336969
-0.0115161074230464
-0.00930461601648495
-0.0125479367520652
-0.007802220241519
-0.00901987753438244
-0.00441085278436553
-0.00251773256017624
-0.0105349840552578
-0.0101744818358463
-0.00933614910476704
-0.0124483545284735
-0.00587481537136441
-0.00728554016967404
-0.00918634939472382
-0.010405405457956
-0.00678373683963322
-0.00836957623773803
-0.00709511343623486
-0.0112901961446382
-0.00380054074806101
-0.0065346962074471
-0.00747945003941678
-0.00621505781086452
-0.00631436394677836
-0.00884886905820287
-0.003361133735563
-0.00944515388191191
-0.00411018654106768
-0.00913047117044708
-0.00548540206798679
-0.0025942828832404
-0.00729513880072439
-0.0100899538705139
-0.00373551424183801
-0.00473535359633676
-0.00640692942335301
-0.00535153779811791
-0.00724107728763474
-0.00671214801032571
-0.00540427899010433
-0.00551212500451344
-0.00573139735239451
-0.00675807156381197
-0.00240934146001723
-0.00348134413210434
-0.00473483477605322
-0.00791607297048896
-0.00921144488228932
-0.00126735961174042
-0.0040818492161319
-0.00158183064214927
-0.0044056497587887
-0.00551510954372686
-0.0024865497464694
-0.00101389398027411
-0.00324781745919793
-0.00528636699942872
0.00272462226380634
-0.000925046622663335
-0.00686183602423148
-0.00424805008345856
-0.00622315942982863
-0.00868448534696238
-0.0064982310413627
-0.00348701763889442
-0.00727556779189286
-0.00337458105194043
-0.000357163287136581
-0.00464249043483484
-0.00756544645731612
-0.00569190076831136
0.00053470994785915
0.00126576679185445
-0.00608337060644642
-0.00252812356674724
-0.000690178238776168
-0.00368062231480784
0.000307743869348634
0.00205302894129511
-0.0012921991188692
-0.0039377644242148
-0.0014210851063835
-5.18844507908697E-08
-0.00587290530149752
-0.00470701153524448
-0.00447562171690897
0.0013890163613076
-0.00392630098981647
-0.00116021835731634
0.00249883119347712
-0.0020940359256045
-0.00113217826489988
-0.000818052456858522
-0.00224579094569261
-0.00125059747998678
0.00201298238038715
-0.00555911658319441
-0.000918651562470619
-0.00127362848970001
0.00455645445986712
-0.00289967907900332
0.00102116534850527
0.000156388199122581
-0.00261519541140727
-0.00271958927712319
-0.000258230688533284
-0.00083038376595739
-0.0037819265064234
-0.00385003870064627
0.00176629948300419
0.00395880509608917
0.0007830400440142
-0.000472197197890334
-0.00304644629228101
0.00190154899153506
-0.00152792047678112
-0.00213853120299106
0.000905495130784656
0.00169743286963362
0.00130506943962193
0.00316313509727542
7.59145971187628E-05
-0.000458481811280281
-0.00041320879628643
0.000917278101227409
-0.00247882865475478
0.0034473230612405
0.00243449550357953
-0.00300816121623743
0.00298352167970316
-0.000603531163085435
-0.00296783046264546
0.0030744930289562
0.0044625537804929
0.00472513764994339
-0.00340020728572232
-0.00191284787400051
0.00311356109852309
0.00124271774101885
0.00328682366094189
4.96798511799636E-05
0.00037178703942125
-0.00134115759588963
0.00244046473990187
0.00466183231424997
0.00530086191319677
0.00187940691388154
0.000697518353975383
0.00241199755242619
0.00496749448382701
0.00516669110946231
0.00216778295844114
0.000386190069575228
0.00226023208069522
0.00223772854716617
-0.00200627007965327
-0.00106338639217596
0.000135779427973265
0.0024452716379258
-0.000121866465145597
0.00456206057606878
0.000110538598572974
0.00319397607362844
0.00489207233994625
0.00185046570442844
0.00114166058861019
0.00135665357556114
0.000623317893630203
0.000538318087034075
-0.000434359217043114
0.00166335196221918
0.00350754114879133
0.000192416500256736
-0.00434224659189097
-0.00117021611830977
-0.000471507668676623
-0.0041450336638549
-0.000894257356087009
-0.00131657664116792
0.00296910528739064
-0.00101487371717848
-0.00143407072578155
-0.00382855198954371
-0.00274263299435673
-0.000992305992013389
-0.00198319736606819
-0.00047560041168495
0.00050296692513187
0.000252071143985318
-0.00212920461117505
-0.00491999866946548
-0.00564490543920082
-0.000579730373061859
0.00237160092333023
-0.00447768331659654
-0.00074327622196652
-0.0057466650219693
-0.00357559675943957
-0.00182682812530702
0.00368527537841918
-0.00415228544043006
-0.00435356449343023
-0.000500387395531181
-0.00260782612097108
-0.000908419670800847
-0.00467481956564776
7.96968031959264E-06
-0.00598900558365531
-0.00355858983610512
-9.70067065109758E-05
-0.000276184518979774
-0.00504931592048053
-0.00281497100035518
-0.00452060661189217
-0.00210267964704204
-0.00368775938376494
0.00282533970126612
-0.00376723474692439
-0.00630968083023065
-0.0018989641910995
-0.00412630407705234
-0.00285205699263445
-0.00328644915525176
-0.00559936010404077
-0.00747019497817385
-0.00594217904094355
-0.00423542058251108
-0.00633242655758345
-0.00116575705207996
-0.000605374122241937
-0.00735100120603135
-0.00606907550561849
-0.00318802172412172
-0.00507130063032645
-0.00579367004048836
-0.00636087787264189
-0.00446684738906696
-0.00641974118335178
-0.00550575030532949
-0.00491493068539048
-0.00497371395695617
-0.0048449044144875
-0.00456065856898246
-0.00562095986697182
-0.00525914706679725
-0.000771870583774291
-0.00489884396025723
-0.00462440925334201
-0.000517711597050662
-0.0055392818775209
-0.00799589306099148
-0.00928573646912598
-0.00216957387782969
-0.00387746322627292
-0.00136352196708116
-0.00433181999418488
-0.00460703325087775
-0.00648899958458821
-0.00578886042293855
-0.00229462544489657
-6.13999968190732E-05
-0.00391807563237181
-0.00515311344579451
-0.00307359915026309
-0.00149323826890821
-0.00265950788157017
0.000733374245353251
-0.000140881337804543
-0.0038082410107448
-0.00580308387922484
-0.00468955988804054
-0.000902663623266
0.00157614121411211
-0.00274755174628926
-0.00427814053345093
-0.000272748734974258
-0.0024948492875795
0.000197320908130336
-0.00189457901225621
-0.00470421425157316
-0.00234335768056958
-0.00482510945082093
-0.00214637309530535
-0.00707752071108709
-0.00352848843951461
-0.00118776154792895
-0.0034956675349916
0.000690223207753612
-0.00245292189721406
-0.00559671075623473
-0.00200821751243743
-0.00438203434784411
-0.002736332603608
-0.00452793071197844
0.00230031937382795
-0.00720852286786521
-0.00603312451854417
-0.00544655693299664
-0.000224347558509837
-0.002587407219935
-0.00438355921018177
-0.00445359130484315
-0.0024789202288629
-0.00565785649516521
-1.55880363914732E-05
-0.00399812415111311
-0.00436460791217863
-0.00636584710273134
0.00351303022456062
0.000453540650597619
-0.00212223996848099
-0.0001839713972394
-0.00161374329325442
-0.00494187168840935
-0.00119369211190003
-0.00126111086141636
0.0016457340074809
-0.00144883915993373
-0.000605749021296926
-0.00112061280193174
-0.00280606413342302
0.00135544761778686
0.0037132682783257
-0.00150954642609399
0.000623599059782625
-0.00685068149123478
0.00189448020713271
0.000326026816296931
0.0039708210235917
0.000323876024644484
0.000380969231930543
-0.00194147053518653
0.00168703510124659
-0.00123127315685556
0.00227807631061908
-0.00102725329394637
-0.00382157549664566
-0.00349622637752389
0.00164069752804608
-0.000936282228468627
-0.000118307508910145
-0.00062865770213382
0.00325135807116694
-0.000621886344286439
-0.000705928206616594
-0.000946805391054755
0.000198045780317816
-0.00104985997508632
0.000691282738026666
0.000696492116669095
0.0031704147002534
-0.00104477401204391
-1.19078324233301E-05
-0.00317998479107472
0.000319629415045434
-0.00122833455942421
-0.00173650716630916
-0.00449836792035593
-0.000388828061990947
0.00226794151084406
-7.5311152707405E-05
-0.000880276053934498
0.00108931438279713
-0.00315688293050532
0.00274846592914204
-0.00118436841981004
0.00222532961149712
0.00236964982367137
0.00296140177718526
-0.000555962131243844
-0.00055967620364786
-0.00195478273868396
0.00361768899865017
-0.000185622455417493
0.00403565252022172
0.00203183051095675
0.0016719835385683
0.00253706471006851
0.00365392387887531
0.000327801366712906
-2.88510037489375E-05
0.000314070094905016
0.00496543544260533
2.48524775554652E-05
0.00247459667856901
-0.000145271140180385
0.00338844609949042
0.00228469613677677
0.00499798102136528
0.00258138803655937
0.00228224050353368
0.00312596688527531
0.00342524464281282
-0.000296743972485081
0.00367508441277196
0.00179265429573513
0.0034949868217103
0.00538173776379239
0.00460569387797206
0.00312496335267293
0.00300354607935873
0.00273451589703231
0.000415277698828675
0.00286236470687167
0.00433361256312749
0.00282333188682573
0.00368478811970742
0.00333866045833075
0.00337646954256512
0.000434397174097501
0.00273712530633928
0.00140456575455655
0.000574397302090934
0.000606877504865986
0.00140418353324628
0.00202252808257888
0.000841779729171734
0.000708249111736685
0.00300665538421862
0.00210338257044698
0.00073606574132979
-0.00387032520789846
0.00542247071552199
0.000364473763033538
0.000312353850388461
0.000386919764102117
0.00327864924246162
0.00177825708255924
0.00262074808876636
0.00215632186518594
0.00473447806179119
0.00059084122470821
0.00365276718242863
0.00116339021842706
0.00216471518058178
0.00384386821931442
0.00474172624790836
0.000634572751836023
0.000759076353627285
0.00541345491983631
0.00482010656185581
0.000443365567223735
0.008674873716039
0.00573980912846563
0.00506846994395651
0.00561697398148993
0.00449396656469025
0.000613601247362622
0.00782222721348144
0.00453860687348989
0.006616892339501
-0.00131242934281862
0.00570186972767857
0.00257917979332953
0.0032150661409593
0.00272042913558643
0.00571115430085597
0.00366332341688334
0.00283873528349571
0.0041794253333448
0.00498070692138875
0.00238965535118353
0.00560462116491241
0.00221582709540229
0.00456536472760862
0.00412539482805163
0.00120158894945175
0.000878747855615051
0.00199787749772719
0.00079438807577375
0.00479013143469545
0.00126800440302873
0.00274739493962688
0.00125228194775288
0.0056291220571428
0.000948499715750536
0.00221100666612636
0.00157856686106411
0.0054526630344235
0.0027829690234505
0.00200034240598763
0.00100437167589876
0.00124874169008799
0.00291963270032881
0.00225724903707187
-0.000462701954472832
0.00366407713435094
0.00661519792958808
0.00271169319125318
0.00031619033651674
0.00638191145660405
7.65043302125824E-05
0.00323712168754518
-0.00120581949894156
0.00219042466894977
-0.000263697234090466
0.0030486200132971
0.00643984893448804
0.00481885960831987
0.0028199349225817
0.00394449558329877
0.00182957838778015
0.00400859561934162
0.00516323370827941
0.00583642073235255
0.00582704619432928
0.00956128272572497
0.00315685278245142
0.00663599263476305
0.0045420810936717
0.00791357886395846
0.00483387167897687
0.00543815535508619
0.00673887674307771
0.00643023031398165
0.00197633236534013
0.00476469744765552
0.00466261347803659
0.00877994024009482
0.00201509882342628
0.00287315993928837
0.00419595782277036
0.0049908551121579
0.00325558152119372
0.00497075219819111
0.00556263814083087
0.0058685236096215
0.00532266364255634
0.00468807556337334
0.00541108857704438
0.00489512683022396
0.00228157158513178
0.00544148278073232
0.0030057107072676
0.00608525920327861
0.00422102091711317
0.00441021337397412
0.00362677412423683
0.00624309007684104
0.00159910157977277
0.0056784382042183
0.00120548797504523
0.00549597623118861
0.00502543758241499
0.00581415386592152
0.00415564292565018
0.00515414715900861
0.00437460844114689
0.00775238084293394
0.00210746582626117
0.00418922584750465
0.00460957945977273
0.0056974806761787
0.000881438746189458
0.00714912988094131
0.00565854008764297
0.0027832975258361
0.00563592480492382
0.0087587908534047
0.00382016826998233
0.0045925387912965
0.00722825805474128
0.00936878091558976
0.00751223518295683
0.00740684370141023
0.00636075583222023
0.00779760838278742
0.00332620206981049
0.00614615814549588
0.00347460591477612
0.00536007040044825
0.00474453612243882
0.00909920364834048
0.00827364519275146
0.00678749432986066
0.00461222982477485
0.00704438815429454
0.00622869933001112
0.00890883690682691
0.00589544835097174
0.00685656858575568
0.00653319141897529
0.00956852022676422
0.00326067021501023
0.00504473024258602
0.00301833122457613
0.00835118753500326
0.00503712750289195
0.00508110381054973
0.00293092038086384
0.00607707225322384
0.00558210808330345
0.0078021216885767
0.00282632564385003
0.0068510375947013
0.0022397616531705
0.00804067274357934
0.00585487221755086
0.0048461703177448
0.00177793102611636
0.00762959501929028
0.00698111819901217
0.00722959289723041
0.00385962181356858
0.00654111732899329
0.00304134732369486
0.00448466569701492
0.00459383172775827
0.00567189203175493
0.00369638347746512
0.00772910488662237
0.00435441080962932
0.00465288281421917
0.00499830441214238
0.00966230785631051
0.00587091664059571
0.00975403526450028
0.00652664994998227
0.00713994920142061
0.00237313603830749
0.00955226319227927
0.0059080109182905
0.00542437276435459
0.00339118563649803
0.00864332499710814
0.00736601671726439
0.00569770564035567
0.00848071373529901
0.0100745787241902
0.005877787790395
0.00928729329598059
0.00674844274204249
0.0078040749663646
0.0070201094226424
0.0110815034165189
0.00321298164199538
0.00894505013537245
0.00619711481981931
0.00894661187037319
0.0062487074704579
0.0115164777559284
0.00288666628981009
0.00952275697840725
0.00295615117699988
0.00644064217984162
0.00293931064092959
0.00846239829680263
0.00614674739959336
0.0093584647324863
0.00270748084518588
0.00466063674632442
0.00313770843876588
0.0114203009141529
0.00554107249988422
0.00569239172344784
0.00247329453347522
0.00644161758038842
0.00443725799157399
0.00833492716965154
0.00512214697069971
0.00683829523049011
0.00587631536433471
0.00769807285498659
0.00470707934084122
0.00695729899292111
0.00469690665936658
0.00747678002189851
0.00279294095249248
0.00563379981757464
0.00326654996985204
0.00914849316751425
0.00598325970854814
0.00725096564511336
0.0046026535091092
0.00829609452777158
0.00555851289227616
0.00826778216721156
0.00504536291990408
0.00984913142214119
0.00603636195760858
0.00884538616932374
0.0046841900366869
0.0107246569047367
0.00534814917557551
0.00923279532204573
0.00565730346978205
0.00981958236348898
0.00698840610831256
0.00917057768228306
0.00442548079912506
0.00894031536632643
0.0054141013095113
0.00668439905784639
0.0035316349501545
0.00847037463399549
0.00614262623927032
0.0079313269937207
0.00547947955794703
0.0105316827976789
0.00633124865383221
0.0110629224845602
0.00653566170888615
0.0109824572786568
0.00713839105555361
0.00967466673374572
0.00755139544975074
0.00890067442136982
0.00518211855248734
0.00884483759229942
0.00460498324059091
0.0104072715888888
0.00341855823688546
0.00600004852053461
0.00549469979866537
0.00802733324007756
0.00450439086952858
0.00570343308114943
0.00635753908766706
0.00838421531893651
0.00224409567203821
0.00900255164321638
0.00831470241740324
0.00717547644878216
0.00341794730162075
0.00643843226099485
0.0045749516122044
0.00862826088742394
0.00541898796278162
0.00970636892882733
0.00481217542734984
0.00629348126841503
0.00455702751996432
0.00754174176248053
0.00678858889733956
0.0104249552114431
0.00503783085666221
0.00980911016063342
0.0047086219825705
0.00818199678714138
0.00717375220670329
0.0108528905343597
0.00576368274437407
0.011588554524038
0.00387677948863785
0.00744184167696197
0.00671089454162866
0.0110061995306411
0.0077470361880395
0.0103631203002341
0.00688570377621375
0.00987086199083563
0.00739207318547505
0.00878341122550222
0.00566382931178752
0.0110083385419562
0.00602568565516706
0.00834685465607166
0.00607838974608312
0.0112135683866512
0.00734688148606164
0.00830093173421442
0.00752744537371192
0.0109793600889138
0.00704819081592421
0.00995224174691879
0.00773271256499854
0.00803734218961332
0.00672404832052999
0.00759031905835471
0.00232518173666262
0.00996673480870732
0.00566854333149932
0.00878008897991975
0.0061515530190447
0.00904910336223502
0.00637780045585231
0.00925516024640989
0.00375901763856813
0.0097860987426535
0.00562456510152964
0.00908902765032603
0.0045095826555864
0.0104160632824795
0.00582142709592992
0.00872777850018581
0.00323221343965825
0.00862031167392137
0.00567151394210596
0.00796039238802486
0.00385973854490606
0.00935018325579506
0.0062377589282069
0.0124848999128617
0.00643177694196956
0.00871243694021373
0.00202819633179433
0.0092436707630828
0.00600103365197178
0.011039042158714
0.0052847085682556
0.0103521877182439
0.00456615555068638
0.0111462571194185
0.00654609877687613
0.0129291125889953
0.00455278579201023
0.0126624922817417
0.00310303254084162
0.0101485302350597
0.00485969242900997
0.0104246998278374
0.00494417437249571
0.00838294689828264
-0.000692747710508536
0.00466965033328916
-0.00379056532983373
0.0068257068192113
-0.00592355041883009
0.00892197355324072
-0.0031501435170394
0.00808994337572592
-0.00935003272557896
0.00341300340073812
-0.00151776959800298
0.00544259649966402
-0.00882658471072744
0.00765411556386185
-0.00846350122633958
0.00294617479199402
-0.00593993028422283
0.00587731297504275
-0.0130833316339176
0.00786475020953914
-0.0086967867411989
0.011262378795984
-0.00218439196188031
0.0120117773561215
0.00176414446579594
0.0174200833061357
-0.00678973195631383
0.0121803117243648
-0.0105748887229376
0.0121178092045192
-0.012289625217352
0.0140183052268402
-0.0162570110128199
0.0158781892651354
-0.017950146431391
0.0124922119326402
-0.0153447679091457
0.0194714509139242
-0.0174256104062454
0.0230645233062714
-0.0188017373590149
0.0224810913296989
-0.0201279569270204
0.0249141845566365
-0.0201439357800588
0.0280752096429385
-0.0215577713977106
0.0300488179169568
-0.0239585042271673
0.0318771936659732
-0.0202251387900243
0.0293057648060584
-0.0137849687460061
0.0267902659832796
-0.00895732589449172
0.0180636084232257
0.00284281929965589
0.00999676605576845
0.0125179380009058
-0.00331854978572437
0.0258417195086846
-0.00902605925733756
0.0314440038808532
-0.0140632062937417
0.034344500151035
-0.0124966312790046
0.0301253570687656
-0.00887625061969273
0.0207364803168857
0.00166272522685851
0.0138662148885064
0.00809112322793717
0.00600812486622995
0.00981547569887262
0.00671491819238647
0.00955675280471786
0.00856025846091447
0.00442870266244409
0.0124402570257723
0.0037550623088565
0.0121905288934411
0.00465062025233159
0.0114226194874149
0.00400118236657312
0.00814852861455416
0.00518558912224829
0.00880829338707572
0.00427865561049539
0.00839222275346052
0.00440605427548351
0.00668605076991708
0.0040241749569582
0.010129621150181
0.00568727263786608
0.00775642196621583
0.00584382929570763
0.0091243614038982
0.00411089705802311
0.00813774921450839
0.00453137529333899
0.0101096066774415
0.0064008286449487
0.0100060459539462
0.00445647773465267
0.00701766905548136
0.00269010358671443
0.00770618919089698
0.00573884806192282
0.00740364608388576
0.00559917482408999
0.0101810839842722
0.00361833015397817
0.00652931028681954
0.00657211145029774
0.00496161589593021
0.00554053005543226
0.00789556573950351
0.00720065114705214
0.00769254289859753
0.00598937026643579
0.0088194235955848
0.00723657547481123
0.00536348442106745
0.00642102015270683
0.00914409424386749
0.00686398994482262
0.00999569165582969
0.00726631728750861
0.00892576375108816
0.00491254092151013
0.00749045935739671
0.00451743121831688
0.00692076388817433
0.00504441451269724
0.00824216560111956
0.00303908170733476
0.00729197867593415
0.00625494310794473
0.00686041268431227
0.00231066471105433
0.00585116873817883
0.00446356477963231
0.00804896911583055
0.00728318686333277
0.00707495344823948
0.00363346553874289
0.00560435969799888
0.00595135381428491
0.00621002974952829
0.00587163836719727
0.00435982668202795
0.00529235385147748
0.00687081370760855
0.00531902754622026
0.00645471729320042
0.00458243801905296
0.00517068124378303
0.00575055500796093
0.00512844626308293
0.0059686654258088
0.00431326003084628
0.00742952820077567
0.00662563768254409
0.00539265767572317
0.00709122592593793
0.00546140274281229
0.00568095745541774
0.00539347884908363
0.00783300144862701
0.00471534935189636
0.0040678058338786
0.00593613935108538
0.00667836989397261
0.00563038918967479
0.00580072323250712
0.00659501894259576
0.00572273785152517
0.00602173844794706
0.00598477596155727
0.00710356871227365
0.0092772440592276
0.00840600243942676
0.00829642471852128
0.00553469041080695
0.00537625870477325
0.00634479819836431
0.00617329883000189
0.00574868775901232
0.0078753097768301
0.00649929604253364
0.00440009984356028
0.00678540521156059
0.00539655422277527
0.00397743892225855
0.00584042379870198
0.00668649184005583
0.0044460098196941
0.00372765726851808
0.00668153907314294
0.00441119908903898
0.00529761600471041
0.00419090141281498
0.00506709006747037
0.00451554367531695
0.00473675019505459
0.00244164198425667
0.00461680723801199
0.00699968349930418
0.00530040253875436
0.00328984202687971
0.00541727193369828
0.00524953182635631
0.00374159899696286
0.00825986708167687
0.00515098799099669
0.00578539371116812
0.00428436786332403
0.00530988836793755
0.00113208207723838
0.00455921964441814
0.00590728162184914
0.00302684925112097
0.00516110828169395
0.00461097453901963
0.00503674903849685
0.00511783347071732
0.00452327809979409
0.00499345774481728
0.00460726253345655
0.0044955206629961
0.00489336690660127
0.0062093041279368
0.00298781811301507
0.0050211210886394
0.00430378143975174
0.00543579959584949
0.0051775216583894
0.00494502681460175
0.00447465590277561
0.00475121504558926
0.0039786214890097
0.00684380994103815
0.00410143768564002
0.00321970503464658
0.00415767327018225
0.00536630463733379
0.00392621121921867
0.00446431664240759
0.00522606512500333
0.00599513210369639
0.00313393277778284
0.00516840583678239
0.00542427072100486
0.00476468405204484
0.00598556526518775
0.0065542190197656
0.0045353280750266
0.00438935917256147
0.0048839681393746
0.00588837284257194
0.00298420132007962
0.00455982184502754
0.00436848728129691
0.00337207722028878
0.00421129803718451
0.00353646083269251
0.00436547860187135
0.00538753931678008
0.00422744375502639
0.00344214327627033
0.00456412257801181
0.00454861549802802
0.00395741573921523
0.00450074884379134
0.00464220213366776
0.00616203275222614
0.00349832546315776
0.00370579900890835
0.00482863824189049
0.00496343295918512
0.00292850792897027
0.00459943056781576
0.00472806306616784
0.00431401725076495
0.00367778969165002
0.00563148469366617
0.00219835738406076
0.00475727762988167
0.00483340863535928
0.00565434398829389
0.00325669508656198
0.00407423526974534
0.00484995454592532
0.00358631626159367
0.00467635336248368
0.00538601400538915
0.00416102590044768
0.00635739576044757
0.00608470772416234
0.00532160657002787
0.00530517687384955
0.0049806242753614
0.00409812959442159
0.00622036869017203
0.00304082210944438
0.00490064013812152
0.00577890391692093
0.00527852021998062
0.00371748584734254
0.00351384904722189
0.00571464948301367
0.00529864106938425
0.0034564413734353
0.00410515538136513
0.00428336532619935
0.00335594676256106
0.00458700021720907
0.00412339833209061
0.00497727059604884
0.00457543855339266
0.00136713022761575
0.00412097960942329
0.0037395355098279
0.00334353644311543
0.00367667284074075
0.0032338531921067
0.00277459922372128
0.00340006936465099
0.00279728855949851
0.00439862065416336
0.00415746257065152
0.0055783897225778
0.00302432684399241
0.00663091043850928
0.00312040827669452
0.00358258229362727
0.00163512831253862
0.00251201759096579
0.00278970704516631
0.00389576523938393
0.0049736592721755
0.00482866015732274
0.00431336049037408
0.00559625094683165
0.00446105506837624
0.00368786878382759
0.00315963845555486
0.00219750519854713
0.00310132267691549
0.0053336986942863
0.00329987710708183
0.00615400516643974
0.00251471014411618
0.00596604259169416
0.00429901416924641
0.00378062536874373
0.00504722697270734
0.0027120986723053
0.00421144684541285
0.00448386906808775
0.00219703023969804
0.00574375051221157
0.00619376354314342
0.00522450164163152
0.00175641896776414
0.00420616304483844
0.00527243427309696
0.00444572594626196
0.00334500285195275
0.00647093302218939
0.00385853563451069
0.00608776197059419
0.00496793529683197
0.00274571982461512
0.00497914049753201
0.0025907210858803
0.00462050419800405
0.00567492270908073
0.00394973423996755
0.00351555903400761
0.007121343975639
0.00362094545886387
0.00815203263153661
0.00561917250735099
0.00449022164432516
0.002490130156414
0.00199710320008417
0.0067912165352277
0.00283100939225251
0.00466885098937645
0.00280140019927105
0.00226950541948517
0.00435326233344993
0.00510601174050481
0.00683315439272746
0.00298570762827773
0.00339911755291736
0.00386267970065236
0.00218091105667186
0.00317689130064531
0.00100194634048495
0.00500313506920925
0.0055865909655682
0.00289777854567875
0.00589273340230794
0.00314469957760768
0.00490327928975779
0.00301449782151153
0.00592456585404079
0.016618671994157
0.0037512679866299
0.00760472522264362
0.00678257531586881
0.00894663855528058
0.00223218855818661
0.00809718244526388
0.00437055148717148
0.00414344432801275
0.00372572777584366
0.00712753836233984
0.00212177910214078
0.00424190043859668
0.00333414727416653
0.00621655002219286
0.00387516079283746
0.00588074945012041
0.00437917951872442
0.00431778347425791
0.00320834432027874
0.0045572102604718
0.0025695606687979
0.00556517513237743
0.00342757349383064
0.00622495215060999
0.00106309311131522
0.0129198397806846
0.0068133059916388
0.00584470735916063
0.00235629596919759
0.00506317645050492
0.0026641454328311
0.00491497346163405
0.00476833110177962
0.00229720809606399
0.00276951385337605
0.00513567261261768
0.00262356959093152
0.00323557353232462
0.00367755604299418
0.00557200086768543
0.00360890659931462
0.00424691461130186
0.00255385046566929
0.00568258670082613
0.00221244592799729
0.00229418845734505
0.00165315647204396
0.00500347757670385
0.00251119352035813
0.00650832411515152
0.00298018503252961
0.00510820963079343
0.0255858259840124
0.00447793135110226
0.00648284917428726
0.00300690888799009
0.0049595306222384
0.00585749817216936
0.0047531225526044
0.00274342935372736
0.00591541862431443
0.00336509030809919
0.00434304092458401
0.0010373523113939
0.00355694566170588
0.00519025353882049
0.00432263246288615
0.0027015493300043
0.00335855369440167
0.00326145081962483
0.00625398680199893
0.00365814021502638
0.00670913459270836
0.016188995082152
0.00790008678090228
0.00404487320366293
0.0108709732121507
-0.00493610146794798
0.0269127091666571
0.012651617042387
0.00365197924816112
0.00591028126003336
0.0024743986300172
0.00490741137197908
0.00332044287739829
0.00378295066494987
0.000975515843590088
0.0140963151065119
0.00323197775291522
0.00958053585340573
0.00149759803786231
0.00498995381218418
0.00217859826631281
0.00495877508299359
0.000298352495497957
0.00423629280992012
0.00303397496949845
0.00185378308022516
0.00363785786322406
0.00131468319315675
0.00369022123944674
0.00224915155529338
0.00256361648844348
0.0108170545513995
0.00225254663754034
0.00425593176222426
0.00394084339552431
0.00370075458236183
0.00531321797179655
0.0276974872184341
-0.00198194846549256
0.00853929325381077
0.00199715086965606
0.00737701028915326
0.00299119077840029
0.00541820355601756
0.000150497433967059
0.0049194753984814
0.00322582029781563
0.00619956496605282
0.00259598717145084
0.0020695353255809
-0.000420264633729905
0.00384754105229427
0.00108488018262439
0.00246243587426968
0.0055402353176531
0.00184944585380208
0.00463424609148389
0.000267538277596923
0.0166430337859261
0.0245269238211712
0.0113577576239931
0.0175408178116501
0.00391857152576313
0.00646328406491924
-7.92325437431165E-05
0.00557780880642348
-0.00252490145844018
0.0095072421441748
0.00132826388889901
0.00733167084603134
0.00128130153651628
0.00786350206297572
0.000694725427721994
0.00591184639323953
-0.00233205118128294
0.00712934841046655
-0.00218991342951201
0.00779950627563821
-0.00164205152677498
0.00877991063367329
-0.00627465491951026
0.0127767111673253
0.00395983882526795
0.0115544411015131
-0.0121562838893821
0.0291117673479824
0.0318478556450975
0.00363151527698539
0.0147591858118852
-0.000214401814231452
0.00498213443308342
0.00130403467923814
0.00340740242445602
0.00856415466944862
0.00260556626878455
0.00337481565465962
0.00494938441091927
0.00479376017768233
0.00556103873832954
-0.000577742389601996
0.00708316354176813
0.036348033551895
0.00972933402200058
0.0111584323838402
-0.000175233937342693
0.00206335071933764
0.036099359808772
0.00302757937497535
0.00655074743742339
0.00513400855266935
0.00297340507547153
0.00146015901696726
0.000861434131833633
0.00258727182687489
0.00837941102348495
0.00705484024685759
-0.000267158960224727
0.00651260321097924
-0.00222370983682523
0.00718895400802885
0.00234470113860751
0.0107070742313422
0.0146769921036987
0.00216508097844094
0.00666368482690531
0.0077579385579168
-0.000150856353919954
0.00312333488439444
0.00325773216002525
0.00357459376297951
0.00559184870266256
0.018185644591132
0.00218641990318533
0.0178675895610899
0.0159251008494087
0.00123593634082711
0.0061620127793461
0.0087118070653858
0.0143366303224452
-0.00171050400652349
0.000725199672947335
0.0420426299349061
0.00503097946762837
0.0327271838952283
-0.0011623600497891
0.0126532579257218
-0.00433089822193151
0.00808479940790193
-0.0122806056805502
0.0233659190213401
-0.00205933866134896
0.00764516772817787
-0.00466074777733507
0.00944050037426949
0.0146051882401156
0.00596769760961639
0.00430384043861034
0.00145242065177475
-0.000839772520874005
0.0168837187976965
0.0134592903461516
-0.00897784998342147
0.0324877485709434
0.0204416672558891
0.0224457151253513
0.0140036531807405
-0.00815711775822325
0.0420606908822089
0.00433003363827941
0.00839061414389318
-0.000119286147972023
0.00228941998915695
-0.00266541174427308
-0.00237175753280176
0.0355312480999902
0.010065808770662
-0.00134257111644914
0.0115483274361653
-0.00653683780564884
0.0298944383954472
0.0140558397554395
0.00604056876586616
-0.00016423334942508
0.0118863986984888
-0.0144681899149715
0.0402298105261287
0.0241479453642154
0.00913760533310841
0.035529518864553
0.0121111766244928
0.022806183187578
0.00825206887018067
0.0054374489424557
0.0106878991654133
0.0247184771826944
0.00681924623031519
-0.00437737822659581
0.00819814086733502
0.0333738496143909
-0.00469539900285512
0.0115133867979698
-0.000207797142833618
-0.00816399428863207
0.0191423488565235
0.06667199725952
0.0300183913233931
0.00969074713730251
0.00066398240465497
0.0322313266519396
0.00723461782384697
0.0032351300764635
0.00118458744277692
-0.00263944200931918
0.00012447712891108
-0.00426073276074592
0.0105327106581782
-0.0002934142202538
0.00195111593565991
0.000117739855410925
-0.00686783117878391
0.0189847018537391
0.0383878043834179
0.0483673165913344
0.00375462710522586
0.0374291464320532
0.0196532307951148
0.0112781427363837
0.00197651815804571
-0.0028415093945044
0.00805941273858073
0.00280665949497368
0.000743244053025004
-0.00425027216221976
0.0199701410623722
0.0119363781571556
0.0072744255170626
0.0327973688301618
-0.0032114130337735
0.00897558234206772
-0.0316114281174546
0.167527518153173
0.0250454504152188
0.0196303076646543
0.00377111475419374
-0.00313318511578861
0.0804015871543157
0.0157453656716484
-0.000883690307447388
-0.00132081286277001
-0.0061874026597447
-0.00223147037934714
0.00337066489321159
0.00406850509613836
0.0113771707480619
0.000819490992569995
-0.0146367479232263
-0.00262325474610816
0.0707560812050311
0.0544951763770611
0.0229547657124421
-0.00507416693766267
0.0129289769971089
0.0129610230830198
-0.00717449810860871
-0.00446021341313088
-0.0131115771006243
-0.0198604963394372
0.0472635052670051
-0.00833316348960412
-0.00269575130095004
-0.0175513920430117
0.0194679805223607
-0.0261302738155061
0.0349329652801258
0.0211138111150618
-0.00493359294127004
-0.0124511646272313
-0.0166079746374413
-0.0130898841805483
-0.0276775297580921
0.00889450626476761
-6.15544458695656E-07
-0.0115914532132122
-0.011854331834538
-0.0179050738178816
-0.0162914369395355
-0.020270005954839
-0.0126339984330931
-0.0245286855694283
0.0100056234487366
-0.0243216399635819
0.116556699967052
0.0247224208483533
-0.0101172217701146
-0.00665165047902134
-0.0211648201202874
0.0158451941392194
-0.00660622112541956
0.0173579334912069
0.0173184878736187
-0.0197990627650478
-0.0121993922035183
-0.0189218899396085
-0.0129337087406214
-0.0224755772692456
-0.0109489786164953
-0.0336515577262972
0.00201595711018321
-0.0226660513387627
-0.00625817098536017
0.0542392016641393
-0.00863299590746911
-0.0153445427205581
-0.0197373944698338
-0.0222177619421522
-0.0205769263879695
-0.0223263877048811
-0.0237419768027054
0.000490739615831701
-0.0251913086030117
-0.0132661138008918
-0.0278833602116041
-0.00255217824605808
0.00459224935467909
-0.0194641453207229
-0.0105840279590343
-0.0218375525848911
-0.0127451908807703
-0.0297712951853997
-0.0274652368594812
0.0378639960016545
-0.0105272586335788
-0.011914221130568
-0.0156607517637166
-0.0153982206943689
-0.0129058234012521
-0.0204308783248335
-0.0151477141595699
-0.0108236446815094
-0.0199917151547811
-0.00699163945556374
-0.0177066996734565
-0.014403504475822
-0.0183996114975992
-0.012718563235535
-0.0155926781379227
-0.0125137617598575
-0.0117499890110099
-0.0178961933689858
-0.0158392475104983
-0.0162959942690568
-0.0144225904305896
-0.0137384143084978
-0.00917655482626472
-0.0104771484121282
-0.0188345006831217
-0.0143804404822057
-0.0125079837594132
-0.0145881245402472
-0.0141445929706255
-0.0152088061280772
-0.0130579119947862
-0.0181910581805805
-0.0169462563638437
-0.0155518870713743
-0.0142128441392029
-0.0181623194036535
-0.0141456776640289
-0.0143067258633169
-0.0127467017921823
-0.0173608773468651
-0.0089857378237871
-0.0279899119981844
0.023183327102032
0.0178019738655732
-0.0117745948049517
-0.0085170913451739
-0.0168300663659402
-0.0105861372097147
-0.0259282642624023
0.0151700292403116
0.0151817071899202
-0.0120958996981945
-0.012124086039918
-0.0182931292764052
-0.00858868590029127
-0.00151953609759758
-0.0181523823380282
-0.00848272579242202
-0.0261085918128753
0.0120065190609816
0.0508617422281728
0.0317693943931028
0.0818751811285681
0.0139650708600961
-0.0107969313744298
-0.00673313744211153
0.032873095030238
-0.0097861481303534
-0.00756080929878508
-0.0153321411079765
0.0170645697441106
0.00428337816025658
-0.0125267195569664
-0.0105103193899831
-0.0207417232506827
-0.00109882012181056
0.0217066842868277
-0.00219037934394223
0.00781582813342566
0.0283633136892213
-0.00157278857509056
0.0198921571909625
0.0682165590183726
0.0330852011755813
-0.00300510779627653
-0.00270012490295883
-0.00697584313650652
-0.00520969365817024
0.0384934537280225
0.00776325181875357
0.00933967464630633
-0.00600875339998181
-0.0132327656178457
-0.0013504948643204
0.0108829740397314
0.00578818514961952
-0.00664692277810158
0.0323017501204138
-0.00146057214491411
0.00448016593648549
0.0132770759949009
0.0296051585486106
0.0506035353063574
0.0132592127616657
-0.0109967090731266
0.0137982513278202
0.0405719599959234
0.00602458590195277
0.0111266897737496
-0.00582880919579372
-0.00534689565976191
0.0195005802771293
-0.00185166418888283
0.007371772187821
0.0157007984904586
0.0200876889036632
0.0510142192873584
0.0586722826491889
0.053159136908606
0.0125681507676405
-0.0068899540055974
-0.00290515613020398
-0.00201751767790534
-0.00219706447669194
-0.0162629246273738
0.00364102979191458
0.00781591292625048
-0.0108829362882027
0.032116780072631
0.00511742092961841
-0.00692229851286506
-0.00708678534253706
-0.013588683440183
-0.00573323500977509
0.021878348859672
0.0321870495143927
0.00800319943611341
-0.00417451351337982
0.0143731864210205
-0.00568737866878606
-0.00580704897255079
-0.0126503794679062
-0.0101921180808229
-0.0132522047084099
-0.00290019989766262
-0.00696092650941292
-0.0123967649688315
-0.0111048514081508
-0.01511398207828
0.00267690669471085
0.0185013106569309
-0.0167039096874833
0.00602692330554464
0.0102775009348391
0.0234292105617893
0.010055004805677
-0.0116702091154587
-0.0113385318733503
-0.0147659273320765
-0.0152081437238512
-0.0213976232664754
-0.0152431175804118
0.0118756400706353
-0.0136331226973913
-0.0164460979423873
-0.0199021343399554
-0.0201081604995108
-0.0220987772127876
0.00402963479896527
0.000594643647955631
0.0168865325952488
0.0336187712508674
0.0030822000064168
-0.00819642685392345
-0.0228829137976158
-0.0142168487667479
-0.0148175737368485
-0.0214307992138877
-0.0219692980381826
-0.0216777143201472
0.000696067775647844
-0.0156773235297596
-0.0216632488254458
-0.0219069767770302
-0.0235944223100951
-0.0215940917648651
-0.0229447482227537
-0.02595356536174
-0.0264382303561875
-0.0216483609259075
-0.0240007328309963
-0.0257945510503365
0.0377502579184277
0.000636077275366591
-0.0243891966912041
-0.0182408005632943
-0.0188089548399048
-0.0204662698826038
-0.0283068860357749
-0.0114095976607952
-0.00983714370300868
-0.0219259355333134
-0.0202040275204057
-0.0234256021965215
-0.0254204337889889
-0.0117663572182073
-0.00143807802992
-0.0221954788093412
-0.0224721347647782
-0.0322171003511698
-0.011648942707191
0.0189341669653497
-0.00801416200038693
-0.00640244073486633
-0.0164467674450041
-0.0228150423129769
-0.0238007827284909
-0.0260942074203434
-0.0227603189346949
-0.0232961279374675
-0.0245496331698264
-0.0247187701218074
-0.0262216478751661
-0.0250959799320111
-0.0270867819920525
-0.0260381808050056
-0.0101341802700783
-0.0210273838807536
-0.0277971360728428
-0.0245750503798411
-0.0268538113934378
-0.0288009626482241
-0.0102317523232236
-0.0081626142534708
-0.0160043724858807
-0.0195643894686994
-0.0196373734162215
-0.00292565428126085
-0.00702596124948087
-0.025562908759059
-0.0269456508607401
-0.0278837901322947
-0.0266763424036591
-0.0283244785776494
-0.0261477930457375
-0.0107730746531819
-0.0157338877970247
-0.0244798826981306
-0.0256094997451921
-0.0297439991617898
-0.0281933096058722
-0.0288604740219072
-0.0290148085317338
-0.0267606963701003
-0.0225891738579404
-0.0237610651273527
-0.0283040302020615
-0.0277055322429505
-0.0183860533139182
-0.0166342070930134
-0.0148463145591491
-0.0263273227139336
-0.0271614547461852
-0.029898207202877
-0.0295642268354721
-0.0181324342406457
-0.0235661441717588
-0.032459796991938
-0.026332407765927
-0.0315935930970318
-0.0253047964281417
-0.00416121785801619
-0.016336917899895
-0.0222102498019217
-0.0207151611763313
-0.0307366434645127
-0.0261375183898602
-0.0277067736838275
-0.0268299928735524
-0.0280491648176974
-0.0256846874343167
-0.0299633458676033
-0.0284124766043066
-0.028438643091889
-0.0292322191105941
-0.0282560007731685
-0.0248674112272435
-0.0280405007085259
-0.0277549916735717
-0.0297475617970806
-0.0276894458246101
-0.0289780382203985
-0.0291632731046535
-0.0300286608538424
-0.0276860407587462
-0.0189351951369045
-0.0120697330848012
-0.0166737884567382
-0.0225908406515328
-0.0219571492204531
-0.0224279874789974
-0.0289877839657473
-0.0278942441569128
-0.0292083108541062
-0.0291085728767623
-0.0289017603801436
-0.027895337926042
-0.0287537533441267
-0.0278073126185684
-0.025810309996724
-0.0240088984697948
-0.026548186890685
-0.0273961947238294
-0.0260086287410179
-0.0253427833004581
-0.0268934635699892
-0.0256745198738934
-0.0240343909480924
-0.0182366487798346
-0.0216068691601713
-0.022282596782476
-0.0222991849558644
-0.0238943454285128
-0.0233741466228564
-0.0207906208411353
-0.0187383592024365
-0.0209435362457066
-0.0250051756980847
-0.0251601603906843
-0.0243584984823102
-0.0231736205090691
-0.0242354192326311
-0.0241222598308539
-0.0243276503003408
-0.0242243264801393
-0.0236864926366147
-0.0255196554963687
-0.0253353090621494
-0.0222125964385648
-0.0249529259027769
-0.0258657438058096
-0.0243527207235008
-0.0222023258548173
-0.0232809570174282
-0.0248554835036414
-0.0208534184339217
-0.0202284173828639
-0.0252716486154011
-0.023990488161179
-0.0226082015081615
-0.0220437678262092
-0.0215755508249652
-0.020226874445847
-0.0224882983413943
-0.0212480281476744
-0.0234088500285484
-0.0245961610044418
-0.024312446037439
-0.0237335267171123
-0.0233070603349977
-0.0220872240980348
-0.0229244395070236
-0.0214390925422778
-0.0245405933078554
-0.0229546923050607
-0.0235955933189475
-0.022743798255644
-0.0232969575236933
-0.0218133383863794
-0.0207985990487739
-0.0197706815936989
-0.021969575469457
-0.0200892298605398
-0.0210832655292932
-0.0223628778075594
-0.0224477823977763
-0.0209332965593131
-0.0214015358249788
-0.0211063358871958
-0.0229105235672489
-0.0219016470660093
-0.0198512628680873
-0.0205456722627166
-0.022390141022161
-0.022944988873166
-0.0226700890398182
-0.0224317398480109
-0.0231107038766287
-0.0234788634766662
-0.0218245376883528
-0.0207501335396754
-0.0224582577594098
-0.0228255133595549
-0.0230130631929795
-0.0213538892281724
-0.0216975779967337
-0.0218897969402747
-0.0217984901716294
-0.0210877554425498
-0.0214464014693783
-0.0205887319092973
-0.020928142884551
-0.0216787321644758
-0.0232803809867185
-0.0220655185122242
-0.0211148536329418
-0.0208582221072792
-0.0217034200802287
-0.0200680192678183
-0.0206207595609818
-0.0210289013458538
-0.0211831762223342
-0.0211406160210756
-0.0220617529549258
-0.0209024109499751
-0.019519197525466
-0.0206079989179739
-0.0207081750733313
-0.0201226989587693
-0.0196309334685636
-0.0207026191956926
-0.0214404083021498
-0.0192312428287329
-0.0199182051220727
-0.0199403359631847
-0.0189841849448438
-0.0176405570738403
-0.0178289717424172
-0.0169646758375117
-0.0165772931126567
-0.0174131547317677
-0.0182669273167087
-0.0174098517067096
-0.0168022723036584
-0.0179744319928525
-0.018647277280866
-0.0178703264085756
-0.0176665449756082
-0.0175984848593628
-0.0188724643035292
-0.01945706379972
-0.0184829156792492
-0.0177026474318247
-0.0181575441128025
-0.0168402485677483
-0.0169255239684992
-0.0164338043059087
-0.0154838412822586
-0.015693597772049
-0.0164150021530055
-0.0156791130189627
-0.0151104230534904
-0.0159766618658622
-0.0161696095557917
-0.0138502100386607
-0.014624926927581
-0.0140608009988408
-0.0126657338290869
-0.0128627195240475
-0.0137391395238797
-0.0129047351472494
-0.0134527837177735
-0.0155311281438546
-0.0128223061429358
-0.0116585700760234
-0.0139845324057355
-0.0119560088608009
-0.0119786025942459
-0.0131053029149194
-0.0139200636330088
-0.0124895762646086
-0.0150187757635535
-0.0151392798491837
-0.0150067175871163
-0.0147122514281721
-0.0145087421259398
-0.0145265679622657
-0.0165562436617757
-0.0167635018095383
-0.0187891847728091
-0.0198265576723737
-0.0195940792484021
-0.0223368697816117
-0.0241834531198517
-0.0239213075931404
-0.0251290868737256
-0.0280186458476077
-0.0302871927302933
-0.0294128569164841
-0.0321849386812394
-0.033465946514834
-0.0346010656677152
-0.0358103052125671
-0.0365098957137194
-0.0375952141424771
-0.0388900191998782
-0.0401526058741948
-0.0409332258225069
-0.0412566946324159
-0.0422461989649836
-0.0430627691417901
-0.0438163656101177
-0.0426585062502218
-0.0443384264821138
-0.0434327096638901
-0.0416000875363113
-0.0402599686503664
-0.0396453449110817
-0.0401037111178855
-0.0385150723001686
-0.0381155769873869
-0.0386194051657695
-0.0360635938806064
-0.0361829045366655
-0.0376608113752305
-0.035427695411389
-0.0333912375887525
-0.0358054833875774
-0.0337391287201337
-0.0323561082406946
-0.0349813834380172
-0.0353407703054832
-0.0334898651993047
-0.033613092783348
-0.0353042519356065
-0.0346998059688479
-0.0338080061615649
-0.0351423059060322
-0.0363717807509094
-0.0351065173406969
-0.03554172144558
-0.0373322414925746
-0.0348186571982581
-0.0370176968666448
-0.0385801682114027
-0.037370810589703
-0.0370043610958456
-0.0382548585185917
-0.03902970882092
-0.0366885441098226
-0.0360312296760112
-0.039469839927975
-0.0388672108252427
-0.0390727916352212
-0.0406064490454175
-0.0405371093994563
-0.0396147842706144
-0.0408147257651653
-0.041164573551665
-0.040514971144565
-0.0399298785507453
-0.0394743505679097
-0.0409446356470184
-0.0385244514022421
-0.0381637729429552
-0.0400464798101488
-0.0386707116919764
-0.0374111953493554
-0.0376985730062942
-0.0400614571207548
-0.0374793469853885
-0.0380758438873917
-0.0390850534232308
-0.0387393579936939
-0.0367668034121249
-0.0389795454802732
-0.040989890096843
-0.0396659860887648
-0.0406675586426271
-0.0436183012441527
-0.0421325132518571
-0.041336849100014
-0.0465836979334066
-0.0475235474538838
-0.0466146922547301
-0.0476756502936247
-0.0486134241967106
-0.0515895603626936
-0.0490262106954595
-0.0517910623249391
-0.0508510879356048
-0.0506186029506632
-0.048989778404762
-0.0507742201356549
-0.0502921245294563
-0.0465621943513121
-0.046408433834882
-0.0498409703517645
-0.0473234898117899
-0.0489407905442071
-0.0497089482664824
-0.0493352282675914
-0.050700698317382
-0.0518969789730369
-0.0533805312460576
-0.0520711356383811
-0.0515314791209639
-0.0545750732176806
-0.0545666747613654
-0.0553750726663006
-0.0562662678486947
-0.0572474399629689
-0.0567553147786133
-0.0576880721718441
-0.0602480332835734
-0.0572184961544142
-0.0611186006480253
-0.0621641206833751
-0.0616445880493423
-0.0630386231870855
-0.0632338960195278
-0.064173738332478
-0.063515412458019
-0.0647979664035833
-0.0680367369686753
-0.0697447762708545
-0.0659291488989832
-0.0687362672563717
-0.0707636954288081
-0.0711535386315837
-0.0725417105255655
-0.0757230813394983
-0.0766269629395148
-0.0781737004761082
-0.0781207433217732
-0.0812932005253011
-0.0819685203340879
-0.0820042158533585
-0.0874983964400693
-0.0874332450308476
-0.0846153271440976
-0.0889000868308704
-0.0906410033655501
-0.0908152154715308
-0.0931502080073164
-0.0946216126577527
-0.0973526331328623
-0.0981496617796967
-0.099338705490235
-0.103694207976131
-0.0988393590330151
-0.10118374836177
-0.103419184723349
-0.104097322489929
-0.105521954690195
-0.107684675056576
-0.105245040527325
-0.10555296744214
-0.109293042827004
-0.104737303563754
-0.106444989660169
-0.107847423084903
-0.111214547388535
-0.109485349238691
-0.10904569718554
-0.109062314291083
-0.109869692318072
-0.110674101092291
-0.109033575506517
-0.10833285355485
-0.108228510711042
-0.107185237739152
-0.105873633714385
-0.108867244337268
-0.10769524738086
-0.104937115624283
-0.10630226186954
-0.106797919183243
-0.104003139514877
-0.105933883067629
-0.10449837741969
-0.0980217184915043
-0.0984701654007678
-0.0979347036146036
-0.0969973052272389
-0.0940438738107666
-0.0934807480936396
-0.0909389468579708
-0.0881780837939218
-0.0873096060069307
-0.0853245294656559
-0.0827542962374216
-0.0811357843226894
-0.0787832716724952
-0.0771493580661471
-0.0754665006379776
-0.0703113589610571
-0.0694769672249022
-0.0683306667986748
-0.0627601316282697
-0.0622202866054411
-0.0606445774712788
-0.0588876420853649
-0.0544803782205101
-0.0532026605046381
-0.0551265716682242
-0.0502548932673891
-0.0498357906854271
-0.0487896397648569
-0.0467047645957667
-0.0438166906876157
-0.0443936588741334
-0.044064008235137
-0.0442210145589753
-0.0404070913351686
-0.0425800425426352
-0.0405678596122308
-0.0420680536566883
-0.0424966895594681
-0.039903219482822
-0.039041509059072
-0.0407534770076011
-0.0419879492410711
-0.0407101217771121
-0.0394097740348257
-0.041109617951231
-0.0393883210437208
-0.0384070439975952
-0.0403991339125032
-0.0422195784170193
-0.0420756697990691
-0.0422918044140523
-0.040957151531722
-0.0420559938818132
-0.0423891253713109
-0.0429675097829709
-0.0449002764718519
-0.0396531117307488
-0.0435966735905878
-0.0457883182222471
-0.0459156454476681
-0.0438570976812035
-0.0420179559326299
-0.0446829642317756
-0.0469902304137307
-0.0436777646841661
-0.0436732777398854
-0.0480789524249333
-0.043634266639985
-0.0434915534272344
-0.0450064353690519
-0.0444431105687452
-0.0407102136422899
-0.0429583227695869
-0.0428389660084783
-0.0435183590107606
-0.0418232586582105
-0.0424019083494073
-0.0433559475346383
-0.0406660174059067
-0.0408435079872614
-0.0438939356904664
-0.0385446225973132
-0.0418255185881621
-0.0418305000708513
-0.0427746380546245
-0.0402876777483691
-0.0386635452169875
-0.0382811581665411
-0.0368343695359938
-0.0357229642163556
-0.0401124215891646
-0.0381680241808702
-0.0376336414359839
-0.0392018101463233
-0.0408862292751632
-0.0346064965667105
-0.0419840958540061
-0.0442558667299805
-0.0401997902655452
-0.0450842555214933
-0.0403476145211043
-0.0434657962656285
-0.0433862448186551
-0.0421815313113092
-0.0433917305328622
-0.043626413993128
-0.0395320819894206
-0.0402988821042772
-0.0401404555857954
-0.0391994190271214
-0.0404460519005647
-0.0434689103469337
-0.0421602343713438
-0.0403051822613418
-0.0433618440917739
-0.0404228246589141
-0.0390868295172124
-0.0441319451177386
-0.041608507957755
-0.0369345766120634
-0.0376901078778218
-0.0427425525285511
-0.0394619214476477
-0.0386867432368396
-0.0414728584022792
-0.0406183662928126
-0.0449641686887953
-0.0400809190804052
-0.0384835762622272
-0.0393480301480851
-0.0415631319442349
-0.0449077137298017
-0.0390650809014774
-0.0410301097329514
-0.0365362282551513
-0.0358107951927602
-0.0429788786122588
-0.0395879329340319
-0.0415380820328888
-0.0447566070629659
-0.0454715373457912
-0.0443690472497929
-0.0456433149955865
-0.044246446023052
-0.0399189899131264
-0.0467558898298255
-0.0447939061902761
-0.0433937329668712
-0.0380216473176682
-0.0467361829805766
-0.0408899553410424
-0.0466557361662073
-0.0490538478450951
-0.0403953743117325
-0.0401712286722662
-0.0453779402051391
-0.045252921437465
-0.0411378605732409
-0.0455152461367048
-0.0417361176850598
-0.0422877024173526
-0.0390616446801853
-0.04094788797557
-0.0494906045052301
-0.0415329984237835
-0.0425803237740253
-0.0486801281162319
-0.0416369824754047
-0.037194203777722
-0.0404631020265034
-0.04370899174183
-0.0438411640493514
-0.0422977783194166
-0.0452801646811889
-0.0368331002085512
-0.0395225820266883
-0.0446617957083837
-0.048441731582615
-0.0352393125969036
-0.0402138898005324
-0.0470989941960498
-0.0401258783922158
-0.0413448734191121
-0.0430419033545356
-0.0407832341898835
-0.0385406974648977
-0.0424103482505266
-0.0433728586945406
-0.0383430850518775
-0.0381366957722441
-0.0432110708805726
-0.0481468082021652
-0.0411745689094254
-0.0375677993213418
-0.0405809607003749
-0.0402469014831916
-0.0371031008618579
-0.0467386121682881
-0.0363774166611619
-0.0353071074477209
-0.0466118865603788
-0.0497101783451813
-0.0316493017018574
-0.0445647971218493
-0.0554878651950479
-0.0394500007597825
-0.0395382878599504
-0.0434935001255186
-0.0370536758443654
-0.0388720744507431
-0.0485496737748539
-0.0556519072077163
-0.0458489288293849
-0.0429596522349875
-0.0482729182250202
-0.049244148444122
-0.0532329370538987
-0.0561481608348022
-0.055336727145377
-0.0479996319288005
-0.0521952732870987
-0.0583615639175901
-0.055002528149977
-0.0443677043693022
-0.0542131354076033
-0.0550597621365307
-0.0655874267967346
-0.0563246626388305
-0.0660931313777638
-0.0625016636144478
-0.0577218287701021
-0.0647217247079613
-0.0720724413352142
-0.065633347821762
-0.0645373883849299
-0.0713921353935659
-0.064673160380341
-0.0612480771018394
-0.0715519674118068
-0.0642363108617348
-0.059967111632839
-0.0568073995930158
-0.0680335364987566
-0.0643094047448126
-0.0466739622283001
-0.0603333641116668
-0.0738978653688206
-0.0538626601436173
-0.0539983109724875
-0.0709570028588511
-0.0554337329431312
-0.0614422910104162
-0.0716254671766019
-0.0730447405542417
-0.0711660135323304
-0.0573794915580184
-0.0602659904122396
-0.055521780854333
-0.0670848941817375
-0.0594913926118249
-0.0619276537579715
-0.0528027083011281
-0.0559643917292344
-0.0549029935377145
-0.0648298204600109
-0.0687915894692779
-0.0579852356435814
-0.0467589241760253
-0.0502920853162104
-0.0581098920872854
-0.0638915120955472
-0.0594941385584091
-0.0680120526223619
-0.0606207561320854
-0.0535762928118731
-0.0633924123489997
-0.0510229370424313
-0.0747732540387312
-0.0524867532612385
-0.0646725977208253
-0.0780017407122087
-0.0543906602195695
-0.056912241139934
-0.0572598922230987
-0.0987590728360939
-0.0921315660668233
-0.0704784240036732
-0.0616983506116328
-0.0477942522811854
-0.0654022816609177
-0.0714716681762671
-0.0684382065348139
-0.0658797974901542
-0.0930766716582072
-0.0805718944236724
-0.0620900929279694
-0.0831459673520927
-0.0689274090695916
-0.0807219618738064
-0.0876428537011196
-0.0787919650989348
-0.0551680153270195
-0.0851557168288229
-0.0420312002837839
-0.0719555054525583
-0.0986053371774839
-0.0924693339983075
-0.0664905074559031
-0.0760634056354957
-0.113202046036714
-0.0765072107739248
-0.0902500671374444
-0.0575212314733599
-0.0713202731699984
-0.0743532341980493
-0.0933392549499446
-0.0701787940098768
-0.0559100191358903
-0.0619995462786908
-0.0644905469287422
-0.0650011472626962
-0.0502995523632974
-0.0968971073467207
-0.0597014796791496
-0.108883661169254
-0.0697068638426582
-0.105423156170228
-0.0688988349941054
-0.0641334887260931
-0.104338958092741
-0.119898630596039
-0.077489951810847
-0.0551625624678232
-0.090311791033526
-0.0681144665358792
-0.120701366704567
-0.079529976846428
-0.0565270256870655
-0.0713531878169829
-0.106954553640298
-0.14815363762317
-0.0657101399266914
-0.139685473139595
-0.114075850568167
-0.174167183970352
-0.111243009536008
-0.450940713016152
-0.16217899154791
-0.0505830491651109
-0.159146717895293
-0.0659300342954395
-0.0463611187766441
-0.149194951000582
-0.130799948653452
-0.151384552570251
-0.0866181845161438
-0.065290601730174
-0.206752705770671
-0.0882015027243801
-0.0878063145366878
-0.128806420412338
-0.228702449103166
-0.029641796384577
-0.134598761223215
-0.22772786626241
-0.0107907755716209
