3596
4000.36533379555
650.420452594757
1
2
2
0.0680041389801077
0.0627855330432175
0.069616880162537
0.0561151735991581
0.0667823504823043
0.0546354049751087
0.0647197289831108
0.0516074814608768
0.0680179452508559
0.0598498318668519
0.0616509358639259
0.0553499220517387
0.061732203383178
0.0544882864018185
0.0705592111666832
0.0521973920063471
0.0657643178403655
0.0581792943101656
0.0594775879071921
0.0549420955161707
0.0637380920004212
0.0568502867543388
0.0710382238978925
0.0630847564971275
0.0630578078488157
0.066588654562688
0.0699316704979401
0.0569231157407433
0.0620577295036301
0.0636451186404001
0.0629094901184742
0.0532687603740199
0.0657601140532355
0.0528171317608751
0.0673906324213663
0.0550689751729804
0.0656182593259428
0.0519966333192574
0.0644824469496132
0.0653713096019022
0.0697320980851159
0.0555873382461961
0.0760524640216538
0.0596968455933465
0.0593361408118513
0.0581391971343142
0.0760947823721557
0.0572554493844894
0.0613771575442537
0.061285697237772
0.067360817092678
0.0610890113525127
0.0726188555015712
0.0679731586408053
0.0783358240475001
0.0773834178620787
0.0768098682325226
0.0568484292767056
0.068129218229491
0.0609577415386265
0.0867613310411426
0.0762181650532999
0.0718041531283869
0.0540035503305535
0.0657934386166383
0.0534341346718644
0.0717438696683729
0.0603656917219969
0.068046647087023
0.055388481967123
0.0734352838691808
0.0595943740813529
0.0899694255577456
0.0640106758804455
0.0747672852998186
0.0557711851286023
0.066400317148756
0.0547375949579921
0.0597942515760365
0.0591603929494696
0.0911588352007161
0.0590577689615439
0.0593639412128802
0.0499728324001446
0.0832570596781477
0.0686403462315536
0.0602425362797916
0.0602369923753057
0.0994679631840844
0.0696462316264827
0.0672500208235801
0.0470855415690018
0.0699881407246008
0.0507660580555106
0.0679302297543204
0.0479290006054095
0.0580780800977734
0.0517008653721399
0.0656528859389177
0.049921341631127
0.068968083660226
0.0799299310786318
0.104477254935474
0.0680856410907386
0.109516786231289
0.0835796735930583
0.0720358009145548
0.0994897827135568
0.094535194422213
0.0505678325560935
0.0712521136633853
0.0535168145129556
0.0781638737242118
0.054100080754102
0.0688905295865583
0.0797676696248339
0.101840830215264
0.06805148269942
0.0743540923759762
0.046918550852426
0.0590922145309326
0.0694098698462755
0.1160685685706
0.0649311671695592
0.0797354339520443
0.0589474746571153
0.0692752202522522
0.0889488239125501
0.112030502713954
0.0586387466816052
0.0548592891895443
0.0566014285389305
0.0545926532313359
0.0580930708984601
0.104452133086211
0.0709867615749638
0.0611924084298477
0.0421506793023932
0.0910818570255196
0.114263524512265
0.0889145154414993
0.0621042984456519
0.0544156510089726
0.0662818764121964
0.117356508822859
0.0670358731870537
0.059711249973583
0.0686452494801346
0.0823482826450407
0.0511013316095372
0.0594114348734999
0.0489440715972646
0.0840129554606141
0.0556154184063421
0.0445942056997726
0.0697830370637676
0.13905760469649
0.108762606181939
0.132507061004792
0.0817076216249859
0.0651108569194888
0.066298288802348
0.0604389522667069
0.0554804238174659
0.0600820909251646
0.0508792709539002
0.0784587532054895
0.0841913921688263
0.067263397157768
0.0708044254323595
0.105720435276747
0.0577543038205575
0.0662984679005366
0.109005696472393
0.0927631123743923
0.0488406668506708
0.105972235097888
0.0782170513416452
0.0502067482188514
0.0663632047441316
0.0900682770758618
0.0633442902654562
0.0631783768795053
0.0497168832879118
0.0732840056893358
0.0816726495383017
0.0740742564984963
0.0541588723430426
0.0660365328183947
0.043470756605104
0.0834309535399468
0.115373441336238
0.0945970298014001
0.069229830757398
0.0672185876044258
0.0405113156647405
0.0942735604501766
0.0967761680595842
0.066102039609917
0.0536228603237171
0.0580683065281891
0.0479636793991712
0.0606856554823524
0.0529550828825663
0.0477680859140711
0.0462951339264674
0.106712555940887
0.087577195959376
0.0614102507954486
0.0521760552286474
0.0586690158314317
0.0483953988455423
0.116752991899764
0.0945792867056701
0.0734912042179761
0.0616138919107317
0.0616532815864115
0.0789523232803396
0.0817111833433281
0.0550809582514111
0.061164436049767
0.0512380602772168
0.0586241932030728
0.0494395007994397
0.063366628008263
0.051356258607081
0.0604912551031097
0.0548311133651586
0.0607574184374056
0.0541067399749216
0.0656084195712673
0.0567794493229306
0.0628161947725064
0.0503970491234066
0.0546919248272958
0.0654655979883556
0.0877091371476525
0.054294273246569
0.0561685943322327
0.049183996867863
0.0522547677006967
0.0489640434809601
0.0585025705675719
0.0613717673562112
0.0566152481938949
0.0551060244156456
0.0896770238034107
0.0771190063163357
0.0559114642352322
0.0509112269328091
0.0744392021765191
0.0768907139566186
0.0624534573051962
0.0566210474115223
0.0627058843589253
0.0455666677732575
0.0609791460758784
0.0862378039881616
0.0756388534840511
0.0574395606291253
0.0747525995290257
0.0685698060121051
0.0672439986433564
0.0387207791975879
0.069956078337214
0.133675382574369
0.0884561597124319
0.0531726693970881
0.13625532365461
0.086017542317066
0.0848775265728814
0.0576252759972427
0.032614478551775
0.14636634845057
0.1528115924052
0.0657160659179199
0.0798915781263775
0.0669466032713545
0.0700808391264394
0.0718341341897712
0.0763410335660688
0.0675253056746768
0.114190400692242
0.129491435517152
0.107353675319176
0.0593663243737586
0.0985431605534125
0.0948402662395735
0.0720597059123691
0.0626355398530321
0.062340119976378
0.0503984423485509
0.0829994971840823
0.0808920073454045
0.0915739400344532
0.0614730072196567
0.0769470254016023
0.0769129430065791
0.0828432909788466
0.0598611726783347
0.0827106294690709
0.06684131672704
0.0657311353902483
0.0570742277288919
0.0633085199213294
0.0607380320196099
0.0640744629898981
0.0543389308516558
0.128783354711273
0.080970799619769
0.0718756242467931
0.0839299254781807
0.0786837835755436
0.0577254752488389
0.0647490963141224
0.0527053788397021
0.062746637558241
0.0529796364728383
0.0621602895853237
0.0822184305485495
0.0747686536998468
0.0509476745414265
0.0652207019105081
0.0467372052687707
0.0659828589590647
0.0564599172546742
0.0573169659426268
0.0572797432050433
0.0600235160374067
0.0450711147820251
0.0943003740751041
0.0831211400096372
0.060012434418985
0.0915820282640642
0.118307109468099
0.0713466468988128
0.0706362661661374
0.0533101361576494
0.0734970308497466
0.0625951731740264
0.0635613992552462
0.0535894527342916
0.0734338369675798
0.0766388874058258
0.0854344230534073
0.061362654300765
0.0824999615773685
0.144891776475707
0.145919819141026
0.0921716754436369
0.080924720182176
0.053242488783263
0.104719862640693
0.104601100531687
0.10748547353859
0.0990224912463438
0.0756410134909306
0.0677892168937516
0.0757723442971007
0.0670177217657449
0.0726896257036303
0.065707483308556
0.0799607082608527
0.0600965718107505
0.0794097105355543
0.0727774810084783
0.0747465185010356
0.0705656536608093
0.128238732423224
0.0889554783020833
0.0851530688949191
0.071049088719367
0.074997166883648
0.0933444853687111
0.130711449056883
0.128908040352993
0.132691481453749
0.112662089743096
0.146133526675718
0.102670379350532
0.0992960281034202
0.0794511401213556
0.0977441735506875
0.0893116658763974
0.0939553696698232
0.0847971565824288
0.103464786240289
0.0964827359817509
0.104629956399231
0.0920150350191911
0.101734832008937
0.0890635960833449
0.132421931956187
0.107465670327457
0.103521750946627
0.098035816977682
0.125708253274504
0.155931533727412
0.175834993425427
0.117403161249668
0.125985222716805
0.10784433526347
0.117580684667599
0.110456801338456
0.124274793720197
0.117071050723755
0.135922547885169
0.145619131721378
0.158213112263056
0.132161526374402
0.149929924439266
0.107884965426014
0.15432598522684
0.128461503009826
0.152467546047008
0.149162016270341
0.147734795618675
0.112186064535643
0.172882629062459
0.157031906280964
0.165560921755296
0.158522643085591
0.156673913822944
0.136625391995412
0.147900454879161
0.150094744644083
0.161198248462855
0.153057422884713
0.158301584093651
0.152396460487698
0.172930415498679
0.155205576942862
0.176596229702611
0.187530120664929
0.178104491583282
0.172320862355461
0.193826834940789
0.163015186500675
0.185179704499544
0.161606983203086
0.212125976783027
0.200748424772162
0.229887112624402
0.205908589522782
0.185262909521948
0.177671360764529
0.201624215250766
0.183166315391297
0.199857522045901
0.192194672851826
0.21815661047167
0.197499743109762
0.208267235347728
0.191777663036127
0.212145669409391
0.198237903782517
0.221021550404009
0.212848024343885
0.218244279780004
0.210092280014745
0.233222723004252
0.210458000934018
0.273767523840365
0.247920174266541
0.27220712093491
0.252297487651297
0.260806499408987
0.232968685044453
0.258080589515693
0.234467960597717
0.258775702440049
0.252253115268095
0.271890460814699
0.246216788231564
0.269271439720445
0.255209939028415
0.273444354288681
0.267456639909342
0.279114069824604
0.28407149585638
0.290665647958829
0.266225448114318
0.299688508946516
0.275717166576449
0.292671669307728
0.316060901864037
0.326696550984734
0.305047045641172
0.319045017647389
0.301284821196223
0.308433849933101
0.304316654403986
0.329818606980913
0.302515909149019
0.321019014979051
0.303526939144156
0.336560814327931
0.331624582513477
0.341401873512478
0.32821680654582
0.368453499562893
0.315321590705695
0.372764954437487
0.352628347785151
0.362856156100306
0.345831218603699
0.388370573820996
0.332847493886271
0.397934924062824
0.350831169776433
0.399020235565563
0.388601829993804
0.402082071022613
0.372819747921607
0.398447059142127
0.37578105442025
0.417218967154476
0.384589387017775
0.422381050345381
0.387440096244096
0.403051357671806
0.385082724277759
0.438906733253822
0.411106260808722
0.435383339975418
0.425791033955322
0.45247448816179
0.411429501524646
0.454121050482514
0.41481896959547
0.449725214391714
0.41986348228922
0.470212043789761
0.44805446699023
0.459823861358953
0.432593509960841
0.463085841359908
0.46914656634524
0.493095576403362
0.467435489849389
0.518983840158561
0.470963015958528
0.517842702497559
0.446827714024134
0.521805026711288
0.486394566982822
0.514698910152476
0.49512816828493
0.514901973931916
0.521515341886156
0.533634047525414
0.50073902776342
0.535087808101674
0.514066935993266
0.537616005636152
0.525525916845092
0.544635243610149
0.504678841960458
0.564865652117631
0.535817794123614
0.550150291856753
0.526559601988561
0.563473763694288
0.556586579361747
0.598291229802286
0.555461561680798
0.588834728422174
0.528204516386729
0.595247990144101
0.581232805815172
0.578294903242106
0.564133902433685
0.606001000842952
0.565628964283764
0.606043889340703
0.571609231147428
0.647620859919328
0.553601378066797
0.64028834065687
0.588700398717259
0.66656822206969
0.628334387288525
0.679347876151341
0.607632015476297
0.663293892562817
0.633472821860045
0.64530755993601
0.618951520723142
0.647306359190091
0.647883792584006
0.684904261003759
0.656026660389717
0.68831054691969
0.641772803459561
0.696298837816631
0.644766476783613
0.69044714328244
0.633908450065528
0.711842326868547
0.66719496284137
0.709913876677386
0.643916334601333
0.723616520582045
0.65053843213479
0.68357640567196
0.692187907131048
0.728926713439642
0.676034143418132
0.729279068956256
0.677420991513319
0.756728387856671
0.697620085575471
0.728532315020751
0.71645040598394
0.770922153017818
0.717579652197204
0.759664203134114
0.762071447417551
0.778609091412918
0.747579824031384
0.769369102779411
0.727246302468535
0.797486090867322
0.732925782999129
0.829035574342057
0.766331111946831
0.778236627884323
0.722777558399786
0.779029549047921
0.716832975891695
0.809187899907898
0.718720092768461
0.82049072244219
0.748737560674819
0.815386811143478
0.788346729448341
0.821107951312222
0.769021153302171
0.797688554521724
0.782316241272848
0.8137248078079
0.771000740134648
0.790116194089269
0.763606250868628
0.828092891573581
0.824797003433529
0.882153228995136
0.810626299413971
0.840859333128836
0.793752136406456
0.873459232192874
0.802029115548864
0.783676787670959
0.791637046627164
0.905804379318207
0.772157653626512
0.90567103237016
0.795625034369958
0.908128533925618
0.809570384587172
0.928244082201659
0.82701380191487
0.859358106075197
0.828052222281402
0.896406558019738
0.845169824950427
0.899300507900542
0.810756617159476
0.924938458227534
0.863970006524514
0.87514150449927
0.816986087500884
0.878744682731732
0.857818601272163
0.890114794428313
0.798553992816828
0.864205459921215
0.847651304360563
0.917089129999257
0.887491084157384
0.961103503620524
0.837894140653355
0.89827576061531
0.8562573939006
0.90146900265844
0.843880123476488
0.973703924237557
0.889932589713651
0.924589661439794
0.894770911766858
0.909627820873149
0.870693189945402
0.898973955897467
0.881841805842021
0.875558351632935
0.837483958472388
0.885081028471768
0.850266672744326
0.870251301122874
0.876929362865097
0.937257866375319
0.852478702371815
0.942076257175343
0.847404192009198
0.912781723752118
0.880853575962065
0.902243256333963
0.89195444471991
0.88639261144211
0.875812901442227
0.957976501685341
0.870012696024856
0.896509886404592
0.901351881916317
0.870655289898887
0.880770219291464
0.937564932800939
0.843802753470149
0.952935745002508
0.884662481208748
0.925923574918555
0.864165781768728
0.881952474113094
0.868684611424828
0.88257527880001
0.894492902903741
0.902640898387621
0.871212368327181
0.960531889251372
0.888535828877598
0.871620331923209
0.832383864335052
0.917703272316095
0.882054139442472
0.909807123924646
0.841682056678371
0.945023540568869
0.844232421785218
0.954047206872265
0.892225065438089
0.933010994795506
0.893066384124116
0.885199875086681
0.856861801731763
0.901002073035691
0.894815210796447
0.902319599280805
0.893176098010403
0.96358373245219
0.84689957983077
0.925698294861662
0.874828529506061
0.90085548981823
0.860933868274611
0.925124173532266
0.867301893738745
0.878853409927784
0.899431021149591
0.884758976338203
0.86833922743512
0.855501020172027
0.847004810861211
0.889735470910857
0.870893110269122
0.902861434029983
0.829367560366202
0.900040356114295
0.849860430123161
0.899007161143671
0.856129510001036
0.89856110285156
0.819562595016643
0.875221982883618
0.830858384992773
0.924420753309811
0.829774799579655
0.844989340743376
0.825460156895893
0.880522943330441
0.851745208733918
0.875647584495462
0.830559541331722
0.906364870566863
0.849637307218435
0.859778966617901
0.81491283806849
0.8764253034708
0.870290940664641
0.843987788234634
0.815840457667144
0.864285619844462
0.806746394831835
0.836511276637663
0.825587967292273
0.877862670340353
0.824863645265333
0.868068771625487
0.815288065854962
0.831239987464993
0.795763158582938
0.833725868102549
0.802770187387735
0.818187799866785
0.81060985294486
0.831471381759107
0.78578436348451
0.811550879696784
0.801008150350045
0.819158951566759
0.783307048729478
0.825796350196256
0.783027154177997
0.80679482156472
0.766306534660735
0.79365898051949
0.774800640350377
0.822819067855759
0.79690084593239
0.785929665379619
0.757887594016334
0.789936327290239
0.778693291175065
0.824678754264664
0.772492192785069
0.783811446119903
0.73552734005588
0.780618926977978
0.753813858399975
0.776898622267372
0.73747428637529
0.755387747232201
0.764881127899853
0.774529576632443
0.74115327103628
0.751659631383761
0.749532264647051
0.772346818255249
0.720655619239717
0.747600332851414
0.722654089449366
0.754841408383441
0.738324000635232
0.732893907070141
0.73917808692111
0.729551261308592
0.706590207020951
0.713102731404544
0.701422789657807
0.730432389714655
0.677904917169682
0.715179059747779
0.685653905908685
0.727457801936616
0.693118316001355
0.707255024110105
0.684592950946848
0.71578655821197
0.68163452621635
0.694649520672206
0.672812152008615
0.692702424699264
0.669276273517842
0.684475681961308
0.667684682813308
0.699221361694995
0.63697977590047
0.672510884409637
0.653237885833736
0.665031500882461
0.630728789955686
0.658701088746047
0.62917427434365
0.645314114144362
0.612991970736775
0.646929352384286
0.637950040237697
0.637262488991753
0.6109697079484
0.635469565046058
0.607088899727013
0.624705563532255
0.604324186661505
0.645664396728263
0.611174625539225
0.615939099356287
0.600566450347824
0.608179954357588
0.582577965697726
0.600457076166126
0.587311240051476
0.60034251052546
0.591375875970358
0.588695976415886
0.570263491694424
0.591441550265292
0.564021511746219
0.591688287105218
0.569979641199261
0.57722478702647
0.559620368350536
0.583462683901767
0.553931061048737
0.568824642220411
0.54244503375085
0.558745946145502
0.544675549848228
0.556726891685019
0.536699476515306
0.553049933199368
0.527576138873476
0.546051750599511
0.531395776787547
0.532108016194806
0.53164067623015
0.536065279146549
0.520179931757948
0.53142504327393
0.51204405359316
0.535687306797656
0.491130259526722
0.520280761863703
0.491608308921643
0.497101810947787
0.501491327749437
0.524968669943174
0.484356176348772
0.493564349783729
0.477718840423224
0.497649142975648
0.474663263079815
0.486662031096309
0.480072726961906
0.474599561943856
0.468265459050211
0.472105170913056
0.44668707649705
0.470753392956002
0.447922637108827
0.464178791518916
0.449503830087513
0.452777828238375
0.446529888893961
0.450264501503218
0.444228917117015
0.444308689581298
0.433622063852299
0.437564609440079
0.430607285031041
0.442604658544424
0.419877897455781
0.433348132867797
0.411391858497653
0.430718309300931
0.415625263300143
0.429156510148999
0.409073328867951
0.419670284641268
0.401268794732428
0.418966891943466
0.404566242457772
0.41134199538037
0.396134293917032
0.400707967504328
0.39666488194222
0.402977759888957
0.397870838109211
0.396385463740146
0.379857799631441
0.392681533178295
0.381884777389809
0.385826643409145
0.374616949292107
0.380838333441025
0.371761408979659
0.376151852700157
0.359538934169193
0.367728665911471
0.360919806590215
0.368121621564321
0.360459728841311
0.360490246472821
0.358575507837277
0.361083782394007
0.345664903257368
0.354716111097145
0.349688241496534
0.353078569697201
0.346568558923634
0.355860814847853
0.344048562385101
0.352601239264734
0.334762402573887
0.337565558759029
0.3342449073422
0.338323401336014
0.32437522986078
0.333019677848304
0.326169244917197
0.330444975774899
0.312654638798774
0.329259566143427
0.31764945101134
0.317652562949916
0.311194312032951
0.320832903026051
0.311603698623559
0.31312060338248
0.305718539613784
0.314225641512206
0.302632344481105
0.313555201835131
0.298418476526036
0.303116699589943
0.289761290277013
0.302462202873174
0.295472078878551
0.292809382572656
0.287696609105367
0.290215871744666
0.290410730047552
0.284799281492752
0.282767931475311
0.294088438319773
0.279456998494476
0.285351902995619
0.274998341435119
0.289620613991993
0.268331951089989
0.278086223792882
0.267571339554089
0.274398518159115
0.267835994622783
0.277582168738857
0.256201060582698
0.269505443080403
0.257847766373384
0.261160390601414
0.259231621009405
0.265656300916953
0.261002233752039
0.257472169233561
0.259258140811307
0.259957715265478
0.248409349587517
0.252544183025973
0.242399246876017
0.251896842954505
0.239900900954791
0.240421789403075
0.236648406444581
0.246157003784584
0.236758739134061
0.242890495440714
0.23621723478792
0.243665546757779
0.230383399141265
0.233512322349474
0.229012794907298
0.229495793957173
0.230474462886378
0.234423827960297
0.22976849826089
0.231446188107279
0.228121012443617
0.23339926390389
0.225658270282491
0.233702105292802
0.228556479565512
0.229498022794054
0.21634427400938
0.229428664000907
0.215002119793545
0.226443556809848
0.217867841946452
0.221230561377048
0.215023641541872
0.228457725464208
0.218044581285343
0.219982636969964
0.221176964079123
0.224098909091035
0.220889162904548
0.231130661155184
0.216315006966027
0.226782589475738
0.219814284953089
0.226922787631229
0.219113591983799
0.227647661052106
0.218562208158925
0.230315404494697
0.222518182545967
0.225589155265278
0.226638076627208
0.231519509469943
0.231244446584135
0.23428722102417
0.227588726584588
0.237855673339154
0.229679499624781
0.241339581664751
0.231516982959033
0.24337268702386
0.241180336720092
0.243325777651598
0.237996743677171
0.246754592138972
0.240727267991205
0.247203143038513
0.232026131044745
0.2516698215734
0.239087512823438
0.258201747716408
0.251395230770816
0.259436693753485
0.249847702638222
0.261374529715207
0.253517445365203
0.25667325045335
0.258557766258183
0.269696284720263
0.262412060203488
0.267573548716452
0.260004821728334
0.275687946666927
0.27166730837233
0.280675861353335
0.27530104656903
0.283392908287197
0.277144577802606
0.292468489629954
0.285454648963452
0.293303337647151
0.287815982095471
0.301214963982057
0.298667658130401
0.30242680921995
0.304426281861712
0.312372884845085
0.307552242334009
0.313795125397355
0.306093620205347
0.315680224342064
0.315694116296282
0.323838531074895
0.321124631706578
0.331079809374595
0.316713060889068
0.327595965153253
0.328928263247692
0.336246736232673
0.323495803828059
0.323890279353983
0.318867128806989
0.335503519168275
0.318636061745238
0.32539447053634
0.321559225189612
0.331895479418977
0.318214115706547
0.319773763587356
0.314107286724249
0.324154828785178
0.313786055532057
0.322205003591428
0.320030473341318
0.327223121810115
0.316529780107556
0.314436614819083
0.313399169278877
0.325255383407506
0.314186145908601
0.317823202128048
0.312249408668011
0.321595603274507
0.313614976475768
0.320482699612151
0.314299731966032
0.326606932474173
0.315772767710848
0.320009963044587
0.321567064110892
0.3248124936656
0.311778958127345
0.318025014315899
0.325979431542856
0.327210643939147
0.3214920754015
0.327001363309123
0.322941546655211
0.323023601887651
0.31561431726302
0.323751015724428
0.320268578572519
0.32149611496077
0.31168868025399
0.329603590820926
0.318385515373199
0.325549562115362
0.321657813792461
0.319862549088706
0.312183878920672
0.318672074809791
0.306208141013085
0.319801701803182
0.311293208830346
0.319422169011082
0.303552791615071
0.305448064223706
0.30264019002666
0.301910867282349
0.298255625553488
0.302386301462144
0.294429653091246
0.29910802527924
0.298068941816488
0.293008195297141
0.286586381630645
0.290812626793823
0.280856974707101
0.288124008778237
0.277737647954189
0.278573412111937
0.271254722260607
0.279112258980276
0.269422446250696
0.266347164930866
0.262635201053501
0.268464130439342
0.255516531136507
0.260712950197091
0.253014710372714
0.256895855195004
0.250155409705194
0.250675541199893
0.24408112120812
0.242238132391257
0.242333406513815
0.240562452884526
0.233087213718153
0.230202969488587
0.232182036859314
0.23469922980439
0.22592236944356
0.233001247000713
0.224281320884013
0.221182559474874
0.220553911565321
0.225592241635115
0.21813193080101
0.221360757005549
0.214394465014843
0.214153705269074
0.211568785416414
0.214462475515848
0.218821821451264
0.215076068233192
0.208164706698854
0.205502371708847
0.204782458829173
0.207215968669599
0.209152838839318
0.200700566362604
0.200376236733284
0.20232678488485
0.200183016846741
0.196953601988932
0.193477210681887
0.195889167203708
0.19122112935584
0.195035817308341
0.192371664555499
0.193895794371712
0.188517251064461
0.193898972056394
0.187777737784498
0.187439138463473
0.185813195615577
0.185780369495842
0.182828581773011
0.185230619231259
0.18161075662571
0.189357985857315
0.181309721038991
0.179572412059083
0.181041363846783
0.184327202579823
0.173117107754802
0.178111737685762
0.172285198562653
0.175363422392887
0.171614430351979
0.176915484844026
0.170788575332517
0.17042479108942
0.16778862710539
0.172988576619076
0.169324404302956
0.176750025139822
0.168743951876584
0.170494097691909
0.166550150080016
0.165111365628952
0.159450619862763
0.163585335373359
0.163261501235082
0.163429357601694
0.162871540279778
0.167022875246487
0.161689254849567
0.166620799550181
0.164729693086466
0.164382803525721
0.158623774709588
0.163107792745945
0.156062745567513
0.158719099085642
0.158620844035117
0.157754596281494
0.156185327034012
0.16106000284917
0.159395355932338
0.158302550901881
0.156162847987455
0.16088796175456
0.150313152858802
0.152651692904438
0.156911512510301
0.156695994415067
0.151981595969315
0.156503433651652
0.150675995963201
0.155861873022699
0.145380424905359
0.155766065655077
0.151686549884896
0.148481155692786
0.145473697046408
0.152816263312074
0.149426969031863
0.155409885422546
0.14826487669945
0.145786474350259
0.144062143854311
0.150685021490375
0.148363832129058
0.147689840011758
0.144394546210098
0.150845360096793
0.139965087103678
0.147159339664609
0.141438212933646
0.143424930904846
0.138940612151187
0.142618309307529
0.144033856922209
0.141771403388132
0.139452095211083
0.142418914057004
0.136952850721919
0.147555510375871
0.141062414496085
0.140822941106316
0.142164830252803
0.144159401913624
0.142789265059442
0.145463879380451
0.140173895440239
0.147166158692106
0.13920392456357
0.139531100712962
0.136747314500354
0.140261062611516
0.139464127102731
0.140557568595246
0.141457898753264
0.144043266579039
0.135649008623017
0.142291537807553
0.136015135072939
0.136386708460688
0.141625611016384
0.141927041805049
0.13814900785275
0.135871401004235
0.132976299175281
0.135824999617191
0.1355570598922
0.134788403855706
0.133010861514317
0.136462929034307
0.129256372502519
0.136561538602976
0.132078906678222
0.135192067698835
0.130726324976909
0.130547110188964
0.130270094483589
0.133086932961457
0.129232215250723
0.132825659498207
0.127172865795185
0.130339686476115
0.127022376436222
0.128710224294521
0.125543323104083
0.126561429836668
0.123438765515526
0.122892334182427
0.122210763639558
0.126338150721456
0.122091038860081
0.122217900543302
0.120051363556249
0.124379729191031
0.12102621655945
0.122335028838656
0.120231615893185
0.124766736356178
0.122593627183681
0.126933685057257
0.119460234828277
0.118774004480802
0.119036016324192
0.120924438354751
0.119521505062623
0.115455220352791
0.114553241375534
0.119005513630587
0.116793203615334
0.120219623220146
0.120332861224496
0.118339341092142
0.11238178774046
0.117162302054145
0.11440475262726
0.116580313210301
0.115099999655009
0.115397843213978
0.114832668138356
0.11775585372033
0.111673065263699
0.113212071594885
0.112188188142196
0.112853168413581
0.108716380885557
0.112730199032467
0.109753211920475
0.106702987546988
0.105662677276548
0.109263901660416
0.10753353532051
0.105896191152224
0.102961455385561
0.106494627234063
0.103813767513737
0.107374595125554
0.102197650546215
0.10683397166444
0.102950576317212
0.102810430833909
0.102262655879184
0.0999270865745578
0.0981940908469273
0.100899285206119
0.0982558554783475
0.103159442567729
0.0998161022639389
0.0981919234188688
0.0976190732922301
0.0995685166682621
0.0983262626957385
0.0973098705600607
0.0967104996081511
0.0956862957557297
0.0923771119957819
0.0944165563192729
0.0954395588936923
0.0931881180682895
0.0903242753678636
0.0929854165694727
0.0946068165780213
0.093593018326329
0.0894543592051697
0.0919518723707624
0.0895008868519165
0.0892031639313456
0.0914071758139292
0.0939067212193046
0.0908384513575166
0.0930280298483193
0.0917498423905455
0.0900958311688758
0.0869050718037521
0.0907091601689482
0.0889104569773534
0.0893593940594555
0.0899581295816652
0.0887375806864735
0.0842922073726176
0.0882135627403662
0.0888307198301707
0.0873954450945261
0.0853591611084361
0.0856467229982776
0.0865035346811543
0.0861853502162807
0.0867180179056244
0.0880531881110077
0.0850407195832783
0.0862114997567301
0.0876212879472893
0.0874942958607165
0.0855492721058757
0.084735043718205
0.0831803439669351
0.0814218532540294
0.0798621299757585
0.0817824407497789
0.081635664906466
0.0820091627540857
0.08145592916648
0.0801551793009554
0.0809571031220339
0.0820714164494585
0.0794722119220699
0.080710438338521
0.0782225568734301
0.079010979757512
0.076662942904503
0.0788678644154002
0.0778065459500863
0.0792360365173646
0.0756311667048607
0.0793554129408597
0.0791932730130447
0.0786928818041223
0.075132437616142
0.0757236830489722
0.0771629791221793
0.0778782660408299
0.077777322110074
0.0803359300517904
0.078634737280008
0.0788880399270244
0.0751721851896086
0.0754625133462907
0.0776531183904938
0.0752358247108277
0.0797315315624929
0.0804204331941605
0.0746220718745931
0.0764931404514264
0.0762322403737764
0.0767635914555289
0.0747594506640171
0.0738360945896451
0.0718375335868762
0.0749615941734944
0.0747739813660757
0.0782978083235085
0.0752449446318213
0.0780561400605614
0.0754036516002291
0.077365142792809
0.0762130736316727
0.0758565302212319
0.0755925886266206
0.0743967539420141
0.0731295080908359
0.0747198131804016
0.072870473242817
0.0730871323076235
0.072928927503414
0.0723340515782946
0.072871361691164
0.0722939797106387
0.0711462741390212
0.0730016882754385
0.0704458523068249
0.0729840469186109
0.0730476564485293
0.0719785391727693
0.0693613132621537
0.0716395427483059
0.0710548432892059
0.0713114446248798
0.0694142570548589
0.0692334145223757
0.0690916190675967
0.067519706814823
0.0676780123034948
0.0686979512547003
0.0692336115098013
0.0715565850040798
0.0686299502505807
0.06820719520336
0.0670101000908982
0.0688277479179222
0.0670640801199454
0.0663890654800557
0.0674882079801066
0.0678650604933559
0.0682471885902706
0.0689089343780544
0.0684338078671474
0.0669584809258291
0.0665982100672341
0.0680183575388877
0.0642385442413314
0.0681120044711438
0.0672996832801284
0.0670034518049786
0.067720140389066
0.067877015523161
0.0694693936700364
0.0684969880146139
0.0671171612103666
0.0673723800389014
0.0654152382115438
0.064713872757085
0.0653537312558257
0.0647258888491131
0.0653434371371638
0.0643687608271391
0.0648161240117318
0.0654623421941372
0.0631500905708253
0.0618706522257329
0.0663009385114228
0.0682400845986719
0.0661292808249839
0.0632123907583817
0.0643728570159972
0.0640979784522687
0.0644113222856825
0.0647972589534184
0.0610936154840131
0.0616991239084958
0.0627650004969979
0.0617587791303553
0.0586533580654711
0.0611720321759512
0.0639600159483926
0.0591669157963638
0.0591185879113722
0.0579429475317349
0.0593925992892371
0.0571428637046875
0.0561476571079352
0.0599686114595031
0.0599491127057064
0.0545388843608614
0.0575419732159284
0.0592429072408149
0.0557072760791675
0.057144714670076
0.0554333423487931
0.0552616320696334
0.0568466644126465
0.0572308586872751
0.0567020989265968
0.0569402400866761
0.0532795989648655
0.0548477345039259
0.0566820378986155
0.0565461482358507
0.0573986820709621
0.0560733600951547
0.0546385191676065
0.0572461952011512
0.0566634737579133
0.0529671876421385
0.0546426085354059
0.0554409799750555
0.0556510471893569
0.0528603843068563
0.0498705379795175
0.0530288420936023
0.0549262228053676
0.0543361615641373
0.0557425289734809
0.0545448144637121
0.053546613990812
0.0537967765140883
0.0529528748892532
0.0503693822041032
0.0531979646826891
0.0526901800026882
0.0526473116998728
0.0537879059225862
0.0518656218641368
0.0517379215182317
0.0510787373649108
0.0501780394565921
0.0510451218914995
0.0503729335134147
0.0483644145358172
0.0512748169530384
0.0503463853022033
0.0491969856057318
0.0468968173720416
0.0467286771790085
0.0476963197948007
0.0479254886485408
0.0489174699928057
0.048080445608637
0.0476948710216156
0.0485504885248713
0.0487004541162207
0.0463157637687361
0.0464431467404322
0.0490327127435769
0.0478237804028344
0.0458774118179388
0.0484482213759297
0.0472070391832805
0.0455927332273094
0.0460273415067956
0.0475972942205165
0.0462166974875959
0.0452317765341663
0.0458797010396914
0.0466007804987258
0.0476729125166039
0.0487679645053361
0.0478016954631231
0.0461234855807909
0.0443105146280806
0.0452696780845773
0.0444140820920712
0.0462417602869036
0.0460452995295104
0.046373144794727
0.0448170988575393
0.0460802473730851
0.046456685113261
0.0473177349188238
0.046182846811368
0.0456849752047412
0.0425085553012649
0.0456360145130213
0.0402073078008821
0.0436313450722281
0.0451423879544467
0.0404073106366253
0.0352024270524796
0.0299287961992111
0.0330750923821219
0.0338466741250084
0.0402432435268805
0.0458246723306046
0.0372103967255385
0.0350691900969063
0.0260894386685022
0.0305627050883388
0.0338250175136494
0.0294155787566212
0.0312628233634082
0.0317680950006945
0.028372908972172
0.0357836204629098
0.0292522758398374
0.0333897422366591
0.0306148070836366
0.032809589428329
0.0308565188040688
0.0327286447022166
0.0384811216556298
0.0420258490222433
0.0405732843875626
0.0449200071098402
0.0366165163159726
0.0368398542898229
0.032464673593992
0.0374671075049719
0.0302481077320292
0.0349650145146412
0.0314471778100077
0.0343117615249471
0.0315793466173729
0.0323070997039756
0.0286800654657883
0.0322648400556983
0.0271162847971195
0.0328809631831176
0.0279187621618944
0.0346502698378944
0.0339728919584769
0.0425902874684137
0.0322790905731509
0.0321374224027534
0.0291649009512556
0.0344844892642307
0.0385789563491007
0.0454781090454188
0.030990923755059
0.031561324383894
0.0383889299259803
0.0470182018469518
0.0357453220809223
0.0323757732460107
0.0428623026181489
0.0436687512818067
0.0447749186043121
0.0299983225123187
0.0466265874952078
0.0360749282328583
0.0451974014992974
0.0396309965219243
0.0494843664997431
0.0373172579012658
0.0447921104329846
0.038309645223886
0.042217190512136
0.0428001629635809
0.0393608818036583
0.0412859044010103
0.0407355082212112
0.0417367641142693
0.0397279787979382
0.0417703119557811
0.040776297416102
0.0374772682969923
0.0407132169654828
0.03938540881731
0.041373624006359
0.0392541511672544
0.038277814323445
0.0389937570109574
0.037345967361104
0.0383669173809449
0.0389670777680721
0.0380680655011496
0.0377909944755172
0.0377122401289275
0.0383247925477888
0.0369543052834259
0.039462663084267
0.0389688767427183
0.0378826346099484
0.0388568909532764
0.036381540840402
0.0354485265363408
0.0370274169900232
0.0369366080843812
0.0396948506040328
0.0405050138336599
0.0392857618323889
0.0389054645788579
0.03707896064546
0.0357567741355288
0.0380987322079166
0.0390106586437671
0.0385312205901039
0.0385682591550908
0.0401624985141603
0.0368576193968976
0.0389108248352516
0.0409477410533347
0.0377204713159025
0.0370827222210222
0.0394004392749445
0.038139451833219
0.0373329652789836
0.0394321577345037
0.0381924717775259
0.0396264129586808
0.0370620433489727
0.0378375895997498
0.0407402260304264
0.0387298496550328
0.0400746049905216
0.0403873983397684
0.0382504625115485
0.0363952319281486
0.0379510318468691
0.0391580655824976
0.0369464147443756
0.0374152892066719
0.0376296147459308
0.0355436709107998
0.0386518117779254
0.0387382474504383
0.0371404938719944
0.0348794465563586
0.0348828378515376
0.0381705127489983
0.0362533711573192
0.0395461642857637
0.0389424401383345
0.0368185025842911
0.0360536937582977
0.0382600073085249
0.0378788647719168
0.0378834670277459
0.0367752527963071
0.0369928295312073
0.0384938845201595
0.0366926207424254
0.037739870667183
0.038246902575697
0.037482433615978
0.0390396063416011
0.0370842350474202
0.0370030279479415
0.0361157678878273
0.0369838422416216
0.0389921106828304
0.0385823757678756
0.0387513301442623
0.0382229506923756
0.0379386169485437
0.0370833942348312
0.0395284275561513
0.0384815770985128
0.0381790497084014
0.0401222041488577
0.0384494055453017
0.0375321164331289
0.037788474384991
0.0377827848820301
0.0387785149031338
0.0380435470808487
0.0388224431898613
0.0406891530335701
0.0408302995200544
0.0422194633365179
0.0414622863863865
0.0378539904826838
0.0380471556895351
0.0397301523967126
0.0387336287356574
0.0398665104643285
0.0390213603537912
0.0396679274763927
0.0384490484060122
0.0417409309320682
0.0384577629055484
0.0363247383474815
0.0382103863120558
0.0392339131943759
0.0393106736449316
0.0394155290501748
0.0387656332465837
0.0381852903543648
0.0386108645821222
0.0395973678896395
0.0365631798413297
0.0366805173318226
0.0381225659778573
0.0386635717825512
0.0401511175857288
0.040259702573677
0.0386021136679551
0.0390083883982137
0.0400113431270223
0.0409658005997637
0.0368367832889958
0.0397428769765884
0.0386713186288115
0.0406526693597877
0.0390202273544145
0.0380664035852688
0.0366594286479979
0.0403757170260218
0.0406022765806379
0.0393046873957109
0.038948711146293
0.0389893760815074
0.040780416449486
0.0402041438785323
0.0400129940289253
0.0418277832002028
0.0383268006452318
0.0398716777163013
0.0389268175981546
0.0408967240851018
0.0387883559584557
0.039571352329816
0.0423677217875837
0.041699082368631
0.0403374052981126
0.0395671767366194
0.0414546304630341
0.041633401933675
0.0406746819587687
0.0414370756434432
0.0405423482291237
0.0417509978503102
0.0393567166652354
0.0414182171172402
0.040665386800686
0.0396210376675182
0.0395711307874517
0.0408800145445854
0.0380642638658578
0.0403729076115594
0.0401619505351219
0.0433541641754727
0.0404395353044871
0.0415556893271727
0.0384882669491708
0.0387257177580787
0.0386373914703671
0.0395535291924752
0.0374976375512515
0.0399856995780667
0.0386125624286066
0.0391941324568288
0.0382170827305196
0.0376768007496796
0.0392553098844731
0.0381329403151101
0.0373107366827139
0.0372712654387994
0.0374049979647426
0.038083551657319
0.0363304714987954
0.0372474254836662
0.0364374084329647
0.0388639126744382
0.0369014767076694
0.0376768802157643
0.0377562169440767
0.0397333999838932
0.0355559726488134
0.0374704292511363
0.0376417313355483
0.0381679311770432
0.0374878424948195
0.0385266610427457
0.036102816571865
0.0373830121795467
0.0384875367630223
0.037535661544241
0.035876106026687
0.0377534093227391
0.0368501862431331
0.0379744543088011
0.0362150592343361
0.0383880943455408
0.0354690391745641
0.0377915565651906
0.036393794740787
0.036751176887723
0.0387273382504898
0.0382909136883529
0.0347363207754844
0.0397309860453541
0.0372187871198934
0.0371643401388185
0.0378785140535209
0.0367752147833489
0.0355176713880951
0.0375862814014374
0.0375089532330741
0.0387670963078721
0.0335165957234801
0.0362339639453826
0.0351327815049588
0.0368767640838801
0.03381381339634
0.0360573420612582
0.0359881194387079
0.0366947249868478
0.0323006890470362
0.0376932127090493
0.0374198818277701
0.0356200152942663
0.0350890105617474
0.0368089943160599
0.0341393408623601
0.0349861558118725
0.0354832305527348
0.0365404131201973
0.0375593028188622
0.037268955027117
0.0350251242828099
0.0375194338852263
0.0355597264913739
0.0365927836208356
0.0345110514441761
0.0346486750671789
0.0330157561254067
0.0350213611811035
0.0367669563318635
0.036769683858106
0.0356255901554909
0.0367038875438931
0.0359918691046232
0.0362233089120856
0.0336290100052246
0.0338849887088526
0.0335098793345569
0.0366440275086947
0.0327398548966845
0.0344974726953001
0.0343697094292279
0.0377418994843568
0.0333463252246058
0.0352119728418691
0.0364049195094342
0.0357260395671904
0.0338649874320407
0.0355389393644472
0.0344759840065746
0.0362614703292868
0.0351303948435615
0.0348960077742209
0.0333819698072485
0.0349005942726597
0.0349255748048922
0.0357321687795549
0.0320705119586262
0.0331710636669497
0.0326596417337578
0.0356136563311398
0.031965068007039
0.0328943384972822
0.0333296440631764
0.0338454717638197
0.0328902946747154
0.0346054104792044
0.0315101251285137
0.0340330123418482
0.0336475660469685
0.0345678794965425
0.0376742379829947
0.0352036014098939
0.0334848506463003
0.0315750627315203
0.0308680947662272
0.0342267300599038
0.0316529278506834
0.0309226118148834
0.0296025205179539
0.0309408082667291
0.032196718876395
0.0323832791307249
0.0318039938410366
0.0306698521103701
0.0302685487626855
0.0306481044271113
0.0286308977022528
0.0299967592384652
0.0293663932789433
0.031546443777851
0.0307741565422596
0.0299104022977082
0.0328584465516129
0.0303813152020681
0.0323271860660236
0.0272814780364596
0.039103235102018
0.0408823091461153
0.0310949518869221
0.0343745226281452
0.0331548589013333
0.0344264302643258
0.0305598413844352
0.0328650934620246
0.0284381351676113
0.0302820864540678
0.0294987762684457
0.0322945264082959
0.0285666631291268
0.0298108608811466
0.0272108739219825
0.0309126858988734
0.0306184317811628
0.0313790451570221
0.0294683902474744
0.0298078102846438
0.0284672497501405
0.0305635826022222
0.0276624762962012
0.0303039066586447
0.0292992561020917
0.0294007042744524
0.0258523675021419
0.0397894771797192
0.033686311296775
0.0348079199996174
0.0272054748390703
0.0325409721895856
0.0263988986492268
0.032313095853196
0.0276713089051416
0.0286113630718844
0.0263140457069223
0.0317996281262495
0.0261342347759405
0.0277598353106297
0.0288943216651424
0.0313283768043135
0.0280899500067969
0.0296460378914249
0.0265530806102277
0.0297965271698138
0.024745485762426
0.0293075511576223
0.0242076301831335
0.0313788099851615
0.0270659299193224
0.0349122847495255
0.0245238837123303
0.0358622892321612
0.0490450121735
0.0331194583505524
0.0291275801444902
0.0289192024895593
0.0272974144393765
0.0274796562378014
0.0282448925201333
0.0262735711139113
0.0307399522439253
0.0254262275668595
0.0296495954600339
0.0271030785048606
0.0272800114850949
0.0281863678374595
0.0268126649127613
0.0283346020995969
0.0264645001067015
0.0248557819353089
0.0311869595589121
0.0266331082626413
0.0331555336319468
0.0430441983929343
0.0310398007036239
0.0331890326689102
0.0281350227456615
0.0221558378760593
0.0570930203306336
0.033650486510971
0.0334830296519063
0.0275385039520909
0.0299277071250104
0.0233391185135448
0.0301878417388789
0.0242922691713514
0.0301550895371099
0.0347930670976376
0.0307810441387279
0.036779726416005
0.0256573060482671
0.0285975861927698
0.0292851371298321
0.0286110276320517
0.0245472662143533
0.026497738728023
0.0271890160430577
0.025369526151393
0.0263943989463338
0.0253009946703631
0.0278104696317851
0.0236445861621824
0.0332776957893812
0.0309324179324437
0.0298637683847954
0.0266013532932209
0.0301259721669986
0.0229217322087518
0.0376439988185229
0.048379511518269
0.0257063279725231
0.0315653834700261
0.0238412920969307
0.0304167806450987
0.0253253567612118
0.0299291604412255
0.0248784229833903
0.0292443058597862
0.0225411644589958
0.0297648987198144
0.0265770565119281
0.0271821055048742
0.0228524451633854
0.0283269025250853
0.0232984282682783
0.0263788259781237
0.0261706716641228
0.0278310505956018
0.0274746856172765
0.026811360782229
0.0500906261677477
0.0481579700449941
0.0423509355926082
0.0402678850658035
0.0345907226371193
0.0283441511776068
0.0269838950588425
0.0273873271256227
0.0257934524785992
0.0301967966959733
0.0264350944440353
0.0288280447449107
0.0287028319071616
0.029082618119576
0.0234777181161172
0.0298110191232686
0.0252922125572714
0.0299600976426118
0.0241219390275689
0.0301268162260732
0.0241844391688557
0.0320700539607925
0.0185331818227461
0.0426546323641231
0.0270247819169046
0.0394748525538128
0.0108143971356022
0.0782458417098826
0.0444283110047036
0.0411619839058849
0.0317563073239205
0.0271273981600548
0.028800244445357
0.0250604257320093
0.0275930988850642
0.0367504505496573
0.0249947937655616
0.029564713897591
0.0259013689774555
0.0325149929017024
0.0301703980707932
0.0232846059951898
0.0416727684720858
0.0683747091689153
0.0332973221306919
0.0393057115799198
0.0187844100517809
0.0421733041786216
0.0576296422207172
0.029560593059884
0.0370137139286941
0.0285449945918454
0.029416262137724
0.0252956264425529
0.0282457311257336
0.0279084261576395
0.0366208126582692
0.0316528139262633
0.0275987470918829
0.0303313691374039
0.0247016013183052
0.0344327557889493
0.0262974434845787
0.0440519368101143
0.0424734921674585
0.0263713972093279
0.0377033427264746
0.0309577611619903
0.0280894997884048
0.029965437615507
0.031929810999769
0.0265185107369574
0.040680392060176
0.0449645045492463
0.0321592892104129
0.0485662195892938
0.0408734487062533
0.0272460613741916
0.0380233994001958
0.036197960930933
0.0489119138300155
0.0160079408534854
0.0528192370833642
0.0588297376232704
0.0501220352953013
0.0599130536186541
0.0277432349102745
0.0383734666743082
0.0259417073073538
0.0356133368684612
0.0194905169291796
0.0664923383529865
0.0193924988763051
0.0465850844180797
0.0142815360094924
0.0563689972327194
0.0380165348613459
0.0440348211221417
0.0304381181955538
0.0353678646738762
0.0249551661702634
0.0612024280162832
0.0315051348275841
0.0326739485683597
0.0675820026055436
0.0601471268131578
0.0713308832373125
0.0369838943474048
0.0308460572894833
0.082823679286167
0.0339016659645925
0.0463182397380819
0.0237126108078495
0.0435496601213816
0.0214732777152256
0.0447379821021299
0.0720860673061303
0.0401456279703761
0.0374362002953288
0.0442168263325136
0.0312222629437589
0.0722946235367888
0.0405904476186617
0.0447573551295133
0.0316417066426482
0.0493503860202956
0.0151571836111412
0.121942462047272
0.0387276509594451
0.0715414514807844
0.0608165859804183
0.0648288955415582
0.0557290919383485
0.0539955376195695
0.037534923922252
0.0624704699660008
0.0652878880303237
0.049412256125903
0.0289281294152416
0.0727686037660433
0.066174506710933
0.0414153013593079
0.0574036123244197
0.0376209755746117
0.0417765395387535
0.0869505939693
0.113328179229501
0.0870240388186116
0.0533197377323965
0.0547167440547055
0.0845705746484254
0.0504180986211194
0.0531396655900022
0.0474353824114221
0.0491810099472076
0.046725920179014
0.0479322855043664
0.0691794578292481
0.0461944238585841
0.0622668994611624
0.0453835517996855
0.0586606539530313
0.0771913973739085
0.123663664625718
0.101458335116664
0.0607815468121498
0.118688009122327
0.0810379277552092
0.079018457528162
0.0577760541650572
0.0610040454555542
0.0748289590097973
0.0644543189616584
0.0668184161388309
0.0524190861089844
0.104318375430926
0.0713490805088655
0.0916769585810067
0.0920963546340974
0.069420376597368
0.0757296908483409
0.0585392894178539
0.333060611624005
0.0803439671257102
0.118882558731876
0.0655186045059664
0.119466967727313
0.158240140789536
0.100992432475112
0.0837837348198038
0.0883744433124
0.0792505278429825
0.0954013771360309
0.0996674031150912
0.107954832258878
0.114796507883856
0.103435868000297
0.0868743720362556
0.143483372343969
0.18847778884736
0.188942322914434
0.133430615310207
0.118088551883348
0.14129462693627
0.143973220899277
0.114890446348576
0.13842465564998
0.109968298846381
0.153375824264001
0.192690673941177
0.140351818660352
0.14654495038609
0.140875366747629
0.189348953352741
0.120050765870874
0.251213370775259
0.171797608148489
0.180237592864761
0.14630452366066
0.17035837711199
0.156957639851461
0.163053727292092
0.213530027148313
0.185902130480737
0.182158818707536
0.180419848272022
0.183215974636455
0.180606350064656
0.184804705731145
0.191477471864639
0.181950290029866
0.251091163195919
0.196175212850853
0.451067627627376
0.213640294361243
0.212808172526911
0.196589673331203
0.204941744062412
0.244173819753898
0.215491349996099
0.275233161589328
0.227885054343473
0.199159302731954
0.203131367229761
0.19708099493041
0.209482232332164
0.194269113415048
0.217697734551446
0.179087646651778
0.259336621050155
0.178083553469137
0.283226852248569
0.272370911856076
0.220387505771519
0.203363743577878
0.208353980701447
0.193986681016266
0.209958756543872
0.188609598987149
0.214333368431851
0.227515569093636
0.197200323960881
0.211988454550684
0.186649257508645
0.246140994023308
0.223956448155266
0.199531087258314
0.205109636219358
0.18847662647485
0.210682663139581
0.174113590588924
0.218051710008481
0.259535191738657
0.20100699373757
0.197717098823461
0.188446809605706
0.193779662044462
0.20125823377077
0.193520048046872
0.203372800530977
0.19526330740391
0.193304092641081
0.202943237198476
0.188617376994442
0.195780126951234
0.186547539568191
0.204578208485068
0.191203772448139
0.204515045312252
0.195990980975965
0.190863445671512
0.189480675868839
0.195314225486537
0.195637817638111
0.188775620307216
0.201396878042323
0.201917516436807
0.187998178485781
0.202221256853994
0.196837695406904
0.194673445308784
0.19303583071953
0.194798259205303
0.194892137734406
0.190605528550443
0.187030182422785
0.189888205298846
0.185290509920579
0.190243642410507
0.186652827306953
0.188512498510314
0.187574485187834
0.182301704351269
0.192805536605313
0.164989153330556
0.295619910650631
0.195534046307339
0.190762374613164
0.177122796074869
0.175180661965125
0.174682691522942
0.157581966396576
0.240003931921401
0.191958389318372
0.168683092135432
0.158773625669978
0.157502643860489
0.178234017989782
0.165993680997916
0.14810457157816
0.166374739184351
0.125750999480297
0.241414320603918
0.1962667847137
0.256916242339217
0.243265365427986
0.172397929151737
0.137629669145249
0.167234116135391
0.19109161836635
0.130671960361543
0.148278527802039
0.118718054075011
0.201544590436132
0.146258197785767
0.132750265179714
0.128796983962057
0.11875118692101
0.162975448863055
0.169990983142473
0.133058753603944
0.166422329286853
0.168536521481148
0.141682580380857
0.185315870091487
0.218686527411944
0.165329800040386
0.121915737889374
0.132639103562372
0.119474759816745
0.129230131076211
0.193801627462755
0.122254561056155
0.144377230821746
0.107962173802813
0.114845634067883
0.114679837637626
0.144853183072565
0.12268149910202
0.121678192466239
0.168915371319618
0.0978877115204966
0.145844331577228
0.12176057469561
0.18594457305447
0.166140181182425
0.133189622988418
0.0943676696989908
0.160850334868158
0.15919731076724
0.11946596807714
0.137084717612694
0.0989080229306454
0.112476269360377
0.14046837021349
0.0980310164637922
0.138688089747431
0.1228321989731
0.144339807687508
0.181902722928905
0.19340343558617
0.184726179878678
0.119962291513754
0.0995063455473673
0.109076597946144
0.105864488654578
0.118498642608091
0.0866106560707124
0.155952409697757
0.107876829106503
0.115313167226434
0.174775077320391
0.120057815567169
0.112223646846794
0.112810546585602
0.107809805373068
0.125318229786397
0.152551165616275
0.181042864359522
0.132867373454599
0.141499857271375
0.152099025450297
0.127383701519108
0.131938193000646
0.125722424905763
0.134580638786906
0.13173853389204
0.155918508962611
0.144536783136301
0.141323510546189
0.150589759323345
0.144910507689841
0.190016642093121
0.19753118689287
0.155413932437324
0.222115223406719
0.182208788596738
0.256601460111159
0.190769771985834
0.185814167029494
0.184661691085767
0.184120668013185
0.195083489572952
0.182044207230486
0.208380527424049
0.241888912086755
0.192522208673623
0.215031112111486
0.197815990870605
0.216942064036747
0.201567980196236
0.267984646078758
0.223925486997202
0.315519978583543
0.267242812803657
0.254103433096926
0.231251471060022
0.216578053229821
0.241881071004228
0.229624334325931
0.226659369801754
0.228635139332556
0.230986066198325
0.267774745165062
0.227053885474718
0.238089476548114
0.229621410952013
0.238098460759195
0.236308740901225
0.24000774722052
0.24087317532924
0.240066708039966
0.245038664106214
0.244279996281543
0.248938205437512
0.365073949232145
0.263354453795527
0.266685957086758
0.257303143604723
0.272885764580327
0.261327995422041
0.265147377831025
0.291567356609446
0.281080791300567
0.273475165912036
0.27840673834085
0.272420594448797
0.282547412419499
0.291008354455083
0.325033463980658
0.266797802457352
0.304885874644906
0.26624723864769
0.355073470769622
0.332728615053793
0.309377989578003
0.314667003018975
0.296064187355089
0.300929907610357
0.295622363781711
0.295416532113936
0.298209901631263
0.300366752922604
0.297834078578901
0.301630477908539
0.291333259637895
0.29804483965473
0.294174320286452
0.296412920242257
0.331506114021631
0.294244015860168
0.299173767671618
0.289900536417315
0.299415505291104
0.283510261495747
0.331208592125956
0.305299775880856
0.304601952424612
0.299915802497833
0.303314974812629
0.321768168103875
0.312181599995134
0.282452819969194
0.29167393216807
0.286608042765161
0.298538697870062
0.284300030979505
0.307065113912745
0.326904036143952
0.30690253552383
0.300451851445552
0.297106712694428
0.297138207732144
0.29897843212695
0.300999944578334
0.299428600054797
0.311333916137665
0.309199098288107
0.313094648421264
0.306214637108422
0.311373805259137
0.3234659588951
0.331071945568522
0.326387607668827
0.306700717588254
0.311036554653353
0.300633098775649
0.307658336551647
0.315061519026094
0.30669473806074
0.293945344722632
0.296899230926142
0.293402472311938
0.290236363975467
0.334589580345523
0.293186329447567
0.299421539701132
0.281774697990287
0.274733156218553
0.2790946920358
0.274992031952058
0.267559650122588
0.271600525216743
0.274544850080523
0.262688312589007
0.264143757109124
0.260936324600281
0.258963200028448
0.260380932644378
0.261964400280691
0.2597705023263
0.258698498392423
0.25749957871612
0.260823498272304
0.259162262401317
0.252892034474931
0.258638776162594
0.253551984530466
0.274850937569958
0.273154983085993
0.276375199937731
0.262915373129809
0.264817970024595
0.261259870766273
0.252320600058709
0.25726108616714
0.251629463365649
0.25914921448777
0.253722175163487
0.256179571467474
0.250283416362816
0.254626666276738
0.251974113935459
0.256687922598326
0.248170047787661
0.250057932479598
0.250975727785841
0.253019174850284
0.246325528744634
0.258517638505317
0.252840707714863
0.263509525471324
0.25250802978203
0.255893237731954
0.253473169050848
0.252393679366754
0.251948658952381
0.254712975353137
0.258696285538094
0.252890108227073
0.253782333723147
0.24966628288702
0.251046772387079
0.250802318461067
0.248191420222119
0.249858224425673
0.248325668434015
0.246593768866125
0.246120202067388
0.245530710383152
0.241378315061449
0.241287198369326
0.238192017448398
0.233560953781303
0.234259645517477
0.231287200814667
0.229914608913415
0.226404149169655
0.223472999658153
0.223249858167467
0.21958935971068
0.221143831187564
0.219064503039019
0.214350309546493
0.21211155471358
0.216355869290502
0.21553029729252
0.212353627902062
0.211915614690879
0.207536866636634
0.206498699420425
0.20903828583626
0.207941512641487
0.209651193425246
0.209578656105871
0.212506426042215
0.205968187398116
0.209742305509948
0.210774281313916
0.214406363830679
0.211850633211266
0.215720094024847
0.216878645301863
0.219093982809279
0.217432913494671
0.218992250080023
0.220169779307741
0.217560712123323
0.221185278226378
0.227256779223299
0.224501237557043
0.224478446949297
0.224340653664027
0.227216962389756
0.228592989415982
0.229236416625339
0.226875107356288
0.226712844643396
0.225260720613564
0.22656241043023
0.225732554642183
0.226691552133441
0.225374603215414
0.225085124846738
0.22393265366182
0.223358017952239
0.219762602887363
0.225342472025519
0.221575063537197
0.220256475713466
0.217421189142908
0.219912924251004
0.217649643947316
0.217371036965624
0.216094099619244
0.216919030214301
0.214992579348561
0.215294024284117
0.214270254999844
0.212853038166004
0.212946512479497
0.210239562532291
0.210511558287352
0.211922925028415
0.210469727776634
0.208242873111671
0.206449055162747
0.207842446525573
0.206250032779772
0.206002398655628
0.206724353736029
0.205385262862212
0.206176472421471
0.203588264353902
0.200670983276781
0.203128760415475
0.201287880841932
0.200723443125419
0.200554376367361
0.200213099209067
0.1976502364768
0.197278543054825
0.196679801829777
0.195944493378718
0.192866601947145
0.192496125082503
0.191310162787957
0.188167068498665
0.186385112002788
0.185908218129129
0.18592649208227
0.184635988443913
0.182611457263147
0.183213552932884
0.18468734331479
0.182333787146318
0.181269989337018
0.181348469058746
0.180687339664684
0.182481513980033
0.181123051148489
0.183604788464192
0.178663630872781
0.179659768151741
0.1767200566991
0.175413576029194
0.172547334233647
0.17251731824185
0.167244413864148
0.166048710907442
0.165800077712077
0.164565029033631
0.16302637916055
0.164101656689464
0.160902988303612
0.160374946009952
0.163831444674563
0.1666007810547
0.170511324828236
0.17681379628876
0.181912184060089
0.187268855718579
0.191637191557817
0.202350981053644
0.211519361240832
0.219370036144614
0.227597279178577
0.241439077821501
0.250277685546841
0.25991941342078
0.267371956399617
0.278486109066185
0.289167972757671
0.298489580782313
0.307178350945372
0.316485306840276
0.323641279287152
0.336972826908048
0.342580790985761
0.351969392383713
0.358053536594259
0.368473694551586
0.374762744100354
0.383426796757114
0.385993755505212
0.391343702749981
0.400265775464066
0.406801267857086
0.413070172123789
0.415006411032551
0.416530841893553
0.419333974664505
0.422868417312563
0.422127670856975
0.423595628638494
0.42263139776508
0.421703944648953
0.422987473982735
0.424443378961852
0.426199302609722
0.425947206645937
0.427733481591937
0.430721597553152
0.431083798424767
0.42789146298027
0.430724228344128
0.435993631937516
0.437905351048143
0.441697463573986
0.442887167610024
0.444474557223217
0.456472877480865
0.461034585471477
0.458747771518644
0.4664586845523
0.47115592157392
0.479956442258692
0.487473225855706
0.48890898811582
0.499120936975227
0.507804548404717
0.514920177487567
0.522722633185908
0.52819737517377
0.537599623412007
0.545196984049709
0.55075166470476
0.550740636031794
0.55413210374459
0.552355936412748
0.556528531597986
0.559530112609652
0.560404092427795
0.561863076914709
0.554648278753885
0.551881687293832
0.553600943236192
0.54662104824027
0.549028098559874
0.551877353162441
0.54440597630834
0.554538565527336
0.558524811022564
0.561433168502429
0.576731399555007
0.581969845690082
0.589776713963304
0.602014884201157
0.612854937333535
0.622199687340546
0.635099419751815
0.643931108758322
0.655314218119334
0.667034380926442
0.674626672718571
0.687433247472306
0.692842417095568
0.69902701041675
0.715288943506144
0.728349414671414
0.739935224051568
0.749393030017027
0.761154771702356
0.784027640559864
0.798049541151549
0.811731454321577
0.835132980418203
0.845158680743047
0.862023278976191
0.868199930262571
0.877999302102391
0.894935989817567
0.905846173700896
0.915980469817133
0.921154496544535
0.920420271113799
0.942387703602254
0.951628872409228
0.963204885765606
0.959469449430598
0.961528041584513
0.9644848390652
0.956208403517272
0.94844573585545
0.951930470755591
0.951725870619164
0.95199956436134
0.936945860320655
0.926599666351028
0.931968533221196
0.920402758634376
0.937699945376892
0.950120553167156
0.935013296204147
0.947968158519202
0.939921742911373
0.955753309552503
0.944700372386811
0.97282544205059
0.981871872142147
0.975237310842658
0.986418466115109
1.00079452799171
1.00770433556453
1.01629828853804
1.03054898350921
1.03959913709915
1.03926194409697
1.06062655716553
1.06897220408205
1.07420840866835
1.0514478153797
1.0819104979557
1.10595334099111
1.07401378446515
1.07938768379234
1.08819210256139
1.08660322019295
1.06813758727965
1.09217777059923
1.07590193934149
1.07817948186557
1.09239796445197
1.0870173141869
1.07657787214845
1.07566816756854
1.09436759258391
1.07605315929338
1.0756031803218
1.06847453882162
1.06701429304235
1.06746221988681
1.03895419585997
1.04650891031394
1.03620929375335
0.994692829621388
0.995100621672329
0.963074658188197
0.951202344188689
0.925890803526465
0.886117754769527
0.853372085754537
0.821333452558469
0.779482082284688
0.756277543727653
0.727080870668002
0.687675290670278
0.656394204494145
0.631439417861548
0.61041996923323
0.592112515180581
0.581387285716345
0.57011878107578
0.557016488735275
0.549347452986576
0.545935861736239
0.537665897701804
0.530677526327158
0.525202971134652
0.516882097523508
0.510670412102045
0.502626906131292
0.48789674035382
0.485663242570019
0.482558131907679
0.46188791832974
0.449034675098977
0.436716215245477
0.428561872857726
0.413667394724628
0.39609869132604
0.385566142845171
0.367341789535314
0.349135606683504
0.335444603452746
0.317094954894039
0.303330398550816
0.288404993628242
0.272415869774159
0.261066336530271
0.242017771710354
0.228220226844726
0.218547629398532
0.207345119511309
0.196781930760386
0.181843469520848
0.176249428846884
0.170514837008422
0.160845065966553
0.153349600560049
0.149103803497809
0.146890254105775
0.142703205827017
0.13842342798934
0.136338577411343
0.132991198897772
0.128859909948703
0.130050225567774
0.126094982836175
0.126702260995576
0.12626136999704
0.124530731387516
0.127166851678609
0.129571677196071
0.128767283752903
0.128708396178942
0.129360438371212
0.130377327670835
0.130465973610851
0.132541868401503
0.139947414932942
0.139680986259836
0.135486010551928
0.13655466934337
0.137155234970457
0.134742634398217
0.133146241214147
0.131784290271362
0.132497879114489
0.128115719255695
0.129166273158332
0.127115237236971
0.126565107751436
0.124798951068108
0.125378919337418
0.127501723968565
0.127535695796145
0.125195312793931
0.12631687435136
0.132140138797541
0.133236068546337
0.133956711121666
0.137921502994154
0.134363585955203
0.132903006608478
0.139662010392025
0.141082957374355
0.138209809807785
0.144438268541223
0.146777309694738
0.145502517313773
0.145902261170645
0.147724025640522
0.148737209135792
0.147498569553579
0.15339137932539
0.150398178715593
0.150455021656871
0.148886539967834
0.149933206462058
0.153445815263855
0.153029588876304
0.158757463946499
0.159721899980738
0.156662856505332
0.159333535231651
0.168019727050837
0.170130663580094
0.173860219328664
0.185948088233534
0.188206086273505
0.188755316812298
0.199237036664232
0.196887000745748
0.205664973264126
0.215754866248029
0.21669323631431
0.217788420710594
0.223217193398342
0.220786337485223
0.221773806649686
0.218443063855013
0.217781374434839
0.213354316290943
0.204515445535275
0.198468873802848
0.196481001225501
0.188074605918682
0.188857455964233
0.192684600517573
0.190821756250424
0.188503856072917
0.188964807219596
0.188923944527859
0.19126723891537
0.188567647504477
0.192871401199231
0.190762720126255
0.186206875585189
0.184546190342328
0.183127550568282
0.181087881618424
0.182070524217549
0.17755252006935
0.171112293077182
0.17095648891278
0.173453648652873
0.169199957107827
0.166380635663768
0.166590687793054
0.165785003933527
0.1632962519059
0.159229479549007
0.151120593458272
0.15414283604725
0.150742298370688
0.152472982696004
0.156799462568039
0.156183333962201
0.146149434911004
0.148600986146315
0.15375605625124
0.153104471747685
0.149785568245663
0.153473863685539
0.141625256992921
0.150615493630413
0.15185969138149
0.142917717255196
0.137238097706866
0.136573662359281
0.137754718275336
0.141368527412836
0.134380498248419
0.131419734845596
0.135197221041874
0.134684330762601
0.12893629810593
0.132463182655305
0.128392907422742
0.121758316894409
0.126012823771805
0.132050969125277
0.121237085906924
0.124599161135195
0.120679174938125
0.116388468022933
0.116682577469824
0.12961081707776
0.126732496405379
0.122610918828016
0.127702959842443
0.13414209744969
0.128442094784166
0.128770766821182
0.128296388616577
0.126528845840074
0.129155476582677
0.135768104072748
0.128701327358107
0.1295845218983
0.135148518579383
0.144590101499079
0.142734146127775
0.141745847748722
0.131848601063415
0.141118477052169
0.144854138303695
0.147027569774541
0.147763494875565
0.158881896700568
0.14529489953175
0.156552208732164
0.164636759012324
0.157900643034311
0.157432354882768
0.173594857106262
0.171327006541605
0.170832121609055
0.185900408864224
0.187672910705043
0.184461001825003
0.20851935823483
0.20956840234438
0.213539685102582
0.211972997693016
0.223540974157357
0.224076094225007
0.233151605827563
0.247674289602471
0.261068648153496
0.267726439122813
0.264481075158524
0.271750961026546
0.272761502504638
0.260826988728454
0.272471512888769
0.28013402498849
0.273430627356451
0.268188454319689
0.247194033443445
0.263031717255838
0.252827941294792
0.243326022887156
0.262737430422625
0.25276317473699
0.253769027281002
0.248250380107719
0.253277001165533
0.24561150803392
0.25069215197287
0.257897090456167
0.239455857317507
0.250507144544974
0.249274054629813
0.247016590266495
0.23730367035313
0.223498875750986
0.250191371946897
0.227300774201675
0.211433809780065
0.231490229174291
0.228689237031717
0.216478755996957
0.234034912131847
0.203618641030082
0.211673339173969
0.220356797120213
0.202054554114461
0.211016709932379
0.211470864036492
0.202754162659788
0.211263688059188
0.211392916518556
0.201877592699598
0.213430364690557
0.23012973676587
0.217090059855778
0.218069337440064
0.21775876973111
0.224796320097052
0.244316019023098
0.223754137184124
0.235662323315447
0.225405699078096
0.212085072485293
0.218429178495849
0.214254556160442
0.226059216311516
0.204265179008991
0.230235086185878
0.213278402126632
0.239108414364103
0.239746423288592
0.217259641060276
0.227359152265398
0.227669964378935
0.225851248787217
0.226550656385324
0.209081738552708
0.232136253556498
0.244645299952023
0.271657276920732
0.258588249741595
0.218990445278585
0.236111622391203
0.25622924212611
0.245770825114951
0.282333524359072
0.310820959444943
0.297625518617043
0.303431039799392
0.257211452168972
0.244668949610379
0.315190292693302
0.334013088695942
0.317895615430173
0.336531431399185
0.291951612046946
0.309128465213818
0.335384760503184
0.347136761376171
0.30101526609135
0.294686732464697
0.352731325552998
0.3358098793776
0.300524517655422
0.288222472334118
0.338666367526788
0.33109814158844
0.290666173977864
0.297424760501803
0.292521200535774
0.280560728741897
0.27312773756416
0.411682069454744
0.34989995172978
0.305805167957606
0.312044470809611
0.289808624661963
0.228509351686147
0.295178621385124
0.265326348498204
0.288340630586619
0.287837903233515
0.302378678378792
0.253533409528868
0.237875313398142
0.294567106388436
0.28250426580652
0.251982430038711
0.277831894925184
0.245699831464073
0.289151828995942
0.260796242072357
0.340618545568536
0.274026978738991
0.341248734523266
0.258300585123282
0.303945175381094
0.0425291606225958
0.171444001840676
0.350916642244211
0.282267473075104
0.294439672711102
0.27663934953026
0.230937409300758
0.317688792667442
0.463638487446332
0.270198137400817
0.291286231066402
0.261180697051453
0.166244124551403
0.517581136115384
0.281701483534665
0.137216936786834
0.820268783533133
0.334290883407848
-0.0177547510047009
0.527852190147846
