3596
4000.36533379555
650.420452594757
1
2
2
0.0772173430454707
0.0699326552781502
0.0779553575189662
0.0739748128536443
0.0754760873637372
0.0672897713663497
0.0801729061729388
0.0706230170891027
0.0770213216007697
0.071578429846098
0.0727484459351133
0.066578703773528
0.0736026389657722
0.0644843912840263
0.0775708436427432
0.0654432017502423
0.0725226699776368
0.068359626898736
0.0709987844477403
0.0683332975711217
0.0782975994619763
0.07328537362136
0.0759880228297752
0.072758905053044
0.0751316076535737
0.0709955823823583
0.0745838634002878
0.0672713727964302
0.0821628586517702
0.0671544721103183
0.0691397516188538
0.0694846553013859
0.0769914517669196
0.0582779426780526
0.0699710212170576
0.0708130595251521
0.0762498103147157
0.0653161459980825
0.0720342217912419
0.0750712593446463
0.0771005899255733
0.0691796936307552
0.0819366602683148
0.0663678392746618
0.0769086401909376
0.069296899363993
0.08064073700025
0.068371903684578
0.0720348921169564
0.0738216278597624
0.0711190924601621
0.0675994402262213
0.079297995024083
0.0742863833356292
0.0842782323994876
0.0856543053818245
0.0859071365084076
0.0669554421239814
0.0739426921727779
0.0657384727088839
0.0918344855962927
0.088589826982859
0.0771475937546187
0.061160084383219
0.0828406941630646
0.069743294629656
0.078811687069086
0.0696250129548132
0.0757935184322808
0.0624107812540253
0.0757199698038265
0.0657432529651499
0.0958477306513442
0.067906175887577
0.0912973624915135
0.0725397118715881
0.0736535691333352
0.0616937460572222
0.0687429316279473
0.0701918567815822
0.0927499294336979
0.0676977517647007
0.0764408804429518
0.0553920692116483
0.087250592885127
0.0818383425187535
0.0736885759201128
0.0644183129322978
0.107500389542434
0.072766090999172
0.0779533704045116
0.0571480840652299
0.0785658788826221
0.0568343144049788
0.0749970004465766
0.0587421254034353
0.0739975269120388
0.0603868999082346
0.0678430821190431
0.0637631471487537
0.0852421998503389
0.0906802773219434
0.116102078427954
0.084459496051255
0.109768629057762
0.0918637582355919
0.0760492250691699
0.115263533611719
0.103116118846661
0.0626594326084635
0.0775376093062192
0.0602113273018891
0.0839259078020392
0.0620648330774649
0.0775782321222121
0.0867546806127663
0.116921388928346
0.0720811640092127
0.0823886527814024
0.053652284647861
0.0722214893877572
0.0849891753035069
0.130483844137932
0.0713968675935154
0.0895994825014174
0.0680652562954623
0.0702428437883188
0.0854828595916606
0.10911823106323
0.071649716800414
0.06813543228606
0.0547299309593189
0.0660886751566511
0.0669687601033352
0.114586432464719
0.0834768046070299
0.0707756293968489
0.058835645651425
0.0981579756929402
0.116192763545266
0.0862644235836085
0.0677221618245047
0.0669134180615851
0.071782851105771
0.124741746757279
0.0770692687887482
0.071172269986251
0.0854571624231862
0.0908110099790081
0.062208884626591
0.0657051572386189
0.0586055775825015
0.0874882003406044
0.0594578391042984
0.0601919295563104
0.0743577496334815
0.151107335754915
0.0963100637347447
0.129861161274445
0.0885981853724836
0.0723525191010915
0.0769871335259243
0.0637350079552549
0.0653487998265938
0.0670460647250357
0.0585253641036817
0.0861574363117899
0.0931294366945153
0.0721546556336001
0.0722218930535047
0.11084595883868
0.0739785642075071
0.0729520700302255
0.107018442005985
0.10505555717279
0.0590764992727726
0.111761185254156
0.0886752724251021
0.0634299115364015
0.0792337539537702
0.102088832752956
0.0695952839765174
0.0745477467798452
0.0627174159508929
0.0800195821391554
0.0886008999083068
0.0841563604060599
0.06221887865411
0.0696253443197877
0.0509448261719654
0.0890024037558558
0.120408382588828
0.114641982399488
0.0749133512341802
0.0646050875783293
0.050340200472275
0.10863530386631
0.114342215317118
0.068717703332789
0.060848458655186
0.0708274691786428
0.0590022910919981
0.0697986077391155
0.0620870892952883
0.0578745543306793
0.0550231223664538
0.109309685088988
0.0908414358936211
0.0659659190026263
0.0605660785258101
0.0728614147294894
0.0713564903995985
0.116602442588151
0.106354383013337
0.0736642509070799
0.06721378068174
0.0716998292431194
0.0879556406663559
0.0933295088598849
0.0625480372183096
0.0655194708497953
0.0626482707645056
0.0653874169495974
0.0585318547287002
0.0727091455598747
0.0638883901643975
0.0683351767434528
0.0624547587464045
0.0676775257961142
0.0644401882095621
0.0767625474035659
0.0726175479863102
0.0693300615681801
0.0613497506001816
0.0675118793093656
0.0704569159001264
0.0959994989983915
0.064262678318751
0.0672276001629101
0.0613326069252218
0.0655015334005717
0.0602513364451341
0.0647900831801046
0.070181829637762
0.0616467698755953
0.0687433355941689
0.103132124578173
0.087643968312395
0.0648029799081204
0.0616826985486895
0.0829202878290841
0.0874505259889337
0.0659236971079598
0.0719063194530966
0.0702063865294551
0.0559095224193001
0.0678761843198804
0.0872939522595511
0.0831751832917735
0.0678408806455518
0.0864939263874941
0.080399281697585
0.0718582606749235
0.0557895183556734
0.0759617745301984
0.121571912041234
0.101917026679588
0.0688858801394948
0.133401695201204
0.0963821542158086
0.0876456915758795
0.0639212265430192
0.0398925348522454
0.154662319305712
0.152519145926095
0.0726997730588555
0.0852054839623366
0.0750802953991952
0.0785357975741332
0.0759268956515416
0.0955206020981912
0.0776072560674436
0.120602684219471
0.147210155101033
0.123078744686228
0.0743636231647748
0.0889433021731794
0.0972715836342099
0.0791768914199586
0.0702553798865958
0.0722148744690742
0.074522254758157
0.0914634456592459
0.0897846495647212
0.100584594759855
0.0728297573436967
0.0949264787610997
0.0989158281870023
0.0848743598710361
0.067610286587107
0.0875107336255547
0.0763836396501722
0.0738617021223172
0.0655102526850652
0.0790222253171586
0.0737473115284618
0.0723878092087121
0.0686349273400941
0.135314980923863
0.0926947195361637
0.08675422039746
0.0968068812953225
0.0916341978061975
0.0677170602174622
0.0812574869003076
0.0695070062689178
0.072619555113554
0.0613233057620722
0.0743638950534063
0.094590227842651
0.09627356855684
0.0640367379687891
0.0749392116089633
0.0639473000695057
0.0807939453405473
0.0710392535308149
0.0723661643745141
0.0709867098710906
0.0785707294791475
0.0615088405078244
0.102703716586195
0.0954369196100849
0.0833552265152193
0.109387917674265
0.126108933183393
0.0813042916780397
0.08846659361944
0.0673297882216659
0.0863590733130267
0.077850185666727
0.0779069858666496
0.0697602434738244
0.0885619466493175
0.0978915567508846
0.102499264931474
0.0774069276726781
0.103878507761974
0.163236399384012
0.167799565372287
0.106982480488571
0.0927522125949513
0.0769036378459645
0.122912085113224
0.130269753750722
0.129287935588652
0.116663041417625
0.0979346390305311
0.0888459237584704
0.103244441777242
0.0886067929872816
0.0965644554305898
0.0881814134342477
0.103005080362251
0.082661779667834
0.10813970336956
0.0971593323558695
0.0984107550001511
0.105916365760736
0.149745255964539
0.115479559167281
0.109135847457742
0.104224970499415
0.115469565947576
0.128818101366907
0.166774976172872
0.1522226739435
0.165073447771553
0.149976126521506
0.187109234576719
0.138686420834521
0.122119141294134
0.112649440937929
0.134084499470786
0.12581089475203
0.132421970232876
0.117057947679295
0.133871251863156
0.130948775419267
0.13959726727454
0.130572597465531
0.137612861649556
0.133310594059069
0.16249326022928
0.146296937285275
0.142822170400782
0.137153446867207
0.161049195390958
0.198870097343387
0.218754009735543
0.156572543580267
0.169524959454687
0.159458202870676
0.160916739060274
0.152183675646016
0.163153781160517
0.158492666281033
0.186533805965943
0.186624314024051
0.202178570994882
0.195213415827647
0.196724597762829
0.160128351696585
0.204551297138756
0.182783561703526
0.212338310400636
0.207690521814821
0.201510292178045
0.174709014874928
0.231435789703559
0.211863779228764
0.217015627303477
0.212166709281597
0.205623799989016
0.186774389002906
0.204640633759246
0.202569792297431
0.221568490892708
0.213384403898459
0.227955227201249
0.212060528863509
0.234651113203202
0.212879816803691
0.232401193830343
0.231910318932712
0.23820626336944
0.222517677238088
0.248403986479876
0.224262431344329
0.247990156894781
0.234204175484181
0.263781026123026
0.266016091911059
0.284152502241959
0.262551631254297
0.252431279849993
0.242175581607276
0.269770399844444
0.245946001593967
0.277997004062522
0.254785898472592
0.282080311963045
0.263083595663876
0.280599238734983
0.262434091272957
0.289542724856657
0.26966223596695
0.304671306692028
0.270942446172907
0.299747930703351
0.295216456777615
0.306561670590911
0.291893127429635
0.345962273615165
0.328714060425348
0.347818675045287
0.329199408032489
0.332225318100775
0.30486667528638
0.348425228201029
0.317803343490834
0.355200226656457
0.326546790059634
0.334038175032337
0.324021130775053
0.357044137820144
0.34106951105761
0.363790917239753
0.332091810595293
0.372651434780198
0.357647384843377
0.403518359773666
0.350285059445125
0.38471561805568
0.346262726288613
0.388844061145574
0.379122284093144
0.408954546035646
0.399977112012115
0.427348644931892
0.383967576385611
0.419255655307525
0.388879145611132
0.402622621572978
0.398145390175323
0.41967536462282
0.395763953703623
0.431029585044882
0.444193910784057
0.458162445174482
0.42151237695043
0.4532722567408
0.415546543575675
0.468532847464219
0.431550374162961
0.487518450464332
0.456987996501197
0.494757304485704
0.437001852105615
0.483740710406403
0.459960809825748
0.506244327690469
0.484444889104934
0.515918680501357
0.476888301825866
0.504847441305484
0.480343216271463
0.53021935882673
0.486994381109617
0.529523674581703
0.492801985654986
0.526093708214784
0.496638435376492
0.546923548990946
0.534909511431679
0.558482390876437
0.541875298230231
0.582899191291391
0.519526435365893
0.577637371207163
0.502745570642331
0.558576743199322
0.546115772005565
0.588099942711971
0.550630369627531
0.610587889819814
0.59003047197155
0.582088287680132
0.567428459418917
0.59649764420664
0.594645805138372
0.625884575451295
0.57866098626627
0.61518861671393
0.623200241393
0.64036060422027
0.604452020771999
0.654916537274084
0.618606623685797
0.651329489272913
0.618462263558359
0.677365250825019
0.624480955728376
0.665697917674657
0.652529744779037
0.706893890404192
0.626864966366117
0.685135303449665
0.630112464179169
0.715974516161285
0.650865116456399
0.723405403193475
0.675315937046403
0.719036026140369
0.664415048845639
0.740219975209761
0.702648004526573
0.713581806776491
0.664877016914825
0.707391631896824
0.68483602946855
0.71852446405329
0.716470354813766
0.749330053756618
0.712245657182216
0.795446937839643
0.726942646287407
0.795384138981674
0.703935276187961
0.72842996256746
0.733545851599432
0.78058505754573
0.744512706000153
0.754577568484171
0.802898777362491
0.804695977300856
0.758697503462642
0.794485971477427
0.777094006833041
0.827845238752928
0.791638946016333
0.84321034410146
0.792234261802903
0.859549879643862
0.799922581664744
0.855281329374473
0.819340219911758
0.864966003450581
0.799357405059771
0.917002026812468
0.836027283594831
0.844331470305608
0.804632376553425
0.861218585381686
0.810229301762718
0.897059229776468
0.784904439697022
0.901917546063285
0.848141843075016
0.948182392563016
0.827367442151391
0.889627007318171
0.860020940885514
0.920159097914365
0.863426702737811
0.974042632308953
0.886909873284112
0.999897102112033
0.903008142350467
0.962160912861382
0.85633232350675
0.895575251386901
0.918644647247217
0.924362837921786
0.894433437102224
0.943335473316686
0.894490198466104
1.02715175136525
0.925992643696705
0.940883670923964
0.889465271242359
1.02817945967802
0.95417639567835
0.940087903454869
0.90637264951366
1.06681832777143
0.948806240262852
0.975974570579751
0.94662028576854
0.989984518632272
0.945922745037966
1.02113122939173
0.893696804791492
0.987688400893288
0.985987192897716
1.13691296403153
0.956891689750854
1.05461567785792
0.979735700546388
1.04116054763047
0.973281612583307
1.08626222615206
0.976767028489891
1.1287766616032
0.979891485056486
1.08612165513739
1.00219855170502
1.08334599585544
1.01824545460311
1.14252598879417
0.956339572129123
1.05170352150404
1.09135254212865
1.10516804845917
0.981548999356873
1.20267434035238
1.01750233142291
1.06798839735612
0.977483829686352
1.08788465678891
1.01650873604779
1.13841243529848
1.01749466592897
1.13707332670134
1.10509065252148
1.08880983234836
1.00688549980438
1.06197050293625
1.0970609586944
1.16256902471291
1.01312696855966
1.15995579731134
1.01819588871789
1.11372092596894
1.12518620672009
1.16793005418404
1.05584034350577
1.19374784426099
1.08747310142232
1.10734583692343
1.0821751583835
1.19019948606386
1.09847765128767
1.14898500289294
1.04975011081514
1.10348724893167
1.01820823100702
1.09090002352008
1.08868432066785
1.23998791445103
1.06419534283079
1.11061344829874
0.999130966382126
1.22804822933365
1.06443875181517
1.1855474309417
1.08073687958014
1.19449589520476
1.07543794531298
1.16443988780518
1.06172821360515
1.17351857767077
1.08142401369215
1.15037169948973
1.18044001619623
1.18124507109964
1.13417223336073
1.26066946989072
1.12623250824854
1.13184558841545
1.10286828262891
1.13262809667237
1.08099482140267
1.16271521264223
1.06176434399961
1.20960439130672
1.10149601883381
1.19890153717544
1.19919122182337
1.20805335011278
1.11095656316104
1.16047105463917
1.12912159493805
1.12549726475896
1.15751220745739
1.14952754000367
1.12995642301918
1.22721129177402
1.09424538845845
1.19453844066719
1.05781344523482
1.12674229865122
1.05744422647691
1.16680225288636
1.07381871578089
1.1524715973724
1.12047078248032
1.19672459369473
1.11689994122311
1.13210104016318
1.0598674067335
1.27581298446668
1.06453171216385
1.16012006945044
1.11447554652445
1.16724656214685
1.12383273341824
1.12547403555752
1.08035438320902
1.18015131130142
1.02869422127298
1.1895834742168
1.18517487522764
1.22970328374702
1.03145213294496
1.15267359839745
1.18116099509398
1.16827677270553
1.10146839973915
1.16348149469144
1.09965860515864
1.0832055864387
1.05209572482795
1.08137059804579
1.04764270918532
1.10604561851879
1.12709887622026
1.11359187976283
1.03479950754093
1.12361708487347
1.10213408162636
1.09801500065014
1.16641505686335
1.1762978510296
1.09666683281268
1.18659737035853
1.06528147406782
1.1141867976466
1.06506256977648
1.11518321807259
1.06103100158054
1.13495300650446
1.08645710600615
1.11230056951538
1.08742655108857
1.15867851109183
1.08363410788894
1.20334507609784
1.04026703674903
1.10306865852681
1.04341477784886
1.1426633790622
1.03236564194878
1.14882421264629
1.08094703563838
1.09326208887901
1.07099444089805
1.06366579308158
1.03384290089301
1.08868615400261
1.03796962308144
1.14301345793255
1.05348098052384
1.09909867936899
1.01776715744048
1.1223946143627
1.01262207608557
1.0948073062815
1.01682186629536
1.09681087967163
1.00358668176594
1.07243546002836
1.02319747020054
1.04332666928883
1.01850699312755
1.05581002024467
1.07375267109049
1.02485128892698
1.00475185400788
1.04295959855225
1.01590834545763
1.03450065672996
0.96446538476747
1.04278401145509
1.04426769789161
1.01718754142116
1.01353600689657
1.02410133125958
1.01046643801423
0.994979205311784
1.03377583846043
1.00351888788395
0.977007649402174
0.980890403508795
0.956757183605526
1.00848653543793
0.966495734939861
0.962440397899843
1.00324448318495
0.980994370549796
0.961275763681356
1.03870600966085
0.957188042836896
1.00954908726
0.944925631771029
0.94894980588834
0.945548893820804
0.986624308874813
0.927177790060852
0.953623058697963
0.941231526367828
0.9514613727706
0.926671306975332
0.956185448692797
0.904703374830328
0.937668737278022
0.900538677038942
0.929415870425799
0.894875228134071
0.923487171877352
0.909579719968025
0.935641158774832
0.856009029249163
0.92935335546344
0.911373786812009
0.926855940380965
0.89511302175719
0.911264269355509
0.880359430448883
0.890523824076453
0.864964692492852
0.905091880016953
0.840423819828454
0.902721364439983
0.832091833470602
0.893823243463242
0.84163559831524
0.858533320658512
0.846618117453449
0.831696972294542
0.820347480380185
0.849494583866591
0.847655035626034
0.842241301645157
0.814470373585172
0.867378420610434
0.842824822403733
0.834648263186383
0.829622211244079
0.805516085609941
0.800386404814621
0.808996680447737
0.800856328215924
0.834299478407852
0.772792037738247
0.823063381446498
0.812970940053303
0.793883472076269
0.747420360406474
0.786172149656321
0.777755653487946
0.778327523892177
0.781218243500734
0.772783184952734
0.751159793942194
0.753549895498118
0.744819152503342
0.756088974717521
0.731445075625683
0.755513707510809
0.723819698572816
0.721839171676731
0.733965805997398
0.743344605069229
0.704293592311402
0.729325815446701
0.724179924831791
0.731209544916365
0.690771855562101
0.726687111710064
0.701355240789179
0.700597961767188
0.694938733047787
0.692610401912103
0.682301078447547
0.707819391008097
0.676915905588947
0.680819405827659
0.652318000943803
0.655034749167417
0.652642911701055
0.681386140664672
0.652052330409854
0.663540691376726
0.631950166295042
0.657410583672804
0.640425056404462
0.648485458154735
0.62802224740998
0.652493880542182
0.610913569699857
0.647972866293773
0.630149652836779
0.654000581881444
0.624314704965943
0.63333193228141
0.60858682994559
0.625712872141564
0.616599754128869
0.623962047135364
0.588098293802457
0.613077720864423
0.593664496538975
0.603940678195392
0.59349699719319
0.604809437026626
0.595249142563239
0.599627856329573
0.580562267811205
0.58351786629805
0.577068093711502
0.563185679527156
0.55796961688149
0.571417638618951
0.549571167655475
0.575277479310856
0.54449141915479
0.557926559232376
0.549971190755095
0.560657546404768
0.54390451914993
0.549051720480747
0.526869893140595
0.542104492994706
0.537061788531071
0.546605591520068
0.519814752326673
0.548794415408455
0.528497591163387
0.537045377830267
0.511373145071036
0.529545988506896
0.506115372317742
0.522832635240598
0.50444065804142
0.513360385302007
0.499102938974479
0.510814416631152
0.500362297514468
0.498290887033517
0.477582778614822
0.503397725029831
0.49217103412072
0.493262311927352
0.481247743021056
0.487012514075297
0.480255873204697
0.485302274272712
0.473906779613298
0.48632289443743
0.471424717485983
0.48911630426598
0.465950968252524
0.476644063690698
0.453482995121516
0.464399008985215
0.450483651918605
0.458741201745448
0.456656331338965
0.453162034004569
0.454180136260602
0.461919026422752
0.433062551136259
0.45962141277828
0.43368969356707
0.441176178669691
0.429089101896019
0.441202660323018
0.422152071730222
0.433551265817627
0.420412612162892
0.432961134952221
0.416130003002106
0.429121570003028
0.407981861685647
0.420723110204813
0.408682261989567
0.421536759168539
0.400140323534628
0.419745234876933
0.404067022371501
0.413254682985021
0.396995822486894
0.40501437755466
0.398053902998043
0.404769128230441
0.390660835869949
0.399558802137512
0.39388016454337
0.38655269793081
0.379035147432677
0.39423438941079
0.386165670312235
0.390173743129337
0.381274755576839
0.379315279347098
0.367194113383527
0.368351588276546
0.371087826102838
0.378464702698852
0.369763367521314
0.374690185559227
0.363420246764836
0.383551398456531
0.355638133590601
0.367170387257086
0.364053864315692
0.37851345742051
0.356817232079822
0.358982783954321
0.35610921391444
0.365017482296168
0.356903159296264
0.356876671186629
0.344215074926433
0.357420811421854
0.350393174254355
0.363718854496491
0.350403822971619
0.355387096082443
0.346142593071174
0.354173784278349
0.351771608987192
0.361748865865053
0.349717378361011
0.35835463840273
0.35337589070209
0.360930252483283
0.346981716979656
0.360653194876069
0.349848613416789
0.35896476073367
0.363043911704462
0.361394822355036
0.360429098205715
0.369395357366279
0.36112355221878
0.365788589357371
0.359416243388689
0.359714947689577
0.357688410620366
0.372444908369888
0.365468705262254
0.379887326106425
0.368912398279956
0.378357219308447
0.375192286913143
0.378181305548445
0.371605202379692
0.385654999340326
0.367912136847789
0.388954854984628
0.383273246509084
0.394873411609733
0.384686284033477
0.390535829519029
0.379172917199717
0.388029543066631
0.392271302174078
0.394198905284871
0.387630611523712
0.408010305163407
0.403332666154581
0.410714511895674
0.404872825899407
0.418321521266912
0.40295495964726
0.422026204707166
0.409758702531425
0.428735552100896
0.422416287333785
0.436660365393233
0.434479507133074
0.44477746357935
0.440350050970465
0.453120545383654
0.447967462922264
0.46073103573765
0.450182967885923
0.462398203666762
0.452224465160168
0.461591298449352
0.462276577152104
0.464328097163261
0.4633725188918
0.471610750071082
0.473442071105206
0.484521641441258
0.477762599658931
0.481831398061408
0.478778507334688
0.493374088647768
0.474718670785312
0.49112302318587
0.47504032569451
0.488058585414518
0.474733206510091
0.481734793067778
0.471717334914808
0.48299390492701
0.467464407345401
0.474182383519625
0.475550364543417
0.484961628684393
0.488736304330459
0.482375940342487
0.474900175888
0.487396480833503
0.466437150822018
0.479781049202173
0.481497190362085
0.480281064015575
0.481185272838636
0.481433441710204
0.477399086108466
0.483073517297195
0.471295744469914
0.481659700831931
0.476533588457933
0.488703942787113
0.483141304098728
0.486805149663137
0.479157937567924
0.486025888929551
0.471567198214049
0.4855574223975
0.479886801232808
0.477727482846712
0.476499451916254
0.486809007351348
0.475938349547975
0.480745973681454
0.482954041362663
0.502191622020951
0.483817456902225
0.477801149121109
0.482253753628145
0.484303322196405
0.483057749295749
0.489678621828532
0.485392671354734
0.488800808249503
0.477645245054576
0.476187553952366
0.471016325986406
0.485549012207086
0.471883604978031
0.486159867087001
0.465025619616797
0.472975798215685
0.455620624811587
0.474125782311476
0.459777428279926
0.46844576828898
0.450700380273841
0.460603298079029
0.451505911708385
0.447362737297428
0.442683434031795
0.445197531224278
0.432431565391096
0.445432008319533
0.434322548189015
0.440344437264007
0.430583846530105
0.435028555522067
0.419361983337511
0.417280369115499
0.406803064969755
0.411896818640881
0.4048838483201
0.409643996162953
0.398642232451612
0.399826961709931
0.394629860599123
0.393232517898242
0.38756746211441
0.388475760183966
0.38105791028486
0.387232795512781
0.379365120704069
0.373186747061443
0.375884961495533
0.370248754653643
0.365421820687074
0.372764730007915
0.360114718323325
0.356689756056106
0.362319760908951
0.366165220141133
0.357171819124291
0.362487501999852
0.346688065670883
0.348595686306161
0.347033612273103
0.346318921278602
0.344681151040085
0.34793998928984
0.333111557075666
0.336154490951605
0.332881250112497
0.337763094635196
0.332866926563052
0.331348438628946
0.328340934446391
0.334937421866658
0.328477608715844
0.329442177392546
0.322367066071742
0.323042051014282
0.31458732889796
0.316926809348211
0.316977578781675
0.319508290095488
0.309345631682916
0.310136702398534
0.310563933348626
0.315487914159185
0.309107321502498
0.317370768293851
0.31074424728141
0.301662075989184
0.301382789705143
0.304808461230389
0.302692127786017
0.299213926542183
0.297779886714037
0.300295329450348
0.292215981721835
0.29451929164207
0.289028032878263
0.297372531775155
0.29311022755547
0.297121820830763
0.289358529629545
0.293024791273486
0.283014908755402
0.283798751324007
0.281480575521809
0.288713945382971
0.279672903178901
0.284282033616672
0.280073374235692
0.283910406897712
0.275492640258549
0.280099562073632
0.274412620608131
0.275069462210663
0.271654082053141
0.271773791827525
0.270064819978461
0.279130043547662
0.272071071692893
0.277362819020392
0.268890953081352
0.272953583415089
0.266755076624522
0.267746422538879
0.268460706755289
0.267154577114955
0.264077061037082
0.270534936339699
0.263604604057301
0.264422512184529
0.258412415677182
0.264925909077712
0.259653021329738
0.261066555952676
0.259610599267645
0.260019963208904
0.255361256087293
0.264451706997957
0.261517562161306
0.26521510597298
0.252738242919805
0.261054417297038
0.253349595280138
0.255008925580185
0.253304711942835
0.26111840115818
0.249478827217765
0.255654543658379
0.250547920632461
0.255390413502871
0.252058881611373
0.253280591483269
0.246901884666702
0.247618934866409
0.244560239809183
0.251001302244319
0.23941104509341
0.245076713536792
0.242933025400139
0.244362901011817
0.242516019140276
0.243565252409421
0.243587204450079
0.247883720388453
0.237786373012712
0.243273750420655
0.241185744710351
0.245321606632195
0.236746126185992
0.242158314354825
0.244265023803898
0.246499816757589
0.238481135947253
0.239540635824075
0.238797691357035
0.245217142882879
0.240533271101837
0.238744946493984
0.234346728539702
0.241530213264304
0.237808936730864
0.236559522610757
0.238524731728528
0.244586776743864
0.239089628316246
0.23758792890109
0.234639946934311
0.235805203925905
0.232708939497443
0.234681630620211
0.233629894026465
0.231601878787861
0.231432958062116
0.232733151610349
0.228000878174678
0.232245677400076
0.23121925974928
0.229277064204774
0.222573852088767
0.230148766323272
0.229464855737116
0.226850199651718
0.223859390031753
0.230727846945654
0.220430778641622
0.22841978464599
0.221475660639668
0.223531033615768
0.218913991625039
0.222760975093153
0.219943214772298
0.221865587698991
0.216703030939884
0.216092457114187
0.21533432187077
0.217867639513384
0.212098307195462
0.218390977960793
0.2129773486139
0.215879305276183
0.211400444869017
0.2164113696746
0.21044024872849
0.212170244927271
0.209004389968473
0.214176940070778
0.211543728043269
0.211162694516796
0.201475216359965
0.206699781615135
0.206762232507402
0.209635623457574
0.206512189280562
0.202603107567693
0.199824112132332
0.206669986148626
0.200025600603455
0.202175507580408
0.20001338085325
0.204883613055626
0.199939956723649
0.20344733744582
0.19810409866447
0.19913477734197
0.198673225957388
0.200854328517437
0.2001740536899
0.196468129064906
0.193537075002171
0.193342646874536
0.191102891091962
0.193520246524358
0.189958903230935
0.193660003710388
0.187118431907262
0.187810562141074
0.183637866123159
0.18671054264408
0.183602370626666
0.185670410503613
0.184601402223692
0.184152837109892
0.179472059140236
0.182991679911936
0.177455144376904
0.179380681514465
0.179200130899251
0.179221060556029
0.173232359375765
0.176275960196732
0.175434703291581
0.174669950407211
0.171672813350062
0.175894837075196
0.170435549241955
0.173106514399239
0.167462928820942
0.168729639134438
0.166619161389006
0.168809919957186
0.167578498641737
0.167001047100014
0.164929143293427
0.166396744460941
0.164136665178868
0.164356112532228
0.161950022685862
0.165042725068121
0.159666433488385
0.163893533436803
0.161379556377209
0.160944817950553
0.157883511917602
0.155118309393932
0.159002222858083
0.160815607977998
0.157563983093082
0.161146716557141
0.160490780716079
0.160173048927985
0.15406148913828
0.156574513254204
0.156396123078229
0.157114877737291
0.153054604524672
0.153435817130514
0.151179119617935
0.15258713438497
0.149881094342988
0.151000053642899
0.148240628923481
0.149899936968907
0.150084709032718
0.148886939183927
0.149112178315416
0.149439542353622
0.14515504867917
0.14983632975281
0.149634504852308
0.147304581744079
0.14624362617051
0.147290753043608
0.147179650551392
0.145062449478956
0.144451066834636
0.143029372603165
0.143021588723025
0.143921665876298
0.138229885332036
0.141369813339908
0.141359869732462
0.140269717405994
0.139808221015344
0.139609437849982
0.136988694148116
0.139102093275665
0.136741051247693
0.139818306646011
0.134704123391617
0.136776811597941
0.136920826588861
0.140065782437832
0.1364114934739
0.135318432936955
0.133585835237994
0.135906018564139
0.135611668803574
0.134985598391888
0.133184815585339
0.135693310063765
0.135168249301947
0.135825972217561
0.13126352557471
0.132157645046186
0.136023279629172
0.13505240047561
0.132470830055311
0.133494774603649
0.130779125995859
0.132679671528986
0.134886271781097
0.131229487010163
0.12753956686728
0.134289165665539
0.132821097202059
0.132920716015981
0.130973028179324
0.133521440118376
0.130564845702048
0.130142545364228
0.12766261315154
0.134329637639947
0.130288895073467
0.130600398018939
0.131106886534363
0.127699254386702
0.125316815849172
0.129451622862317
0.127288815382512
0.125944183512953
0.128162632496945
0.127691242490308
0.124215638844953
0.123868668459079
0.1247263084962
0.123684327527421
0.120951159235132
0.125681705309503
0.127236954791742
0.126214038759606
0.119618492422355
0.122214283906329
0.122153559653538
0.123013229744636
0.12197639355344
0.121518134861464
0.120035939802924
0.121466042181371
0.120798374602986
0.120611084055816
0.120787773571877
0.121106891835425
0.119135551321549
0.118183255105843
0.114492872206087
0.119334860290767
0.117240156153911
0.115499329715843
0.116371460289271
0.119209332018865
0.119296684883046
0.117641060731628
0.11723700245562
0.117202398675861
0.118276679962168
0.117826785594559
0.113248409055716
0.116334818729092
0.115763115339731
0.116863132246239
0.114734061380373
0.113810889283639
0.115864945389755
0.115737042746449
0.111863778476281
0.112637179736705
0.112987919162827
0.113749095905167
0.113977374371329
0.11247980859041
0.111683543880698
0.111640466397288
0.112818770055221
0.11230488216969
0.112286310808579
0.110078197250586
0.109321502526781
0.109087843249416
0.109993889836164
0.108708556353961
0.108656452995311
0.107775699905609
0.106567836409648
0.108353434898025
0.105646807313721
0.107033119924527
0.107221697203741
0.105341777087279
0.103988304291994
0.104516466040324
0.105311298250557
0.103420955148031
0.100760552476875
0.101181181221732
0.101604741501856
0.0999077981534558
0.0993646408298472
0.10103013722891
0.101508544374452
0.0979610093181881
0.0985533798461562
0.0997564202721615
0.0973921416332359
0.0979396181673681
0.0967826186293034
0.0985453903511979
0.0984989363823833
0.0990140887231481
0.098592865406918
0.0981944651370849
0.0963410097180121
0.094268288805238
0.0938331305548114
0.0955420309923634
0.094915111065399
0.0954677855836495
0.0949392194081621
0.0954116297514735
0.0954232500763605
0.093408880229177
0.0947160717682824
0.0959069874038315
0.0934071586045678
0.0901225534779479
0.088568928290112
0.0909842609508573
0.093389157139994
0.0920953326364663
0.0925264056786373
0.0906189226813512
0.089659375068308
0.0922271016602454
0.0895818291730508
0.0880744327115942
0.0900115721302694
0.0885602007108881
0.0884898953831394
0.0895203021362878
0.0889606386312674
0.0856717376751817
0.0864725292520208
0.0858190541736227
0.0850070953842388
0.0862169528592449
0.082464524266337
0.0855018939526371
0.0833187803379117
0.0820942478304614
0.0824908676785449
0.0818841487692979
0.0824979087106407
0.0830062722448982
0.0839687077888694
0.082684155314211
0.0818183896441073
0.0825990121110932
0.0823052024501897
0.0815414089122928
0.0812133098797188
0.0832656819307074
0.0811585509239681
0.0783855789577219
0.0819904544855765
0.0802109214242258
0.076843897223743
0.0757824013457881
0.0771546635729924
0.0785432565519814
0.0769819755992864
0.0768217134922676
0.0777341241830023
0.0786901580696955
0.0794369026865041
0.078087663190942
0.0759115832810047
0.0755621870208936
0.0768145370799201
0.0755691064470088
0.0778548572065949
0.0765528398278722
0.0760515559035095
0.0757315174913603
0.0770700168199682
0.0775036627078153
0.0788817553173456
0.0771190228395994
0.0779117712707523
0.0760521004415745
0.0776582554659401
0.071674562182184
0.0741776411033592
0.0764035737238729
0.068075397740026
0.0655813029820889
0.0633631889890223
0.0609375685172427
0.0645717609361832
0.0703598389459102
0.0757815241926287
0.0672902711858571
0.0589194009420217
0.0535650686272321
0.0649382735657587
0.0673343718399895
0.0603797852455688
0.060289185605403
0.0614804386165044
0.0544697505671878
0.0615608844217091
0.0597885332834434
0.062832067527956
0.0547610280101482
0.0612079546518187
0.0631572106646992
0.0605336875798026
0.0642794452123493
0.0720157160088006
0.0694168192287051
0.0739036310524088
0.0677147945715908
0.0647966321166209
0.0595591386859182
0.0653520604749067
0.0579966215091843
0.0653707905391157
0.0619846893071343
0.0638005971808294
0.0611103589699674
0.0625554455285181
0.0581316562592816
0.0610105842337217
0.0549876821307435
0.0602394684537613
0.0535230097753714
0.062374127327259
0.0628907359067585
0.0680961036837685
0.0645223351630206
0.0581239572976301
0.0557813291290921
0.0592662782853368
0.0675740778761555
0.0694272402495115
0.060401064434517
0.0563848567812196
0.0688404609516084
0.0709689624255529
0.0709889929305181
0.0552818668268267
0.0730060650236587
0.0667394567780817
0.0745182708601051
0.0570460542286196
0.0795560290870861
0.0618706041019385
0.0731561461611583
0.0647688320869505
0.0747815951601649
0.0619762998632751
0.0740975276641632
0.0667711375632413
0.0675958731343369
0.0711093531232682
0.0672134693961374
0.0690968644037482
0.0664048099435881
0.0678383504575924
0.0666943999251691
0.0696396634448983
0.0677761027897437
0.0639387710962452
0.0684082246605348
0.0656159110131825
0.0666304635302259
0.0656349665342898
0.0657272059567513
0.0659992697271948
0.0651739854236461
0.0668886511827298
0.067142550683374
0.0627564214603202
0.0647158367975604
0.0642589078887381
0.0637922986299883
0.0627974804012374
0.0656858959059179
0.0651820858205236
0.064425801273784
0.0653700931729077
0.0659952347040305
0.0621253849730174
0.0626746660223766
0.0651925026142131
0.0643937717208999
0.0656261603110354
0.0669093300933781
0.0631028861266423
0.0615663998262447
0.0646424368006114
0.0646993378542174
0.0644389271438176
0.0669608658641779
0.0653415694476631
0.064710881839104
0.0644784153915481
0.0640106995103682
0.0644971778685563
0.0640210198784983
0.0648843393386893
0.0656471105847142
0.0662237517625036
0.0654085076569823
0.0669200293158954
0.0654948376590829
0.0645011652964986
0.0635631381632587
0.0657421106382576
0.0677772072290276
0.0641750615910789
0.0656194914006281
0.0663666564709068
0.0656960503734172
0.0647590469193741
0.0646129791089309
0.0646780035849197
0.0630341051653835
0.0636044077646646
0.065958260802722
0.0634504065674488
0.0640088758220024
0.0647040004548133
0.0644699781034037
0.06132794781055
0.0643625306766959
0.0657822804831865
0.0645944968576811
0.0658272213477583
0.0642896788821768
0.0622924783959252
0.0635935092527655
0.0658327617119157
0.0658601028122246
0.0661795242863735
0.0634938278185144
0.0640652926668857
0.0651730352778071
0.0660078903921135
0.0657097368664653
0.0628866889611884
0.0638280236905832
0.0657494026637211
0.063989262458287
0.0647142981463913
0.0641290545087507
0.0660793139262579
0.0667932421467106
0.0659361506524718
0.0660852824688044
0.0652202393701724
0.0638940101267733
0.0651427478857631
0.0670726816322467
0.0653941938978045
0.0652332761248309
0.0693587719869558
0.0682996987335475
0.0672032634698298
0.0672646793861105
0.0670074911051752
0.0674255799836105
0.0668168336954808
0.0654029921005508
0.067520597038675
0.0681498589226004
0.0681243900651525
0.0694187611208388
0.0667627841644468
0.0674878544568142
0.0691663260115289
0.0675992297049173
0.0658849701428868
0.0674384174176143
0.0675969690339569
0.0646274222480381
0.0678242049705135
0.0676781938663836
0.0678698556614596
0.0689567914211155
0.0691478441814472
0.0685568581031651
0.0663925325769234
0.0662462150306075
0.0681826762742141
0.0654654276801379
0.065477819653618
0.0662198929845002
0.069389321433688
0.0671733654952449
0.0677892832323682
0.0694696142266482
0.0692168387418884
0.067556752546896
0.066583073234261
0.0683578155003968
0.0685510272827879
0.0687655537608861
0.0694727591570497
0.0680188291217889
0.0700630881052482
0.0663698077135085
0.0676431933019147
0.0664174220339741
0.0689723124833852
0.0693719395455113
0.0686268846300393
0.0680405526331611
0.0684526293171407
0.0705104244186397
0.0706544538254683
0.0688479555621576
0.0699287932213167
0.0694823897448839
0.069811458421967
0.0694725689993816
0.0705199136331927
0.0706779444310709
0.0701383986225959
0.0707335207156397
0.0729086144162485
0.0703006487913241
0.0710844947420654
0.0703362148310778
0.0715127361438968
0.070361105731149
0.0690106891303541
0.0695120090294951
0.0700331659093077
0.070365034302327
0.0715375172908685
0.0678370091358621
0.0689295391351534
0.0678672384658959
0.068600582194718
0.0678057865239343
0.0697088406961224
0.0699949186828279
0.0697284377002462
0.0687604631137547
0.0705858249859725
0.0670101248917804
0.0691187896587417
0.0702854473590191
0.0686787925980296
0.0665269452211186
0.0687599364597564
0.0693222167903698
0.0670830784255899
0.0666282647749604
0.0671344902918878
0.06635501601295
0.0668330070610382
0.0667332256100817
0.0678938279908122
0.065591221371662
0.066645511974807
0.0671594970408925
0.067462634884292
0.0671589484950742
0.0678497311073984
0.0630778072380301
0.0666784920384117
0.0677455530695873
0.0657882958181158
0.0642992905511628
0.0650758811072255
0.0661429113557938
0.065792437763859
0.0653343185456364
0.0673279973065985
0.064350110305882
0.0654596015471017
0.0659356596388556
0.0674356057086167
0.0649566148081622
0.066692891394601
0.0653248853234292
0.0646934215679905
0.0645443820468479
0.0665712627984323
0.064760071344923
0.0656270779483822
0.0645499411958249
0.0644845594267901
0.0642334958772529
0.065781534092775
0.062987256322239
0.0644842556128501
0.064576455801371
0.0658438448507296
0.0626024854630772
0.0647273482832615
0.0644603863471409
0.0630101678668454
0.0640093880456163
0.0653315569970639
0.0619152617916216
0.063395264970255
0.0623379938129108
0.0645545085903847
0.0633758825651506
0.0642027187770768
0.0617896509638032
0.0640630249553053
0.0604222369768789
0.0651939237080508
0.0640218615574069
0.062791463273553
0.062868521454444
0.0636844020173561
0.0618014118143497
0.0628596967232251
0.0630060140407954
0.0649145709975131
0.0653009946125097
0.0662951153347191
0.0640587228941555
0.0637455475565436
0.0619914779135823
0.0632217923896591
0.0613860628894049
0.0629934253370851
0.0621718723560212
0.0645842575058601
0.0612526726940588
0.0618393911850864
0.0638005871891935
0.0647199276808336
0.0635944454412506
0.0624763159388737
0.0624594357568339
0.0613486657527455
0.0601839299017794
0.0614517318422326
0.060755675842369
0.0629313875578612
0.061243813335855
0.0652075640662054
0.0608006371145427
0.0635345915696686
0.0642282894548817
0.0629943557106036
0.0603327784814021
0.0599586024775439
0.0595025255734148
0.0611022795125389
0.0615958654171807
0.0616802579246201
0.0598152357928181
0.0597105632416294
0.059850794953177
0.0612089584285504
0.0557388634226451
0.062898223528956
0.0593661900309215
0.0602948755149564
0.0571388312574005
0.0599271681881772
0.056218982391349
0.0572047567276223
0.0571999040592404
0.0599059943464904
0.058072941093573
0.0598304358170831
0.0584336611143106
0.0597722292428778
0.062355353210406
0.0579655992816112
0.0548365280410629
0.0558558215185187
0.0556740323776562
0.0574418141947313
0.0556598406386654
0.0542708270987615
0.0554476885045638
0.0558201660941724
0.0579859819953063
0.0534926099404446
0.0548445613806358
0.0537384517524735
0.0536215397719693
0.0548620291074784
0.0528270487301732
0.0518349124842415
0.0522099120300378
0.0552257131284423
0.0527847980835245
0.0496957997780559
0.0546298414216892
0.0532311017185961
0.0557819458583582
0.0496788595807684
0.0627941653272874
0.0647068890534735
0.0541116345542071
0.0561157634879278
0.056038882393297
0.0564788093644242
0.0541313405544724
0.0563856740107509
0.052123951175789
0.052874695926757
0.0525314633775329
0.0572508570849222
0.0499365777285188
0.0520515571824166
0.0521946991836947
0.0538035781287314
0.0495874512831269
0.050976270662569
0.0522681093925624
0.0529763371510461
0.0500892955471228
0.0503213169606514
0.0501502811606285
0.0525505553643271
0.0510438002174667
0.0520109776351352
0.0497030317666429
0.0618535567823016
0.0546938664680818
0.0565247795544651
0.0481614956900853
0.0515215563766519
0.0476347268786573
0.0526398837410058
0.0492505977804479
0.0514080135914583
0.0484764486605768
0.0517416987331463
0.0470529082665127
0.0497093032755178
0.050754280555039
0.0520623590950036
0.0481303100757223
0.0502962557756791
0.0468077571259456
0.0504966863068991
0.0466731841241799
0.0504262435240878
0.0472657704631626
0.0518671234560028
0.0487833524258838
0.0570778662417491
0.0449723096848633
0.0599841761634759
0.0679423718585979
0.0527779291666323
0.0510872832960249
0.0490993363747706
0.0487471832168083
0.0481880518470353
0.0495162896621083
0.0484158828796558
0.0467444212882061
0.0471946747675417
0.0473133942723283
0.0469832417809308
0.0477630207796516
0.0480448875761642
0.0480893483797341
0.0474216871847743
0.0461962008400913
0.0455522318546129
0.0502407213600907
0.0462518804402451
0.0545697638476881
0.0661090166990461
0.0508257745206248
0.0548060012015074
0.0471975884576037
0.0440408791907698
0.0778715065760626
0.0534769867153233
0.0536688730498242
0.0479296752441448
0.0498118759293807
0.0433452443894056
0.0510192936526329
0.0434025934880315
0.0507279775139718
0.0537367309415114
0.0514736478430451
0.0554900336071063
0.0474652344219727
0.0501078594851873
0.0484085071590928
0.0486231859863037
0.046771079886734
0.0477392598564306
0.0452490191872621
0.0452427910589241
0.0456177651076036
0.0471868112355879
0.0495025156864504
0.0441204703136962
0.0520259697468995
0.0516616055017608
0.0484103268835612
0.0449011675682721
0.0485727763701719
0.0422367272720188
0.058801692927453
0.0678940434893049
0.0461764333816412
0.0500550322292123
0.0447587342521425
0.0492989397401559
0.0461266947451546
0.0503023993473569
0.043788917188943
0.0484841199207664
0.0441921075801434
0.0489435777743017
0.0452515929466823
0.0470121623025063
0.0419098496411998
0.0497237929320853
0.0417680060201425
0.0477451466007087
0.0461942445963244
0.0462181996887718
0.0484350042708109
0.0466061169353359
0.0695370473229369
0.0689139534484443
0.0666029452774031
0.0595867722326047
0.0540367666223903
0.0467045870612112
0.0472323046400288
0.0465988031017764
0.0463790975263153
0.0498600241886677
0.0460390877053392
0.0479653020622043
0.0492171271577406
0.0467476936183473
0.0442449467320169
0.0484155696113734
0.0435551997389791
0.0490354558071149
0.0436895535660181
0.049895220243981
0.0441138786731522
0.0500495917792715
0.0380224047990221
0.0601322721337212
0.0480351765665089
0.0589222124694368
0.0322354131325917
0.0987413207611104
0.0644545021573952
0.0607321731386461
0.0521495537261563
0.0471104036917502
0.0468134524911266
0.0459955213967515
0.0466343355027513
0.0567903690541203
0.0474520409019208
0.0494264761904328
0.0469225761257486
0.050174147420117
0.0477302620663455
0.0453207326817162
0.062884667497401
0.088939344487617
0.0555402742695953
0.0602281945280029
0.0356095443514059
0.0678172076163376
0.0790606581481062
0.0502931606934872
0.0570113466739743
0.0496197726869355
0.0496011754000735
0.0448324539957324
0.0482034773585316
0.0473427990161207
0.0576778125847788
0.0486557688469345
0.0490494751142498
0.0493730918753862
0.0452339443019437
0.0532456313529486
0.0497398452741161
0.0677250647508605
0.0638271106238099
0.050627477463448
0.0599945337519813
0.0532656857783685
0.0513771233502302
0.0501346670710378
0.0537345642724112
0.0502166815778271
0.061821190828958
0.0667554621942641
0.0541719779142129
0.0751022630912906
0.065219685670471
0.0506340413554042
0.057854958516083
0.0595930601108141
0.0722707059409296
0.0390408876413509
0.0774091599564544
0.0788643963935656
0.0757107581462846
0.0799875239775928
0.0514840493938823
0.0612619659147119
0.0485902430484718
0.0579866682651422
0.0422753720177457
0.0860967452387283
0.0428564076171107
0.0677594827362186
0.039146449520665
0.0806543154068081
0.063237412386705
0.0664006188943663
0.0535880415464483
0.0568745871036036
0.0512763083089514
0.0840730111213502
0.0548797280399329
0.0582076245888374
0.0877507335766602
0.0874077063096508
0.097280161143697
0.0588814994363085
0.0559127235996155
0.106105951181834
0.0603715176308833
0.0721795414930215
0.0495080044571852
0.0685972746849426
0.0453434864717253
0.0716495294526371
0.100213326704314
0.0657182589701068
0.0640913778735913
0.068199493548041
0.0558684057135315
0.0982130351072175
0.0694013720104871
0.0714931421530523
0.0598652101096789
0.077071702928318
0.0463235791210895
0.147462706224862
0.0629097640953952
0.101645727836878
0.0860502278191985
0.0966461871063316
0.0829994040338048
0.082343801259291
0.0676072344819939
0.0924634593629216
0.0941965418807317
0.081214087420821
0.058063851194874
0.107685615869724
0.0973153676771356
0.0752583407870314
0.0884668195951751
0.0711602231380846
0.0729509037096469
0.129087491149904
0.144880174690434
0.121040943126963
0.0874351221011903
0.0888934886782411
0.119465261472501
0.0852243113336387
0.089842271459656
0.0827317412374504
0.085060811770165
0.0862538895403449
0.0828599035824632
0.105938385110593
0.0873373593337622
0.104009596817837
0.0851699284033129
0.101209970632188
0.117848290123049
0.169191283174386
0.141267226671542
0.10930988808626
0.157332960690605
0.120903334631906
0.123381259934222
0.103739971072189
0.10654217102446
0.118245975175133
0.113659044903961
0.108655379308485
0.100622485041534
0.153002258978922
0.117578863704405
0.143546150523918
0.142397934794656
0.122439864086769
0.125564380385227
0.111325930378307
0.362321450862232
0.135527609387294
0.171157262794718
0.121854631573296
0.184008845025081
0.211535060510413
0.161580278924421
0.14513249684036
0.149286485654783
0.142978111911595
0.159245126149775
0.162047961668895
0.17399797759195
0.184852782047153
0.173570080901038
0.156142492592283
0.212125985400479
0.253471064566989
0.266409843576121
0.212696630680289
0.199706611405642
0.219993579283977
0.230167551689989
0.200667463569175
0.226600541651548
0.197321663450475
0.233768055808154
0.282898012894423
0.238604133424489
0.24358885820673
0.235826234999143
0.29332574958799
0.219008164508244
0.346569313015935
0.278767378263119
0.291020453645827
0.257633805205238
0.283703870255934
0.269369478040351
0.272999571524936
0.326544599076695
0.305820863403937
0.301528750432463
0.300181071318465
0.298850598959625
0.304020227460714
0.308507387549553
0.319453858741288
0.302302864784308
0.36895357541916
0.327377796818228
0.561918129222518
0.342371990263334
0.344834388929708
0.315118575891228
0.334467901170121
0.382341933605467
0.348194817560919
0.398950797251215
0.3610451339825
0.329959391661473
0.33816254862989
0.331005230636272
0.343481782295173
0.327598071180375
0.346176829874751
0.314362303903556
0.394029713142856
0.31101156737508
0.424547444156485
0.406767093810377
0.361246280508013
0.339074608639242
0.345071679589907
0.328818344781831
0.346216024282737
0.324837355587014
0.35109281795242
0.370430732107359
0.330561755836443
0.346157282647862
0.319470336790809
0.378954296689317
0.359767790886569
0.325460258746104
0.343309778701726
0.327664541162348
0.338884344850018
0.305212671780609
0.347055336539475
0.395821192039696
0.338266583138578
0.328749951476501
0.322816508335482
0.323214802494214
0.32312605037532
0.319631789481647
0.329324803565301
0.329678539895208
0.324744857965504
0.335627892057225
0.321462869065052
0.323885857128824
0.316779799351862
0.33269191068151
0.321305397121115
0.334580084801776
0.330905071257542
0.320878706887596
0.325402140609745
0.325775127679209
0.325051772714045
0.32559460929554
0.331136014764762
0.333549327338954
0.325057576287541
0.327275908946116
0.324063115649411
0.324919109985937
0.327087459188666
0.326099275296166
0.323551561686653
0.319175843682536
0.319840250980626
0.316052777770238
0.319671857327872
0.315327937615663
0.317848035657788
0.317927041456856
0.313559554961935
0.312509243930027
0.324118857324688
0.288334243395478
0.404722756435349
0.326363296614316
0.319694291400817
0.299167735424005
0.30160518218621
0.297125857235146
0.280837247455849
0.349174200719403
0.318430032840929
0.289472398183102
0.283009275994597
0.269450347276514
0.297642140165295
0.282899979777967
0.262474562214222
0.279944969476786
0.238234768791774
0.349109126020377
0.302300522040048
0.385348951143849
0.349051792771926
0.292097135637078
0.242507034750751
0.275835622000881
0.295621342634144
0.240343586724666
0.24844771374601
0.220063313209142
0.300163434373001
0.242296425051764
0.235913979656683
0.227095956204131
0.219090354257445
0.26052535398724
0.26554523737958
0.231487842390287
0.263599267241888
0.26738551420275
0.236432274539029
0.281248789804129
0.316128419597991
0.256475739687194
0.210912996212585
0.220929338645
0.204486490947549
0.21222167733002
0.281676773527522
0.207017034646471
0.233985840825092
0.191697681024023
0.200228030354512
0.195528294721517
0.227765941265423
0.20147832682719
0.204509690929856
0.253379603773354
0.180882481160637
0.22750859261022
0.199038148015949
0.257079381710326
0.24724543239715
0.213759387700448
0.174932886606544
0.240784185781052
0.238607507803438
0.198340519796314
0.213994838043612
0.174323657856199
0.190315390232152
0.212696789093031
0.173733898947864
0.214205271881567
0.198699366114923
0.220883526596196
0.257868170671454
0.266349369874461
0.254126774048381
0.198778873151134
0.176353102825096
0.181918659044317
0.185606656778107
0.195891352340001
0.164133322584753
0.232528044048663
0.187061072612037
0.190006610074853
0.247871640495465
0.198606788201459
0.19470820295343
0.193331408673885
0.185471636280348
0.205247885569206
0.233396101992678
0.260410069730445
0.217032359929111
0.225822423504744
0.240026329850771
0.216539347235735
0.223979720600078
0.218568697150895
0.228735623277368
0.222388010427806
0.249802323358432
0.239119378272484
0.243047778163998
0.250379199569956
0.243253724035537
0.290820445136215
0.299956700639809
0.253647299957435
0.330004115290879
0.281548959939399
0.370027916928186
0.305077854795072
0.305817918688562
0.299039386370932
0.306309153070549
0.311459130358279
0.305503521860131
0.331679713826992
0.368268052180169
0.323963202362428
0.346556256674778
0.325018771940353
0.349265026767293
0.331591224895739
0.399107139393048
0.346590621618934
0.467977803347227
0.400700534954933
0.392539037827306
0.368948999481859
0.355200282217031
0.37688677757987
0.370830502967122
0.36164260748517
0.364649289844023
0.372185392421493
0.411114889980839
0.372506655173428
0.383183928699465
0.372270298909425
0.386154161568894
0.377776913498638
0.384840856136674
0.385193563280306
0.389427634914679
0.400806505806491
0.398184914785978
0.397667075961088
0.514561777175751
0.419084209188184
0.419944618403942
0.410342598923859
0.434820545094189
0.414269133990537
0.422179036341873
0.457399924478072
0.450324103666071
0.435878292674651
0.446813651020713
0.440519973082706
0.445002481087559
0.452608128997254
0.490346604740594
0.439762072152081
0.477403950856608
0.427752233843503
0.520575219516137
0.511948655610933
0.495318549370715
0.494939907724236
0.481675159012757
0.475360949966765
0.476589625947288
0.479854072423072
0.477108321198765
0.475437609686032
0.476934311111297
0.473950667346705
0.475531778095333
0.477060429094267
0.474826209396277
0.472003716582302
0.50744033638311
0.476248418194084
0.481074764960264
0.471598675934337
0.477588053495096
0.460818972397576
0.505988380142125
0.489544107670134
0.485339631595649
0.484381073127211
0.482404477673636
0.498280280467992
0.488871269196809
0.464426442609797
0.471915202027995
0.461293188013752
0.480268958285846
0.460632173936386
0.484696607763525
0.50657131431051
0.486178036162777
0.481076997469237
0.483511940878593
0.481391496773667
0.486334462403063
0.486931366305735
0.488576297063897
0.498888215288636
0.496351732319693
0.503857815759754
0.5036630772164
0.503366987292775
0.517237964519657
0.528585922020299
0.519860628687387
0.498851556492757
0.507421663966744
0.491943852215946
0.493089603077499
0.498022556451477
0.496698060030725
0.474567972994266
0.480823201961268
0.476892948415446
0.479497859819987
0.514719475410614
0.465123745099818
0.486748771452133
0.470313850020313
0.455692517804035
0.454117320068808
0.452505963503322
0.448763673519532
0.446503512324806
0.449922813588518
0.441103424948406
0.43771670096202
0.436949859396008
0.435643286839291
0.429979687706789
0.436207467463166
0.43383958072303
0.430524578067367
0.427712780946804
0.427727293194974
0.422217407712735
0.425366147445251
0.428405257490278
0.423403956879918
0.441762184162553
0.441966481075602
0.442681452479068
0.428185842279294
0.435765353045813
0.435799191512
0.422127313814074
0.426616082904774
0.420528822309616
0.423509957489574
0.416282691478107
0.422142836047297
0.416320162944862
0.42424584529478
0.416387908026514
0.42202318101219
0.418797818019793
0.421045146696422
0.419261911928203
0.42305472612725
0.414156094752602
0.425793324799084
0.421050566028283
0.432220256281358
0.421785656900711
0.426563300421358
0.420887275522212
0.422500148354651
0.421959140875288
0.421689506326482
0.428080095998148
0.420358586676471
0.414151305766498
0.420060126701235
0.416809092661759
0.415309885123796
0.417382421252857
0.415681067891725
0.416475583158306
0.414194384644561
0.410914902166873
0.40661200387672
0.408080131213045
0.408438872807396
0.400888955597459
0.395727602263756
0.387945644503869
0.394239518104421
0.387688705620808
0.383086291583161
0.37920380764486
0.380704539217328
0.370841629946297
0.367700886028985
0.362063632109251
0.364936251428866
0.363380669540219
0.364594148072878
0.361501195442491
0.361326071009442
0.358614039417077
0.355076253453746
0.352975717408466
0.353525834521214
0.354409607889239
0.356108497749227
0.354523433018597
0.356936228808675
0.355756416097927
0.357431436542927
0.355750722047475
0.360129990309782
0.359270454512877
0.362103452912191
0.362317693200418
0.362276210678825
0.362948243044136
0.370049364138256
0.370168777918268
0.370864039709211
0.371621170441989
0.377553105211882
0.379824188628052
0.377715397683726
0.374944886520976
0.380348968150126
0.383326620661306
0.383138958358256
0.377762634473346
0.380816900050815
0.377912448581605
0.38222634761289
0.377893879004582
0.378819505415538
0.378649259364969
0.378616197672317
0.375934257999772
0.375669003872433
0.369869303532827
0.373966189107856
0.376851209829563
0.371338990778885
0.366808882409956
0.369501512739568
0.369163895336289
0.366282722259975
0.365335832849839
0.366722355820753
0.356838521327902
0.361245617017774
0.359405637099696
0.359142775507069
0.358090225362409
0.355716816322657
0.354872137859551
0.351680586308802
0.349860336170876
0.351412751262178
0.34784466404098
0.349581574881799
0.34906179704141
0.348944143750334
0.345420720421981
0.350618191171087
0.346205357977588
0.344127556125517
0.340826329395764
0.341902448978026
0.338918989822813
0.336967812058261
0.337677603099484
0.334669813748691
0.332729887227329
0.330763856603196
0.329523026760847
0.326725413230022
0.324111053541613
0.324080056864006
0.321759175347341
0.314664282654379
0.312140252090084
0.310470200697312
0.31024815650666
0.311177576957978
0.306094343272572
0.304852923232648
0.305557336729413
0.305279421700757
0.304905838498436
0.305922726541231
0.303159556199753
0.303669284734385
0.29941896839333
0.303005793577634
0.300330385378196
0.296814102604843
0.295122766799799
0.291839196294188
0.287813624740304
0.28691599242752
0.281818356247916
0.275490549175295
0.273568288918596
0.27152812969326
0.269655654545954
0.271306987391191
0.268543093243573
0.269458662527762
0.271807928194348
0.274686193236021
0.279168480059863
0.286304225152851
0.29300759626453
0.301659681793678
0.31238863411959
0.321419984059269
0.332609892690021
0.345897192842372
0.359571852944048
0.375786940617148
0.386427334540734
0.401179850935773
0.417206900509518
0.433320824902656
0.445071702378354
0.458653830630053
0.470410616907419
0.482613395509323
0.496615277433078
0.514283095292713
0.523362621170823
0.537440562676975
0.546922768200374
0.556712099622111
0.566695589618351
0.576192186306499
0.589859396626525
0.600096785636182
0.603787940435556
0.614907933399626
0.62065225648396
0.622540568603023
0.628007496212223
0.635579723635394
0.634144222922886
0.638605056375952
0.638088016888775
0.644504564144362
0.642621280738488
0.642658161487793
0.649663775615835
0.64383875291421
0.647146778317503
0.651754136569741
0.651898506645783
0.649996708283849
0.655364541969086
0.654089761609383
0.656275875832351
0.66142443255467
0.668599951206996
0.671780632816458
0.684827931185346
0.6809451999734
0.689352381014158
0.697229465914582
0.702633611273028
0.705370736612122
0.71776159984478
0.726868730679636
0.736999283210945
0.743383278327624
0.752416655009688
0.762877227794089
0.782344781601211
0.789919948013204
0.798558154672761
0.801859866115047
0.822893708282052
0.825891797637607
0.825810590832265
0.83265843286121
0.831465281662149
0.827184595357118
0.829661631217265
0.831147197929388
0.827969601665132
0.823862280919915
0.82493108199559
0.814606511048507
0.822280987130603
0.814382891546093
0.816886954340173
0.822021430041569
0.816961891025914
0.837508397221827
0.849734285138437
0.859178556549694
0.866621729161925
0.882340661176581
0.895792830841389
0.909966517437787
0.934979795332396
0.942295967091957
0.946264308341248
0.968604845928771
0.999261462162883
1.01008140819162
1.02109834913112
1.01796677769098
1.04578967007881
1.06001430314332
1.07548258521843
1.08072148539544
1.10121574766274
1.12472156069823
1.14101843460503
1.16517007846546
1.21028561954788
1.21595250931159
1.19179197462596
1.24934387152474
1.2861109409029
1.30167251400878
1.31896458635932
1.31634103089499
1.34931850493522
1.37992005951083
1.35925636623094
1.38664514435694
1.40541922641005
1.39018999205319
1.43156096174162
1.4680175792541
1.41961131414522
1.4100941267829
1.42473383129268
1.43484765248088
1.43200201969234
1.42576680896348
1.39340962134869
1.38319453050341
1.40767102541358
1.39279456534325
1.39993505487179
1.36195013671916
1.39305485241706
1.43406920718268
1.40082161638704
1.45388705653816
1.46227312591563
1.42649012759701
1.46041196001886
1.55504988187015
1.5274608234707
1.49927441573223
1.50782813234651
1.57705300740321
1.61647725896623
1.58878114411679
1.60224053279873
1.63770986799708
1.69028338191597
1.66864675342803
1.6770623279921
1.64455477721689
1.66661304971682
1.59526206113896
1.7195388597783
1.7813954099524
1.71110732434464
1.7994947762376
1.78853028388802
1.6186458631586
1.77177779213863
1.80673959880581
1.85015253487938
1.92385325097005
1.82434645434415
1.79287452884432
1.74086979211449
1.7062945548064
1.66889196935951
1.72772040230953
1.83136577486514
1.85706070143539
1.77408840616301
1.7589637493726
1.77079483707834
1.67044501324898
1.71746896204033
1.63730490705021
1.69225321132269
1.58412734057039
1.52608303965742
1.47928753780337
1.47042992289341
1.36057264912068
1.31050579977208
1.2467382266672
1.22016720988329
1.1758025270592
1.1655296768248
1.09681570296174
1.07337983818396
1.05175405959583
1.06002416525957
1.04037544739364
1.02724249386504
1.02720050919435
1.01200095930298
0.979485587146283
0.989220941934342
0.974082453364007
0.960095687037476
0.947577316889918
0.937591885890412
0.916584111219506
0.895966392468831
0.891689037628416
0.859638840124358
0.821956954888486
0.803438362705429
0.781428375454185
0.755840602798702
0.721380064557833
0.700393135314715
0.674469874553044
0.640312367839807
0.603950876952903
0.579066340182449
0.549588827950458
0.519318451551554
0.491133310738979
0.471565486415679
0.440869547219767
0.420256479625081
0.401649140144166
0.382493086172412
0.373026822320216
0.355352921749045
0.342646608404839
0.332217776961921
0.319420012553437
0.312250192300081
0.302923740933911
0.294651140892254
0.290240592401515
0.282755670506533
0.284458221383172
0.278229844080099
0.2771039312583
0.27870504229636
0.274208804839901
0.276658954810664
0.279455180244762
0.27925755518219
0.27772111510531
0.278406981014819
0.28240691863934
0.286867615239297
0.28468158428813
0.290134826481332
0.29358497161234
0.291230766942088
0.287819026207753
0.287163146535927
0.284383430804857
0.283131661573923
0.279372901576713
0.280382351633447
0.27166843398418
0.274342366382031
0.272115099648346
0.267743234413321
0.265448279958444
0.269230359969477
0.268389868455751
0.262663484075929
0.26499300694502
0.269738413685766
0.272138908745569
0.269540893532961
0.272347208779409
0.278627011534755
0.278596252375988
0.283170820793271
0.287733805685514
0.294211126972274
0.289026915836022
0.291741864998272
0.304592031741215
0.303277179825377
0.302559557995841
0.306523526276308
0.300952628459016
0.301672117173334
0.306671909090409
0.300918469267643
0.311457559337893
0.312519512467306
0.306635766155832
0.310764558373209
0.309964306276467
0.314988609143597
0.320740907489111
0.325198629958716
0.329282167346868
0.33627944525173
0.34224247566679
0.34692932086308
0.355422551607391
0.362128158280815
0.365828530534129
0.388050669493138
0.398418221160454
0.410568546407334
0.42279965747016
0.429726027238093
0.431482423169904
0.437964392076607
0.437344560952695
0.433732558599618
0.426553882261119
0.426639944458633
0.416695483611823
0.409696652439497
0.399661119134401
0.391059018874858
0.383167084675796
0.380803726114067
0.380356574417032
0.380522072011382
0.372505835412369
0.371627330269887
0.37700051856177
0.37835359285769
0.381050749190016
0.380265513539817
0.378262407906392
0.378350908157669
0.374671799125152
0.368051117671601
0.367311415200307
0.364242988502437
0.353855204373749
0.361549258479522
0.358722843358
0.344992843318718
0.332032657565884
0.328457789883726
0.32858103647344
0.332279830709035
0.329966315415637
0.327469684022262
0.318298092978323
0.315919274688972
0.312894158898928
0.314592249460113
0.315061098132613
0.306411089776524
0.308966638878764
0.314685903597777
0.296901101106812
0.300225000720439
0.291858111863942
0.300480390979282
0.301704276980818
0.293093524945396
0.292990839565239
0.305199947932044
0.284912569873089
0.283068075190338
0.28818457506603
0.280519716123366
0.293080752487677
0.289032699346717
0.28226242612554
0.282799654955268
0.273481488212422
0.276505509311753
0.267478587471861
0.267775212031614
0.26893749725715
0.266509098530346
0.262841498891093
0.258658696798066
0.262649121635405
0.257780906536095
0.256256171943269
0.267409885913617
0.264387959711495
0.271358733358679
0.267070019016333
0.274051101484629
0.271254166834656
0.26262007210578
0.267194439492188
0.276486256577637
0.268865153667673
0.27125459063931
0.273647352894572
0.275153777657911
0.271080603018933
0.288738134077107
0.292799849178317
0.286878220064818
0.283193525266747
0.285856960375624
0.279121044641908
0.29243874007532
0.300703077610862
0.303002498135734
0.305869381084045
0.31704983750384
0.321876229909686
0.32032674147493
0.31077846019556
0.328038197413554
0.335085539782982
0.345850645560377
0.348600438618627
0.357076708998802
0.367714611263162
0.391648103156859
0.398925068207575
0.411479838935937
0.407823692545284
0.429374146343261
0.45905699158315
0.459359857400865
0.470232155415312
0.477146884375715
0.48031439295003
0.492922625613776
0.516465392938546
0.521548654279685
0.522473665397417
0.521698230383366
0.501454313660127
0.506741805473733
0.534352946953812
0.515249278640325
0.498692487505553
0.498045652422252
0.497776985742591
0.496138206959844
0.497095256821905
0.507144419754422
0.503306397990758
0.486746108835643
0.473270662473643
0.492534881003713
0.5019506582022
0.478292698015549
0.477383986869726
0.469929763118482
0.455767642369775
0.465134754533903
0.459452119542856
0.457532248036409
0.451471067549954
0.449039583044017
0.448976899081405
0.455696561559032
0.440995581113223
0.437287934201737
0.427905523278183
0.408180619474742
0.41415846786278
0.429439538273822
0.427715437089901
0.414918883019428
0.406333232429592
0.409396078742718
0.427855195198472
0.430729785556068
0.441077154992821
0.40160697738422
0.430160780094131
0.460263211100345
0.407890971283751
0.408012069553645
0.458720801289106
0.47207100104985
0.446885133821913
0.425716122364007
0.425243994936069
0.428776150184567
0.429538741296898
0.421317102321514
0.450597461273387
0.491609171848549
0.473069936686521
0.50469453222399
0.473740166060772
0.446582047417058
0.458697044387468
0.441838838312334
0.429725629814961
0.426635007783741
0.469693084725809
0.488338489220968
0.522343778401439
0.520581739982156
0.474968403102135
0.494967157640533
0.516911956746323
0.572318984297095
0.57368358100795
0.518145884686162
0.579614146711033
0.578284173562063
0.578010086146394
0.53915970271966
0.577367132501416
0.596123519208404
0.564843773990363
0.542848404910201
0.584257443370892
0.57189366203068
0.60872113249543
0.593817171438946
0.658983156738555
0.613532599227991
0.630798590160044
0.642757648640849
0.641911590621207
0.639646733474912
0.579632311416161
0.584072035710762
0.58654952384404
0.533367507484958
0.651887085826055
0.635316917758883
0.617437951177859
0.592244827379556
0.631471225395667
0.544828947119329
0.607403500156792
0.580426061535401
0.601642700160989
0.534023924453916
0.571907894459685
0.607442696475811
0.710157170504644
0.499786209678842
0.601399496560204
0.77230030911241
0.618537225474538
0.649257663224
0.491252713843935
0.41366850470957
0.466916894120722
0.417134160507179
0.539641949162268
0.599117948542957
0.7134866521033
0.547184586123808
0.484030257219921
0.477631540345332
0.647951712611852
0.141595701393189
0.649244789531337
0.61981411226211
0.521820351037011
1.00214915826482
0.618969629070299
0.492467878560707
0.988546415776865
0.529850864080757
0.325449821361482
0.940008777078747
0.952987749030032
0.494019301628497
0.620919154833164
0.697289393402355
0.783228459548236
0.970976390904352
5
0.4501806361732
0.658821598432549
