3596
4000.36533379555
650.420452594757
1
2
2
0.0693082420763097
0.069771459861667
0.071621730725806
0.0628449398447097
0.0718943747118874
0.0610117061815434
0.0651726077120374
0.0635809054512395
0.0659831047890395
0.0603092455581654
0.0680307126721802
0.0599457619808118
0.0686873274380193
0.0535450166308024
0.0688867669278465
0.0620877654786084
0.0725557517094826
0.0666171771426382
0.0612014953290542
0.063915905401854
0.0701618880103024
0.058566462555022
0.0702910579092511
0.0660177901516974
0.0699811319188724
0.0718762388515919
0.0696211138289216
0.0600592288093106
0.0678941184690993
0.058931026026877
0.0604956487097627
0.0615526203228601
0.0739181620202035
0.063717420935944
0.0709349099956855
0.0575268964565326
0.0653738976075022
0.05910268945651
0.0697608112604202
0.0694365599101821
0.0719385414227989
0.0612768586859798
0.0731211464634411
0.0651701708754961
0.0707114601978084
0.062866341550998
0.0735470395416973
0.063620338149798
0.0651071682293203
0.0645367267916296
0.0674119512973397
0.0690520688117325
0.0786739794184628
0.0748283741316289
0.0805587029739207
0.0813429166780448
0.0809615136328009
0.058147271782417
0.070875648632317
0.0657478624556709
0.0827078518266774
0.082286065560119
0.0695358942359304
0.0553441951345664
0.0683861545455508
0.0621550930680283
0.0697149814330089
0.0570322939401812
0.0736948728975768
0.0617029744822515
0.0756067202803272
0.065108934308157
0.0888845325441712
0.0657100085445032
0.0758109513174285
0.0668866406728355
0.0719371793704495
0.056253414604704
0.0678625518072557
0.0686702725742861
0.0944410826750428
0.0645404239000429
0.0660024541018932
0.0523773638379622
0.0837587582935587
0.0751446059864022
0.0661688038029651
0.0591702096886507
0.0975873849484461
0.069493182710728
0.0770204017486229
0.049802491519815
0.0674819536326232
0.0486532954964694
0.068004088946787
0.051528736668263
0.0687398256502012
0.0561473894442305
0.0656082112146016
0.0530543275411997
0.0828143388529058
0.0883747644011698
0.102950190920426
0.0785287366548573
0.100002921536737
0.0877537371032974
0.0690058869753815
0.108213108545264
0.102038736670005
0.0578607671634295
0.0663033318236452
0.0563536959731684
0.0806561357540374
0.0592246770263405
0.0732776640918208
0.0813598485077072
0.106561282830981
0.0639980859612043
0.0765820085339357
0.0488349413153873
0.0692636413981543
0.0687673096876153
0.11519587346046
0.0645235344176705
0.0879335657855329
0.0617828465878032
0.0690817266148311
0.0914157479392346
0.109432987262786
0.0593823764718609
0.0621343890719861
0.0547802114521001
0.0616150219358887
0.0671331887979844
0.10971171365713
0.0764925939323296
0.0665601583410058
0.0603843258726483
0.0924217572418833
0.111945542698944
0.0867899388204683
0.0587755971811701
0.057715442223681
0.0738281561856562
0.118933612429124
0.0676434830554169
0.0688145719332343
0.0752314713616549
0.0834329321293335
0.0492008122105549
0.0598954750287907
0.0536488625258305
0.084422372677789
0.0599336693897439
0.0618207180578057
0.0833679249457527
0.159459447720516
0.100497681777426
0.122516748764381
0.0837229273571289
0.0685752572193747
0.0664928223170633
0.0608827553503937
0.0614851550620718
0.0628013243062691
0.0603745043732837
0.0824123054320964
0.0915872916635013
0.0688867443829855
0.0663331492923113
0.108844074170816
0.0749966179199512
0.0812009689616166
0.108110340396435
0.0937409387066524
0.0481903678427414
0.102250857280157
0.0742371520061095
0.0633152830434117
0.0771211641585268
0.0970742482346126
0.0616428461439204
0.0654824530845087
0.0549468377553631
0.0804640602218691
0.0860155231088511
0.0797631915569124
0.0614715267670542
0.0676904444629127
0.0479268257646417
0.0850450832328138
0.113182318132463
0.108356419106752
0.0696138817342281
0.0662697167257088
0.0533299761520009
0.0914075060933187
0.101405646826295
0.0705196613104771
0.0575439184049916
0.059873541276773
0.0476499086308387
0.0632458568006874
0.053565918811469
0.055306361574987
0.0555920772605043
0.104098663180135
0.0866838478445088
0.0563465575438705
0.0575852236314188
0.069669144184425
0.0738151204839438
0.10718640741014
0.101454401446848
0.0686727980791063
0.0631531634673953
0.0664315994145987
0.0797243592036767
0.0840570376901463
0.0606222540851679
0.0581742750527098
0.0568314838190626
0.0576641150805025
0.0509792691731583
0.0618340814910662
0.0541858345529372
0.0598423081677608
0.0569569435133049
0.0654193265466841
0.0603167724222244
0.0746806554784054
0.0615114525908829
0.0648218539868667
0.0546756540123895
0.0638592290896471
0.0715043924047203
0.0901056127951479
0.0601745363355773
0.0601592602310074
0.0526492168167764
0.0574812998570316
0.0536174500959278
0.0638204689927664
0.0629845162825668
0.0549710257870638
0.065620875204105
0.0936079364038114
0.0819983292252728
0.0528931315153654
0.062590089990624
0.0746077043059774
0.0798404887810687
0.060714075076085
0.0615131820869318
0.0570337186291176
0.0504477037578044
0.0639217603520423
0.0926891046382747
0.0780982572226234
0.0616553447733606
0.0765844652224559
0.0684087395162128
0.0642723087224027
0.0510725341264402
0.0790411926077497
0.120014658576525
0.0982614381877516
0.0682787537940219
0.127002725059173
0.101294640188948
0.0828525964432839
0.064399166186298
0.0458665521715421
0.136388734747057
0.143513958955477
0.0656774101831248
0.0813959148588169
0.0735308242043163
0.0691549904943114
0.0672941631084996
0.0829910533526329
0.0777508952661668
0.122043693747794
0.14432322441222
0.112062264480811
0.073057918446474
0.0884077688669587
0.097289323440136
0.0658317494209028
0.0671085677956659
0.0663407394529835
0.0706515768658664
0.0855847931748509
0.0886250452443082
0.0884358670639483
0.0632753842889748
0.0805249173691018
0.088170741377655
0.081318414810283
0.0613810821022271
0.0844559897450651
0.0691050631967796
0.0683698855955449
0.0574414325448016
0.0766483615256347
0.0682937239867335
0.0675023220514167
0.0677558106575493
0.11693724411923
0.0831753664159055
0.0836821017319126
0.0871445637441249
0.0792075473777525
0.0628697174812932
0.0662606724426921
0.0582443348185448
0.0701673844288722
0.0515805142808331
0.0664828786847137
0.0917343062540724
0.0828611130822177
0.05029693331699
0.0664101581165275
0.0507377435562835
0.0717935985186937
0.060634893944439
0.0691437893932233
0.0614184557351103
0.0656478736753655
0.0555330067620258
0.0935759825274317
0.0898267049665052
0.0716815125728054
0.0974273478132077
0.119535298892513
0.0642888412016084
0.0732445282725747
0.0608644921170668
0.0743673819942676
0.0677318825123623
0.0678688562136613
0.0640201704229133
0.0765681334775211
0.0816541066068639
0.0822968046809267
0.0613478244386692
0.094445758444425
0.146970888434206
0.139080645906869
0.0951834224692727
0.0790374698446485
0.0713131021348886
0.111880225886819
0.117945364673266
0.114706553277415
0.0992777246096807
0.0829170500604155
0.0725181407783846
0.0834290359149388
0.0716814664535948
0.0827299404630547
0.0698990290300837
0.0837246058555988
0.0639653943101256
0.083390926431293
0.0775615366254645
0.0819163581319929
0.0839258927882892
0.123605679009141
0.0998734262453161
0.0951077372132954
0.0837452045863492
0.090607681709349
0.107623876562065
0.145971921520243
0.129414943212853
0.143905273886193
0.125328087154138
0.158764983150193
0.109140132966725
0.0995166939225693
0.086062427537644
0.096379460931269
0.0956957771204921
0.103760332345834
0.0969924069278407
0.102317900456875
0.100853511828294
0.108391123166892
0.100676785509735
0.103853627477313
0.102095285114578
0.128424545460677
0.116137553780435
0.108072258398167
0.113044111789905
0.13335683622281
0.175080971470258
0.178898002286092
0.127197141086503
0.130394450828506
0.120682650812533
0.116636902117311
0.113771546836979
0.132562193767265
0.12607728343419
0.140595839774345
0.149119096674376
0.165434226102957
0.155353434439471
0.148967348762445
0.118336042442133
0.163904028959959
0.142125546819069
0.17282498189056
0.165578206777291
0.156769927587312
0.133072110840089
0.180816883617012
0.160041387882091
0.180015954723193
0.174729893470549
0.164731767578109
0.140306801764036
0.151879418170124
0.14808765604001
0.17711475638287
0.160726206247396
0.175862597574438
0.159868573050568
0.181249572968718
0.16370007262334
0.183244181977723
0.194361847396304
0.196709876811907
0.178755961248228
0.195261888596283
0.176711974253667
0.189918683089611
0.176315201404083
0.215770280220805
0.213184950963678
0.23124632092105
0.205555086946173
0.197536238002315
0.188708121397102
0.204883644305447
0.200296278659103
0.201606056463799
0.19696171016167
0.213702557881732
0.201882852647281
0.213230325143546
0.210586032090652
0.230207579552152
0.204372212594377
0.225207830254259
0.214633111864246
0.23649587947421
0.219997164122785
0.236308881729107
0.226354908281357
0.289834009655627
0.268723149422238
0.296559426820661
0.272891061087961
0.261199839412517
0.251052921486052
0.260888062415506
0.245892547002297
0.272208758693276
0.255738755909561
0.273540000784067
0.257196997788704
0.279486762321317
0.266546345213584
0.283591624408041
0.276162443813713
0.307106208149229
0.297536095286065
0.312105395053596
0.277833122279037
0.3040765784712
0.27288222447701
0.319442675029
0.298169653233736
0.327951195916219
0.316228228222383
0.331932888527701
0.300887606278145
0.308428896781625
0.316978917627716
0.325005603519872
0.308655781230323
0.334246306851743
0.329265076413111
0.346377051367563
0.334736367591662
0.34346356573548
0.331708835175728
0.363579470141976
0.339968201392253
0.375009625432298
0.351349262338579
0.378000689553154
0.3574491643758
0.395360825632356
0.357921228544307
0.400854800844824
0.378381142651036
0.399053713296027
0.386416341650202
0.408582407092186
0.366348513742994
0.393152983828765
0.380281298447314
0.418488270744659
0.381089578776783
0.401554773514006
0.392217174890942
0.410781819711919
0.423728925180723
0.468368271331953
0.425548505575115
0.434332245942799
0.426415796737464
0.449862067856965
0.417618665153572
0.446648624970092
0.433437510732447
0.46337667066632
0.432083359609589
0.473600189942183
0.466887519181584
0.495625204167505
0.455429763307129
0.493061578317736
0.463178791034012
0.492860089985316
0.461165633413524
0.51376183362977
0.457728853222761
0.500408434900888
0.478205105741579
0.505721285673566
0.495149901961942
0.522623285777407
0.509939679052204
0.547879093750799
0.49542372367945
0.531181039227591
0.53318752093711
0.568668566001296
0.529615755850994
0.555595454323123
0.539497469792662
0.570750679243895
0.530477439758935
0.568622063371158
0.553675184667932
0.565695696043225
0.544998103026913
0.583262770130004
0.562405789928479
0.603631628447827
0.570724443745767
0.584375682267857
0.536890576718023
0.594458271967998
0.544429290202114
0.579204260396017
0.576253377099343
0.634531480196562
0.585219312246563
0.631911328851574
0.604829898791828
0.645844773173536
0.603725975161781
0.624535397497225
0.617131292576819
0.655442086475593
0.62752864259011
0.667141231990687
0.631458951621121
0.653543223735357
0.621871339766748
0.670882017430828
0.629962265166964
0.667025043711099
0.648526493706325
0.722882622401686
0.638904816668092
0.688121265544893
0.666159626619369
0.687881004305275
0.660698028587678
0.730842810788123
0.651959820290622
0.707751422931155
0.662499782002683
0.7115796590132
0.654656775368343
0.743301598110081
0.654619992448357
0.717540109636286
0.680853625212641
0.720789184600228
0.690196235828142
0.76427686069962
0.723076206019096
0.775745489149888
0.717502282791478
0.735639936497942
0.689617923208199
0.747451550390519
0.73909087010772
0.821361574890343
0.718004899498028
0.811461351825551
0.711040231451704
0.804715966809119
0.769970685222603
0.851212815689025
0.74714091609049
0.787965341026976
0.75069820085507
0.805656068792365
0.719947860272352
0.752159540354074
0.732320674545504
0.807734904184963
0.736964140257501
0.8135056350483
0.745233593874605
0.831393682486195
0.816723526813076
0.800492280897227
0.780602361705196
0.819102560775241
0.771713883213521
0.837754228905914
0.792825286298002
0.826092730604383
0.823042022264268
0.86734064268809
0.781271303615919
0.86532722159327
0.813240330983771
0.84326380436769
0.823322524333222
0.873265827757739
0.775942350156047
0.865397611455257
0.813773195241198
0.860041951990475
0.835459207862099
0.852005805904776
0.842363038304506
0.856020028910675
0.823196954902104
0.88400296035632
0.818410905778073
0.90598208647588
0.789713662248642
0.882188840194494
0.856784247478255
0.867040068133201
0.807635616631634
0.916950736901006
0.838385074388401
0.900057737894962
0.868547643802451
0.901175197027613
0.783384719654819
0.894938115093136
0.827714017376387
0.833538023285471
0.792683923300524
0.89806888685046
0.840273772803194
0.96731507883365
0.888102589704197
0.936691017712563
0.894214615097823
0.887323016809132
0.854466491811332
0.896420019671395
0.847137259549385
0.94840072473161
0.896247713807825
0.916603084387867
0.863816974155927
0.920518220342019
0.876199014894955
0.916544489548694
0.85145121769735
0.934278672528079
0.872563580717206
0.929422677700427
0.879347449704318
0.963255454489037
0.893821854159578
0.96227275513354
0.832336350070213
0.922098150813538
0.858739019732852
0.885660985650129
0.852226416569201
0.944599866987782
0.869069058224269
0.902512841751348
0.883342905795638
0.920273125194905
0.897665226670071
1.00141996941204
0.901632907377401
0.962309560968794
0.856005648435009
0.922909761960549
0.886736124607634
0.931330274425743
0.833721941103387
0.928141630999
0.858068996128252
0.957196211156528
0.882532379125069
0.91387902369464
0.892048194514816
0.931426619244432
0.885838429147207
0.936477382138872
0.864947190047744
0.962872945055699
0.874055766404427
0.955477397135747
0.886856057419891
0.948500554940413
0.897013902646196
0.941376963421981
0.901357240631959
0.892990835256664
0.895473047817088
0.906512648846899
0.852450372345056
0.904075460803208
0.896073279240057
0.884154287622668
0.883041365111041
0.882223689118975
0.871821823436602
0.928927040271965
0.861379925688364
0.919395532936017
0.860595371273316
0.908664432164605
0.918568122869307
0.909540501756809
0.879434463423066
0.936536376260074
0.848522024192061
0.873895574949458
0.853132820103955
0.91831513154593
0.862570220768842
0.909510428600467
0.852457906860127
0.903084966993675
0.872246782580231
0.908550934974596
0.839138342505296
0.879493237374183
0.846774223210363
0.896238641338277
0.827014430639903
0.877078948894934
0.831540189825585
0.869503564538869
0.830158863002823
0.863073335865246
0.83195462516609
0.862584250195937
0.838210484919584
0.864571803294594
0.878684937257731
0.897349049709881
0.836934741648156
0.907100687969598
0.852205325402722
0.837097059411592
0.855565846345414
0.909125642781627
0.840759750865532
0.847948700428763
0.854325084838107
0.86182719533855
0.7890109956785
0.854946702801106
0.813573978476165
0.836604905564083
0.816508339841046
0.849751436254598
0.81854225250858
0.8380622795779
0.798768113051844
0.825620666536034
0.790043620925271
0.820865035474971
0.820483971046777
0.825940048954538
0.785005517968869
0.846788853190119
0.776475022652855
0.806967892935735
0.797836733316748
0.812398014343376
0.798582478393129
0.788713982785466
0.786572302587358
0.787097350493767
0.76727434884133
0.794378143709324
0.75037408357914
0.780154683951614
0.758252138252297
0.802069678764711
0.765734971280718
0.787500046918116
0.75456767219163
0.827678366804447
0.750300159885484
0.804053216937041
0.748096121224175
0.769038212072162
0.728135119494681
0.76687523575749
0.751996527344588
0.795016718156975
0.742561874762871
0.740299412588135
0.746403417768637
0.757136669068564
0.753081100143751
0.73823905920072
0.741272864783037
0.757884391784267
0.720061983770569
0.759530446614489
0.696814464062869
0.757742233984916
0.696562177503999
0.725825033812817
0.719917170829772
0.721720423955304
0.694598550491066
0.723453142589333
0.694196908333026
0.720769107750844
0.692766968302242
0.732136265805484
0.666305330853774
0.715492441897335
0.660368361807129
0.707043534932658
0.653190060314449
0.70041008000866
0.646777582908364
0.682593769994535
0.663398003180658
0.670223025817685
0.66781868367792
0.689566309738243
0.657050850413162
0.667167976715447
0.655250039897194
0.652878379277707
0.634429562914647
0.648887143234911
0.644621441336009
0.663849633157959
0.61238520864322
0.636687298597154
0.612414667960895
0.650307181166714
0.627971955583818
0.630264527120115
0.607264826336337
0.620678979015706
0.610209109780789
0.618685822389605
0.604439419502555
0.621702729150423
0.588791295753357
0.6051359336946
0.591394354163334
0.614067534707606
0.572040561462829
0.590172086996963
0.584470625388582
0.593462368369726
0.569814109846994
0.598602546814781
0.56739964418542
0.580282541275605
0.552897402078324
0.582346642876678
0.549514028206411
0.565268003413318
0.552904139046322
0.546275673957589
0.542809850018128
0.558047680847915
0.536143037913221
0.555036961763658
0.531361224876232
0.543704169328843
0.528344946296611
0.535663724650419
0.523394868242935
0.53862838976461
0.519753528970461
0.534685700643447
0.513750150383409
0.521753483089311
0.511149553020552
0.521832785300903
0.501043643819759
0.509906022687573
0.497369784837272
0.498905585900854
0.492292689346899
0.498819177956055
0.48662190530151
0.489476496600164
0.478838571977379
0.489489411663995
0.473089954971885
0.491479772608887
0.461210479071118
0.484999661182755
0.476303536403949
0.477798750295167
0.454120994236674
0.461658361573269
0.458443816915659
0.457656813521074
0.455237956836776
0.451770736353205
0.44337232976625
0.453703742494345
0.433442525166258
0.451609906977042
0.43199515110207
0.450768403595767
0.436721962514515
0.437365055126078
0.417479297179739
0.440572120217984
0.419334229962612
0.429999048291376
0.41279589110098
0.429553786327811
0.416034048460138
0.419724518235585
0.409582099184422
0.420779656775105
0.403861366577151
0.421097838610829
0.396775058136818
0.39830845427825
0.399262886267751
0.406370291521697
0.399533875520928
0.402651745321382
0.382280060720507
0.40008239815048
0.373405995686871
0.400048559644817
0.380392961266986
0.377911461646684
0.366131880152491
0.389889115414553
0.368026131602408
0.37014818293021
0.36136395669958
0.369579390061747
0.351974157155884
0.362807319950403
0.355895050147164
0.361749013087768
0.344703145495932
0.372657265202436
0.346784851027024
0.354954000374011
0.344369927572519
0.349131964266711
0.333715404875647
0.342608223495232
0.33594712604187
0.337071080098287
0.336281263765351
0.340455624769295
0.332873165868635
0.330784314070946
0.320192753933254
0.328572972392243
0.324821809041143
0.321333203109064
0.317645472727782
0.331471607136717
0.315043393346054
0.326043212767854
0.307710212137609
0.316637557144839
0.301331626015717
0.311313898122662
0.30457187423674
0.306367922524651
0.293220177882793
0.299299584862535
0.293988628587301
0.30449471739424
0.300515886791023
0.296941981484322
0.289447404896187
0.300525158841105
0.284472544343275
0.299947889832149
0.286343131721826
0.290243698525452
0.279461275146998
0.285941347449359
0.277910750891464
0.287420271932892
0.272114036714344
0.282277733367922
0.273751454993102
0.274668343624516
0.265049452121109
0.276872927877717
0.261283703395168
0.270544590454054
0.259097460723997
0.27213699621261
0.264263187099962
0.27068355393798
0.25840824660497
0.255194301025411
0.252590691546114
0.260356613905259
0.244147189215372
0.255420602343679
0.245788282525668
0.249023196183681
0.244093241224783
0.248782586459593
0.243256921872717
0.252428638988294
0.243045056852651
0.24359913135358
0.240909205945006
0.249684757299489
0.237062632978145
0.247115762786178
0.237354103333704
0.244744928081522
0.233630826013006
0.245870766328274
0.24440724789291
0.231864989898098
0.231978170028114
0.235895072401547
0.224264943232587
0.239312672315088
0.230230882651812
0.234385512204279
0.226641643106639
0.234083754557678
0.226723731254739
0.236283239445631
0.22361646265274
0.232851005028249
0.231278069711925
0.238353135067642
0.233366940750838
0.241929519760336
0.234016935808076
0.236553655898568
0.231656384963836
0.234326328856324
0.225529604104961
0.243045206548045
0.236154246985196
0.241644153410605
0.236771577140252
0.237284597202009
0.238604171329903
0.247228756348991
0.237479837815865
0.245323387184873
0.237520624914835
0.253778459906624
0.243862300047715
0.250515604635658
0.249033347785327
0.252983732642096
0.249711579887584
0.254419221006176
0.246679306638599
0.26139407896693
0.25663227027449
0.264514653935898
0.253517710528241
0.265868608063402
0.257321180884444
0.270828544084854
0.26331884395131
0.27532834231252
0.262441689174637
0.270581085871058
0.269616628548856
0.277666025549951
0.279205447877616
0.280463419347341
0.268684466490043
0.286024491642868
0.282846360097688
0.292068856820592
0.285066861058688
0.297430437990578
0.289694094347172
0.298772258722059
0.301178899385291
0.315172349415461
0.303410382198715
0.315681071705254
0.313954573376574
0.321563544663268
0.310616217626138
0.326674933574648
0.316006757439692
0.322040332212808
0.329339508238869
0.333433252961143
0.32963196818861
0.337954115723861
0.321420345721272
0.336862434390206
0.340173094636015
0.325167773259857
0.33082121240888
0.35002942424729
0.335594125379568
0.343703583563482
0.341597873856753
0.345553230949752
0.334185947146671
0.339029836682109
0.332158188505947
0.336622362836808
0.325439752748894
0.336210232215277
0.333867819334661
0.338964132447428
0.321314198569659
0.336470995810293
0.333396541628126
0.332586772062352
0.329400202729122
0.341488944217157
0.328264949343059
0.343549875430566
0.336719837359753
0.33503177931719
0.327897447575636
0.33254545916264
0.32926756249798
0.330348396494597
0.329049904290832
0.343136857110671
0.328729463215335
0.339384645283364
0.333938424894416
0.334875599730567
0.325800844239435
0.333481674779352
0.334662485312561
0.344022470023253
0.336787848200711
0.335186420685342
0.327504310864798
0.335309873385115
0.331044027739896
0.33577785500772
0.330008759791549
0.334861347850104
0.329610863480782
0.336997472804979
0.322272591837619
0.33666270929076
0.336938128361128
0.339282382628459
0.322073916211644
0.328028074091749
0.324578749289343
0.327207937113997
0.326038252111121
0.330685005354201
0.319511720523124
0.32748204648037
0.309553397341412
0.325624818306236
0.316493661425589
0.311948628874861
0.308341807646926
0.314928315929965
0.302879557429162
0.300039030901399
0.301520809226964
0.303740276897556
0.297615712618841
0.300662983440858
0.288074411253732
0.2905742442155
0.281695634589267
0.291586387869025
0.275712654654787
0.281210440515158
0.27909018220845
0.276711844424923
0.270197099897207
0.270507391770083
0.268722307532587
0.268616492837579
0.258489577311397
0.262362963177012
0.25423637945233
0.256316539842239
0.254810688225141
0.250987144441142
0.241146174614195
0.245673448423326
0.241705623232279
0.246243979869647
0.239803529543433
0.241386734078667
0.235790824761191
0.234534571175554
0.229449278621675
0.233280220117716
0.23050561253126
0.234302092756525
0.22484043520175
0.226305153140079
0.221978095714613
0.227760539879275
0.226138258101563
0.223336475551728
0.217737311262136
0.218386124773356
0.222647493311973
0.220055018421152
0.214490684539917
0.214675538976947
0.21116495382008
0.215028428304452
0.211193083715527
0.212853261540022
0.2007621975453
0.206766631315453
0.20321531210127
0.207609686879496
0.200057145601486
0.199465299626864
0.197998148321228
0.202588470725907
0.196909814029092
0.200611523685773
0.196276979220153
0.1991399133791
0.197018198711214
0.19647231635338
0.192159462829938
0.194017919310795
0.193522698185295
0.1939160958698
0.184695165686503
0.191073403458314
0.183119188018041
0.190088008780447
0.181504346947547
0.182817022392847
0.180080966578426
0.188480703364755
0.186959727728065
0.18627293281245
0.17994724296102
0.183461108154459
0.176434812558936
0.181106027807027
0.178699312148098
0.176547002765069
0.177384504402997
0.178131804906937
0.172559668281388
0.17571841241026
0.171901658993043
0.173858751700162
0.174134934045282
0.174186717503651
0.168476654718571
0.173662116642353
0.171636083124358
0.172205524601282
0.169346840884825
0.17008066109303
0.171156968979685
0.173976107934374
0.166319565744509
0.166114625908699
0.169204849965792
0.17347760693944
0.167133778604238
0.16998003678699
0.160865451411261
0.169122978359658
0.164238054296289
0.163846388805034
0.163968073472305
0.166085344874235
0.165662400549738
0.163310816572834
0.157235886599956
0.167476113245231
0.157298629596976
0.163088815999232
0.157544929630474
0.161191043425827
0.157436092923569
0.162722894942879
0.158396080059723
0.164605049960467
0.158420538366658
0.154395944188672
0.155413762149347
0.160372421447826
0.153021949535507
0.160581829117476
0.152970888370558
0.157961968133931
0.152380880317366
0.156312520901368
0.150891053378613
0.154712729821688
0.147147174896708
0.150877038105775
0.153912475258823
0.155809848230612
0.148898382227564
0.15321524201405
0.14972698863453
0.154099293525622
0.149804668065941
0.153507916744838
0.152723832722949
0.152593122343941
0.149097683049059
0.155216806033616
0.147752719296539
0.153079670443025
0.148482113803723
0.147325790602884
0.142888327498784
0.150638427537171
0.148690244219945
0.150027199091612
0.15061216430106
0.156284965171157
0.148177747082904
0.149456996794332
0.148150251709669
0.149174564195143
0.151399613035373
0.152356500663829
0.148039263671723
0.145696054144917
0.145039906395011
0.144733935656935
0.144673730307401
0.14602907673293
0.142898654698015
0.145592181207592
0.14150732308279
0.146331829613328
0.138434411736621
0.143078829837455
0.138754564974214
0.142143494996664
0.139170980073872
0.143029054374661
0.135751800658909
0.138004984530159
0.131218205714418
0.140694516789112
0.139604741754796
0.139576311719033
0.134539357000508
0.134536279971767
0.133004683570349
0.135532223395103
0.133307513187744
0.135511203602645
0.1334853353118
0.134995109808624
0.133775331948332
0.135523458653955
0.131440126632796
0.133852982032008
0.129394369108923
0.135023704211047
0.131200917949911
0.132586724344011
0.124488591065051
0.12842391560634
0.128183616721964
0.1292508499231
0.127866680746228
0.126691292143971
0.121889007515254
0.124917876250294
0.124484844881759
0.129211070406896
0.125026810398798
0.126570664977429
0.120933625843789
0.123264434914411
0.122394776368977
0.125247868072151
0.121086328249585
0.123254769582287
0.124337464566641
0.126600570727764
0.121480040186236
0.124179354402607
0.120602845115049
0.119228256669288
0.117021364993719
0.122320198624108
0.116840858013981
0.116604252520993
0.1166701921274
0.116979655453241
0.115232897112728
0.115625907834136
0.110654669137684
0.115264483583693
0.111584434782574
0.11335363922391
0.114292318109198
0.111290234161611
0.111789771613107
0.117191768641504
0.109064608000035
0.110102738665753
0.108144877802191
0.107857749274549
0.106321141357211
0.107601063125153
0.102186975929894
0.106260922855747
0.10493607781616
0.104850901959864
0.104110829665798
0.102785142709519
0.104769266571839
0.105080787127234
0.0993239539742953
0.104741479776052
0.101737776209298
0.101764289092375
0.0994600104636762
0.103034160771106
0.101831300308917
0.10094229568288
0.0976052999563817
0.099617414805785
0.0993400999264949
0.0977907740196574
0.0972474758977081
0.0997085475242536
0.0964212298070391
0.100228480518667
0.100521036932483
0.0992417231285271
0.0953072398357618
0.0983082961820253
0.0979973674803434
0.0986118268903902
0.0956200177626485
0.0974919707741046
0.0947311612574429
0.094960882218516
0.092768514141997
0.0939485122531327
0.090745232033306
0.0947338282754521
0.0985047087623644
0.0961775190630292
0.0910772101494348
0.0928982043343771
0.090981914722616
0.0931707908071268
0.0918172002398147
0.0929245278755484
0.0899840597389413
0.091600183317431
0.0912150971472165
0.0872426398110884
0.0873089742283181
0.0881672202453088
0.0884203588261237
0.0894815537108956
0.0872957188620345
0.0860481096663176
0.0855389148635684
0.0877343180592208
0.0881243514107801
0.0891540960342867
0.0858519292543999
0.0871442436816137
0.0844140494521363
0.0867840421125166
0.0833569763626569
0.0854418754576269
0.0842036473960733
0.0837581577395634
0.0850756063698346
0.0855547742561994
0.0813690686639336
0.0853538791427651
0.0833126773464166
0.0842772920238807
0.0827413427842478
0.0830900428237856
0.0825011621628968
0.0830297413651217
0.0821841205877736
0.08519360530867
0.0839881336517797
0.0833400815970564
0.0825787795000553
0.083087620042965
0.0819213515543022
0.0827302923732284
0.0824989185765592
0.0848290360796464
0.0793043128081767
0.0821255368925306
0.0819162115634081
0.083757196380357
0.0790235792224446
0.0850736464099409
0.083251271832989
0.0819598732492846
0.0797387865615331
0.0821670109825826
0.0814108268710346
0.0834486810124457
0.0808620365224577
0.080547647391601
0.0831679784547052
0.0814302707892034
0.0775527244873395
0.0800264110942416
0.0802668521596253
0.0807176721328367
0.0775906079816668
0.0778264312160366
0.0770023380568956
0.0791064433891263
0.0771451310516476
0.0785740755333827
0.0777141527372446
0.0775731649767285
0.0760728930870768
0.0776303071269555
0.0758033904744643
0.076558173453935
0.0745289042366078
0.0747886216436886
0.0736896387847525
0.0743132990986977
0.0728089465371173
0.0755541808971617
0.0757763250321484
0.0769584383532794
0.0759035007406032
0.0742487875522201
0.0719612986320337
0.0751902874118641
0.0711882267589545
0.0738747285146489
0.0749739871306778
0.0720994195986521
0.0748948917454951
0.0733746534527734
0.0712472609052901
0.0720054412632992
0.0714240738937537
0.0723786734266934
0.0706678987494325
0.0743817461210025
0.0725479372942494
0.0728285538380107
0.0717339242111119
0.0727142220448513
0.0758259775735138
0.0755132824599095
0.0702621891279703
0.071404766460498
0.070802620505568
0.071018500110014
0.0727701214269275
0.0730400869403651
0.0694338537268674
0.0696785448317508
0.0730454434788044
0.0703939842266527
0.0710323127260458
0.0716460555508565
0.0689982522073342
0.0700061552822736
0.0714438214336916
0.0699828963445832
0.0688225221727861
0.0683083637785837
0.0680087227747021
0.0714810118625337
0.0687224812846831
0.0683903698294519
0.0679109737403991
0.0652463109790655
0.063796216089149
0.0652526376895812
0.0652277699342488
0.0645842388625345
0.0636511318854113
0.0631406148160894
0.0654293374628312
0.0629151144530632
0.061762423842437
0.0645363354666123
0.0636153453141099
0.0599007456518666
0.0633132932000697
0.0648733405686209
0.0620210105399401
0.0636203155331036
0.0608745988957652
0.0605300057210204
0.0623065427926303
0.0623481045490183
0.0630688488346214
0.060738273557463
0.0594823387132305
0.0618410632178921
0.0599754531677193
0.0618627460178493
0.061146983910708
0.0609335514647636
0.0593931477247599
0.0590753614172274
0.0596817583083
0.0590495286990537
0.0606466503147728
0.0627377165771204
0.0606050295361084
0.056660720199692
0.0564674095037484
0.0590911625182833
0.058978245401473
0.0573473341136389
0.0574427480583841
0.0580857575692926
0.0589089943841173
0.0576311685071419
0.0570696155191676
0.0556133948243047
0.056867160097932
0.0571879030025862
0.0556269369124148
0.058664226703778
0.0586139104878583
0.0553310143996071
0.0540994773741202
0.0555726968580877
0.0560047863922828
0.0566129780109359
0.0544049926874518
0.054507611465915
0.0531182274933675
0.0522975384385253
0.0528979649867275
0.0527739494138325
0.0536395092189616
0.054546331642791
0.052722820924175
0.0532408957316885
0.052114296363412
0.0523142565009614
0.0519346400642981
0.0493376814495741
0.0505562521941609
0.0511272768009915
0.050195732259746
0.0519869495736607
0.054656852204722
0.0522526693507449
0.0497694143228439
0.0492327114925815
0.0499202978311442
0.0510164586941384
0.0487960620484627
0.0484156347688856
0.0515943620426358
0.0514064536673338
0.0513858292021608
0.0508872081701114
0.048275825968028
0.0471451906779376
0.0493406067818444
0.0481663424793129
0.0500451191413709
0.0498302815502944
0.0488218424569492
0.0476083531692481
0.049984143476677
0.0491557823208252
0.0518629073101563
0.0508288752221651
0.0510394341700203
0.0483961410553602
0.0484039779246088
0.046276982179962
0.0475577689346156
0.0463297393379002
0.0438960118215967
0.0420283133873577
0.0404931827191304
0.0379274025658359
0.0372214180651686
0.0443081259961409
0.047383806650824
0.0421079547323107
0.0381057482427845
0.0312379287208723
0.0375793518667093
0.0398050285729282
0.0356633814370564
0.0315745641155719
0.0381119602517721
0.0324894136233159
0.0350588675705545
0.0302976686529993
0.0358703582469316
0.035659780848256
0.0381506897477155
0.0326852936333766
0.0349204920040541
0.0421136277146381
0.0464110906064348
0.043196091291029
0.0465879103764062
0.0378990563456287
0.0399524826491645
0.035091698172029
0.0424860008214617
0.0364790677481554
0.0405579852801341
0.0360574755011592
0.0388317291170409
0.0362896967192793
0.035863081040289
0.0332399836209307
0.0394735521825862
0.0333191319867541
0.0332705519202498
0.0314118754893442
0.0376386486980107
0.0382254362940189
0.043881025248009
0.0389485162095315
0.0350806810895055
0.0319369296503347
0.0344476801012303
0.0415824792540553
0.0445530746161566
0.0387920930088938
0.0304126071003147
0.0473436936433514
0.0451050707010511
0.0483064838858267
0.0295594379633346
0.051470680612344
0.0424360717520574
0.0516636574412446
0.0267577316412826
0.0556074571302586
0.0401490818656768
0.0510419223729918
0.0379952171859769
0.0532296846339327
0.0389427762920091
0.0494106506693222
0.0425408655901238
0.0454907657045854
0.0486477137277161
0.0433361844647666
0.0447229230575216
0.0409624019758933
0.0428657410508127
0.0433398513032964
0.044453918721958
0.0439573147379755
0.0415332568924947
0.0440007451303508
0.0407506335236041
0.0429455051044348
0.041490602195694
0.0425851630293865
0.0420405273494055
0.0417035678177926
0.0416357139275174
0.0424199538943291
0.0405379351339668
0.0417889518512525
0.0412940324375997
0.0413128050033804
0.0407244180488762
0.0426582418296364
0.0391785041900469
0.0406916345324153
0.0416430910599917
0.0414158774256296
0.0398547317207516
0.0411244637953173
0.0403172818714025
0.0418989197274951
0.0422602550825907
0.0416206371054307
0.0408274758122065
0.0402219401066617
0.038147806505647
0.0398022342556364
0.0412238542500488
0.0414538129442528
0.0416326931079006
0.0430553545640183
0.0397966219237016
0.0412785240233467
0.041766437021234
0.0392600511572943
0.0400795507964643
0.0440386638259378
0.0431744986387926
0.0415604575901906
0.0438096153708344
0.0434081472243486
0.0396497894489212
0.0393676566693516
0.041466745277681
0.0425746066145865
0.039711971657914
0.0423294246166956
0.0425144362450032
0.040742187511859
0.0403803770254703
0.039706478117426
0.0399759803600914
0.0397316306626353
0.0392052335861312
0.0415633820696052
0.039687117703996
0.0405209654179818
0.0418438943409929
0.0409161370156994
0.0392120297483429
0.0398468353088698
0.0402325363714532
0.0408569761942972
0.0417063101541976
0.0397301956581243
0.0394904177446856
0.0408165927290739
0.0412619980597948
0.0404609782594617
0.0390763784311203
0.0366018072940004
0.0394131004214197
0.0420183891624714
0.0398084350032657
0.0395167536690845
0.0397074483140761
0.0401456107938484
0.0408549170177052
0.0385786409442908
0.0388997665353266
0.0381976512178489
0.0407551642275762
0.0415744571237949
0.0391417039595121
0.0399080978106589
0.0390724338677047
0.0392677347052661
0.0408066662299596
0.0440027096693807
0.0408044205131573
0.0405375867315592
0.0438924338540667
0.0414021272338604
0.0401865949740753
0.0415892872755714
0.0414516939069345
0.0420448072313307
0.0422683353828295
0.0409230650899665
0.0424452518234453
0.0435423415330997
0.0436420150321086
0.0432452795306285
0.0394155274363143
0.0402687001828603
0.0413573570794983
0.0421237015713152
0.0411172455018673
0.0414389082503359
0.0423366101256875
0.0425779486076343
0.0410084389238739
0.0407760034629038
0.0406662238325703
0.0422915298283602
0.040832832852141
0.0417195524896064
0.0422725353417992
0.041041941068172
0.043570048959457
0.0413758839832285
0.0407754423564993
0.040983522386429
0.0408914857229807
0.0400953495982183
0.0389748234955446
0.041737764210198
0.0426116544971637
0.0406905821512305
0.0413135830326691
0.0429282126873059
0.0421907316297518
0.04048949161005
0.0414747277518488
0.0401823255305893
0.0423223208480813
0.0406815344532042
0.0392033009307769
0.0397427642874577
0.0417104688403338
0.042577896802058
0.0412636477362969
0.041758441099251
0.0409364746767831
0.0421125838332825
0.0420462881971704
0.0424508417267519
0.042958507150593
0.0430534287877885
0.0426585292007034
0.0433638227143814
0.0441659993774963
0.0411290749194851
0.0410717144966951
0.0411864731751717
0.0413505489895183
0.0414023319455592
0.042476434381737
0.0432408523461143
0.0434218277511546
0.0432058669836693
0.0424767478196762
0.0416896369042924
0.0432439746174009
0.0432666234386934
0.0428496920873086
0.0420066641805463
0.0427079923266782
0.0416667695987578
0.0410221486209401
0.0395723548310978
0.0428665904014041
0.0425049219286758
0.0411581916634102
0.0412693899784823
0.0426014356677512
0.0414811683567555
0.0417024935563526
0.0401377656856956
0.0410607086524804
0.0385337453517007
0.0408019765246452
0.0407016561527216
0.0405220865055295
0.0394860787580707
0.0376187181815835
0.0397446229596534
0.0395467230971039
0.0378301482863783
0.0403613899920506
0.0395134188595075
0.0404283817559436
0.0400749871480596
0.0412115624398024
0.040009039961534
0.040916997566916
0.0392571943443605
0.0381368005513421
0.0393449727135143
0.0389946820706097
0.0380293789282802
0.0397431099537089
0.0392605485014052
0.0397423125876132
0.0396182245197259
0.0402574345580183
0.0370766497773308
0.0387498076274824
0.0387291451657206
0.0388921823429168
0.0367444004705584
0.0399729246053255
0.0378660444767013
0.0380144883162365
0.0374890738902286
0.0394778676066858
0.0390253257102925
0.0387374677105616
0.0382888179183027
0.0379355050096238
0.0391699445747009
0.0405809862132286
0.038146608244743
0.0386116628954857
0.0380823558436135
0.0392557671198834
0.0386878411224103
0.0397009686911292
0.0363924010062405
0.0376673616429586
0.0391126929634405
0.040474123917245
0.0368759603790679
0.0387854559859983
0.0371205123835339
0.0380506584236662
0.0380362116755794
0.0385449002610375
0.0370860473388263
0.0386623062450466
0.0345163640027834
0.039207528483689
0.0390147439546832
0.0373351383971724
0.0378231789994423
0.0387252659212625
0.0364433408691854
0.0357221181588227
0.0366880665027304
0.0396159190280892
0.0387377525758125
0.0380134625987418
0.0375985855407928
0.0375745665164275
0.0359214357407663
0.037248221357344
0.0356634600116993
0.0359778827356192
0.0363537512462561
0.0370460399437771
0.0363273547527848
0.0377993459535671
0.0374268997189611
0.0382143852768268
0.0372409935436532
0.0377261451586431
0.0365132695264479
0.0357672660067088
0.0362953983474509
0.0371447835368301
0.0343685920352425
0.035506352246819
0.0348098604519686
0.0401909824030817
0.0353667800050757
0.0364812069190021
0.0377276692166876
0.0378589218353179
0.0354388970261169
0.0356491562071558
0.0350868756757994
0.0383100562059508
0.0351753976797639
0.0371137652746106
0.0352446157899072
0.036758073445129
0.0359007869726996
0.0364291167861438
0.0346751015966036
0.0366462325242832
0.035375515751964
0.0359549691809731
0.0349157311701683
0.0353820993077884
0.0334267267132388
0.0345049508819566
0.0319307653769747
0.0362911033588008
0.0338418124563629
0.0347789895162318
0.0364187594616154
0.0359210251004691
0.0377539069119104
0.0357522323575781
0.0345351365312233
0.0330579306458756
0.0332818501592042
0.035716243816026
0.0322471599297421
0.0321568999060446
0.0322310619750649
0.0314525835161841
0.0341068762772006
0.0326696546067436
0.0333013240316408
0.0301993738482879
0.0317462142148195
0.0329399665713062
0.0318274711193612
0.0326995067158161
0.02983501921594
0.0323163209218373
0.032706322527396
0.0303249225579721
0.0325349699222636
0.0316420796660407
0.0333111071860176
0.0284659503507248
0.040898119702148
0.0430928625499396
0.0320355162248743
0.0335114876498967
0.0354801748522068
0.0341522859553683
0.0314150959634038
0.0353791789869347
0.03083613068125
0.031109507320827
0.0307056012256993
0.034967574487585
0.0294522554526076
0.0305353534253134
0.0315050846801691
0.0317116184734834
0.0289635951782933
0.0336496811931126
0.0307871481345797
0.032179327908006
0.0301629293870531
0.030255552402032
0.0312538288679704
0.0313608323784345
0.0306452213801546
0.030238266969092
0.0319056024846165
0.04200329574049
0.035531475727412
0.035093509048634
0.0281222347100909
0.0323798434901144
0.0290673385472658
0.0323331768337616
0.029268896832135
0.0286715450350767
0.0285177531023791
0.0324508729895532
0.027890851500157
0.0292894084543623
0.0293528864621198
0.0311339040136115
0.0284618028255469
0.0311396145563842
0.0270777282792491
0.0313414446041775
0.0275396474332114
0.0303715157802415
0.0257652816955368
0.0330468321374616
0.0284914901574589
0.0331261355442314
0.0250778235740613
0.0420178053749112
0.0483020174362677
0.0349569360243413
0.0304836838548565
0.0283725472009406
0.0290865849698454
0.030280818244251
0.0290285829032868
0.0289883352261245
0.0300371183821977
0.0294500849797674
0.0267784814753182
0.0271471371250123
0.0272154923429637
0.0292402655399309
0.0269654030400696
0.0288667881642033
0.0283935978548068
0.0284213211296552
0.0316406345310608
0.0272589747609794
0.0346096652197787
0.0473435834527399
0.0320345435655961
0.0357027496494232
0.0285721433893192
0.0260976334163703
0.0586265715502638
0.0315852237433938
0.0340084490378925
0.029229771359541
0.0313908544188022
0.0253885251045645
0.0335121083865943
0.0254542514395574
0.0310054788654411
0.034075141921254
0.0329653534685451
0.0365464855333402
0.0281951869935223
0.0304099743662744
0.0291058743829018
0.0299524930312959
0.0256922955018056
0.0288967887204826
0.028119900256323
0.027844581578563
0.0284669341909351
0.0257626041890677
0.0280007724405665
0.024558018853917
0.0346540372295632
0.0327200308231872
0.0301007838533534
0.0279817813940382
0.0312350033161292
0.0243193659059658
0.0395341819337456
0.046594498240981
0.0273243914432717
0.0328718866176867
0.0263067047803806
0.0322096884433662
0.0261613666395151
0.0312675445089911
0.0259701590027524
0.0302538263084646
0.0244658124386918
0.031425343807992
0.026958015705488
0.0300968699673923
0.0251965216452529
0.0304811366020442
0.023866198069332
0.0284326070933717
0.0274180653119392
0.0275447700014987
0.0297195847298395
0.0294864364205877
0.0521352835559944
0.0491900393338564
0.0471160675621747
0.0409322423353994
0.0345556118402746
0.0289667715412396
0.0287067848212816
0.0282507714492747
0.0271457217597227
0.0315208716768376
0.0296370190565427
0.0292448079407536
0.0298521506792536
0.0290681174360482
0.0263614129734979
0.0302617241161239
0.0258323997829936
0.0306371286303791
0.024791900325024
0.0312158188006271
0.0263454127089073
0.0307423880023364
0.0213860172287755
0.0436666771331825
0.0327521235095874
0.0387323161199989
0.0146278035435641
0.0820781414926152
0.044411496223022
0.0414508405067537
0.0315297897153848
0.0312227609018489
0.0301469865838326
0.0275930505781204
0.0312794555874063
0.0355059803985611
0.0287560775341178
0.0283228965860663
0.0273735052994497
0.0324562299051088
0.0307125304202057
0.0260968475336563
0.046976330506709
0.0697001849481101
0.0367188011164382
0.0399202435612051
0.019571257138042
0.0501943504634886
0.0585473983695605
0.0312785344773388
0.0372590625326377
0.0290905272724616
0.0315800150479793
0.0273930365112458
0.0307021459850269
0.0288647860378839
0.0377206252939612
0.0295632808990778
0.0293346537518721
0.0306281138348093
0.0268999058477303
0.0363536894249659
0.0300115411842052
0.0474871160038424
0.0429714617246153
0.0291210394127131
0.0394800451400898
0.0324306124614198
0.0304101729379728
0.0298942325684851
0.0337076960018812
0.0283044569100894
0.04414183245716
0.0458993441964325
0.0370891671342737
0.05379721735903
0.0440964519027142
0.0292522327439453
0.0377407041028423
0.0389921518912678
0.0488664923049433
0.0170774001221037
0.0622844370417923
0.060099550495749
0.0577274579368511
0.0554244347144287
0.0322830398908379
0.0396843866404731
0.0267346256001905
0.0353876898882748
0.0227515574351572
0.0632474532843526
0.024530104789984
0.0479336549073512
0.016561236239388
0.0589524776396019
0.0401949019087621
0.0449647437643963
0.0291239681732883
0.0348583415035676
0.0292658850943128
0.0625362148477343
0.0323425143413762
0.0406808736747389
0.0662945796257442
0.0652061548605406
0.0700572072483744
0.0370748459965429
0.0349666941654542
0.0822685988440983
0.0360757048668934
0.0481055762718965
0.0269087801067305
0.0445386974731363
0.0225089622741491
0.0501888162258611
0.0761437169013232
0.0386834487375061
0.0408622987414016
0.043450833101528
0.0328239082322133
0.0741689159284025
0.0412007968360918
0.046282117872339
0.034542631132
0.0501302698779278
0.0231972103273336
0.121932781757222
0.0365119685851579
0.0769815477772499
0.0615629718879566
0.0709657199688751
0.0563801597962352
0.054426077916076
0.0395349891327406
0.0700116253718399
0.0664216929185688
0.0525175817336951
0.0294368976889938
0.0774985822741134
0.064873794453678
0.0455768642099421
0.0572462768289956
0.0409943450512636
0.0447982220457069
0.0993707238032302
0.108854978470386
0.0899783652268933
0.0528655894694752
0.0597857503338015
0.0870956537296507
0.0543871926817059
0.0544400456739107
0.0481390645617251
0.0517390068334824
0.0490972134821668
0.0468172844118839
0.0700020566795657
0.0497326100215227
0.0661743652783222
0.04740707454277
0.0657887160769788
0.0785184902113664
0.136026595686317
0.100174503920583
0.0668779539513223
0.117609284501907
0.0796866818988414
0.0815561920773988
0.0581058619136993
0.0624033243522874
0.072673040567948
0.067331651382914
0.0670472763370238
0.056897852631646
0.106719656723847
0.0688843506042755
0.100967576048519
0.0907006891066577
0.0750052338022179
0.0771477084505636
0.0715145661532824
0.308301953698527
0.0792898853983025
0.122610409647437
0.0702395622829495
0.130725498226569
0.153194811910977
0.101221688169311
0.0863231769201736
0.0894169198559573
0.0791938862701423
0.0982699378279784
0.0961674083578026
0.109984618509001
0.113583476137817
0.104171842235139
0.0898592624413019
0.14306730744177
0.185742808015268
0.191661493706451
0.132688500203719
0.12092940081894
0.140433347586166
0.144526124830413
0.115455523002053
0.135961450287032
0.106499306702428
0.156819295819779
0.186174865230814
0.141302772479617
0.143379916653492
0.142658262060945
0.187752445255776
0.126014998797351
0.245234844596952
0.165819524919381
0.181771353175611
0.144298341926337
0.169609749314357
0.153629102640936
0.162898326643825
0.203641946096287
0.181648476431947
0.178377393356522
0.17327726335088
0.176219211919272
0.178046970179353
0.179896576776721
0.186423166121527
0.180404822708149
0.252532751656151
0.199245496906021
0.45423964412441
0.20763485720959
0.215035022658177
0.18747283672576
0.206278613512374
0.242428220967744
0.212870279548436
0.266381218185603
0.222064529496908
0.196775938304433
0.196965538129126
0.198999227479894
0.205688872353009
0.192229321476015
0.211156407455601
0.182417995681581
0.255340685226951
0.174907909419097
0.289997755228128
0.251231963143179
0.219799018219114
0.198160872019509
0.204928694125705
0.190750664329108
0.215331290734453
0.186780749226511
0.218740751286914
0.221575234072858
0.197100819522555
0.207035362241254
0.185791082004418
0.24329056270108
0.22311705282817
0.196123024700576
0.207353161735937
0.189539041354106
0.212025105001715
0.174412103127837
0.229770961557631
0.243307577014016
0.199870516609136
0.200934614704817
0.192312007305748
0.196807617344371
0.199631862614475
0.188454969396388
0.203060099882592
0.196624482250307
0.191238108962578
0.206965605343431
0.193693184208904
0.198693012955523
0.192930348793446
0.200446436260233
0.193493467206437
0.199582278085055
0.198520728415023
0.19495005861093
0.196079604145883
0.192149754164909
0.196214761334673
0.197837059154469
0.202966985739893
0.202857877214738
0.193756853687835
0.203021983656561
0.19757875021282
0.20227515543261
0.198593199742448
0.199152023753025
0.19372402422457
0.188623442857227
0.192626854439096
0.193232456575497
0.188516409763501
0.188541182197855
0.187635113779769
0.188589436101706
0.188348889539762
0.188018191060237
0.19631040225245
0.175908530942576
0.286530336678471
0.195883446140898
0.193561666211309
0.173932710935063
0.178779407793458
0.173056615842315
0.164728604882601
0.232500220736576
0.194202139095883
0.171255014228551
0.164807769372375
0.153673471604272
0.182869755330486
0.166819388761059
0.151956228348758
0.167093006665541
0.134339195934569
0.249089883302116
0.187579146797958
0.273242348867965
0.228836534834179
0.172883722142023
0.133863127605539
0.176493392083324
0.18492958328541
0.132044516936433
0.146532728585646
0.120515400190223
0.201592734603844
0.140591606441845
0.134101632935975
0.127214308328082
0.122491464673676
0.163494280209521
0.170120364548027
0.137722491591879
0.172803715741517
0.166202789310043
0.147465867925182
0.203367394223664
0.212561217571786
0.162339033668292
0.119574370604828
0.131104357953847
0.116011333100862
0.132076512325
0.196576878515703
0.122859426906644
0.146264620569701
0.101572802617407
0.118149290062398
0.113988386210781
0.146140435621577
0.117176002095452
0.129346776329978
0.169437584784741
0.0998243462761128
0.150556292909651
0.119543235795684
0.185912707599256
0.165011156040497
0.1331745267615
0.095557406272032
0.166064399763491
0.156281189890444
0.122881511188772
0.138414814766476
0.0976116037912995
0.115495231196324
0.138344302715533
0.0998714565346678
0.144585750778211
0.126844438342875
0.150002341192219
0.192127424299498
0.201062535295047
0.180253784850479
0.122513361518838
0.102063768439175
0.106596018234883
0.109448735602096
0.117254574798333
0.0876255061997172
0.161282065511501
0.108181915598701
0.123217585953681
0.169654567531583
0.119821709664416
0.11516995872418
0.114290886863256
0.108929538780247
0.129765821994824
0.152333884156776
0.185039331634124
0.137004727269541
0.149380900048674
0.157843982347638
0.131299192218997
0.136111296565199
0.130851612464929
0.136893981202143
0.136972280331463
0.159444193879748
0.147280092601864
0.146102944269438
0.154169269852895
0.143922626611114
0.199310347567115
0.197411355665427
0.157322605610081
0.227666159105764
0.184855056992957
0.269090189534368
0.187211220478351
0.192788816423609
0.187028514755003
0.188530232128286
0.198492959930272
0.186514075695408
0.215152358258894
0.242918401963611
0.20010979432872
0.218034743682785
0.201696850333607
0.22202824419095
0.208391141852514
0.274324855032443
0.229722223983883
0.330814663900526
0.269617060729171
0.263527082789117
0.234020290873065
0.222439403702109
0.241372224024382
0.234576942781075
0.231317140142899
0.228351496493019
0.235630855155238
0.272185889580736
0.233211323676773
0.243273531844579
0.234415232687841
0.241511286011245
0.242365065399166
0.245134887107089
0.244442940640839
0.240338776311563
0.253983432006176
0.249456804319686
0.246543360103308
0.359735504829029
0.265678102402212
0.27345376577969
0.259791199573444
0.28109864665997
0.265139966745481
0.268778253220159
0.298374607019762
0.287912170711793
0.278838805284565
0.28833920513836
0.282848893768176
0.284468890277739
0.298404341285704
0.334814168437806
0.278511971796318
0.309305670004078
0.267339649308829
0.359691866295257
0.332627525639892
0.328466125902985
0.32029254800635
0.307513143261285
0.307709596076708
0.301370305058546
0.301831521293231
0.30975640618226
0.30897190703173
0.303976076169788
0.30703406268613
0.299824698994703
0.303240433747357
0.297655731966648
0.302039602128158
0.330821628580942
0.29955895713622
0.301686266989703
0.295960542493605
0.302201022079611
0.290149802199547
0.343169963422203
0.309833641266319
0.30892710238594
0.302916100413967
0.313682005230773
0.326735098234134
0.313131521939026
0.293530242988524
0.298239266780132
0.288807491059982
0.307159775772089
0.284525599994702
0.316602235164315
0.32979436947704
0.312194504847661
0.304821559977985
0.301501213836587
0.303177167976333
0.307726675138279
0.308573586389291
0.308889438073076
0.313962027368682
0.31611294106128
0.319987871498957
0.314030226437814
0.315249315925347
0.326191670988646
0.333004255673753
0.333995107819466
0.314459328735493
0.315166371281746
0.304593686139328
0.311175546472605
0.314703679934657
0.309019414077856
0.297736720691783
0.301626670190095
0.294451174121503
0.300520205319869
0.335821419924207
0.29594340988839
0.308119415330186
0.290716711755611
0.282482701433445
0.284021901836967
0.280614887176701
0.278148178054764
0.274090108052558
0.280075581621571
0.268442704957072
0.269908790072107
0.265616060520466
0.266402868738513
0.265005477892217
0.270122404325517
0.267551559521671
0.263480277769771
0.261570261822383
0.262973423850338
0.260862830957721
0.260009857575663
0.263468924955764
0.256397624019348
0.277829560118313
0.279261070043674
0.283282148019752
0.267324874106826
0.273116375669545
0.268582856626472
0.257667005231973
0.265430573110175
0.257222546045154
0.260106762489287
0.257121922399376
0.263205191024054
0.257857029815156
0.259355655751588
0.256137234079191
0.262239198479157
0.255133261754743
0.256312419623473
0.254925772534259
0.25553991364021
0.253295677015049
0.262542549770995
0.256554661131187
0.268391254731098
0.256108265781558
0.260591104890099
0.25832702259165
0.255990714201221
0.260863332259295
0.258425474465499
0.262278612904217
0.259140868454489
0.252610619314929
0.255870455152813
0.253454838439133
0.25558517675475
0.251990011076509
0.254488335782012
0.251150722180908
0.251456643594973
0.248459626206785
0.247581047996153
0.244982114082638
0.247505249741621
0.241034623218232
0.238767829873788
0.235657182136493
0.237274412829244
0.231873643901209
0.230835090173357
0.23095032732564
0.228341971226117
0.221363158644379
0.221446356888107
0.216726074360016
0.221035659699975
0.21970183802252
0.220235193107212
0.219366921909501
0.219375785060634
0.214305094092489
0.214549649098112
0.210996900942094
0.211806394884368
0.209448224917082
0.214235637175728
0.213072560244168
0.214664290596517
0.213587484903091
0.212952613502769
0.214923430194356
0.215204915909618
0.214228673266306
0.215759245927382
0.219216307765755
0.221895297512657
0.223550215104872
0.224651502116356
0.223344176474596
0.222457718220292
0.226599883040076
0.226339785807237
0.227918088964798
0.230737034680135
0.228815864669245
0.22863025691599
0.232085791352158
0.230586486322342
0.229909740957666
0.231349660964954
0.230582077122287
0.229903321110825
0.228358430194223
0.230446974624225
0.227627241682294
0.230230242760145
0.228578011581271
0.227527721745878
0.225459569989489
0.227699497458479
0.223778342190762
0.224110290897481
0.222404169876521
0.223532412966314
0.223395010337302
0.222156830325777
0.223201102518164
0.221297790982018
0.217083161260065
0.220354453107519
0.21668371223792
0.216381028342645
0.21536547749692
0.213851590596864
0.213442764381088
0.213515688296889
0.212999670351538
0.212472596883696
0.211125258090715
0.209305861620034
0.209183778535884
0.211094709949598
0.209042004565701
0.210242267927179
0.20865606386109
0.208271854054547
0.206352621849674
0.209026689854265
0.204910294736435
0.203373670006967
0.202567908552756
0.204119570249182
0.200321034477421
0.20040803516724
0.199345398270605
0.199067092493027
0.197471798213116
0.197094898991463
0.193644735126948
0.192631923964658
0.189468786120426
0.187888633791422
0.188286677577306
0.189205627711648
0.185812649505303
0.187193904905045
0.186317237182298
0.188653935990658
0.185809748215065
0.186625551320817
0.184666422915417
0.185344934544195
0.185449267066292
0.183891094308562
0.182130130338489
0.181375282715661
0.180832594038726
0.179092973842916
0.175815198443778
0.17646002807989
0.17025417210842
0.169137092125147
0.168922637836638
0.165850584461238
0.164602093792598
0.16656820565942
0.164966706658934
0.164962025634804
0.167667291412715
0.172207802718128
0.173255789859337
0.181165962092457
0.186504920274783
0.190861933177915
0.196636530526887
0.205485686491867
0.211308743784426
0.220101588430419
0.229873785738768
0.243602624216337
0.252047417340807
0.261919218288052
0.268523381379791
0.281439960958847
0.288543486301987
0.298874614889831
0.311266935373796
0.317864435019554
0.323972544917412
0.340120548755485
0.348228035952837
0.352976647546341
0.360043951388539
0.37104908581338
0.379637217643476
0.387171420609525
0.39389807340202
0.397523828433262
0.403719866453517
0.410836306131887
0.411750046544789
0.417137267720988
0.421122667800064
0.424282774866604
0.427388440294704
0.426572198392855
0.429329343390547
0.428348592654116
0.428035585285195
0.427711882663451
0.43003000673226
0.430671719151912
0.429861752696364
0.432793710318364
0.432880538565829
0.43092455153682
0.434950718693972
0.440546730419949
0.438901419342566
0.440890933920318
0.445905398589048
0.451391440165396
0.448270333425674
0.45784282223257
0.460560971927175
0.463875233734432
0.468315298418596
0.469634086285738
0.473891737042654
0.484819571219797
0.493784612664203
0.49800054493044
0.500566818363264
0.512580669990844
0.523144935524624
0.52394063400885
0.532240754733722
0.540685440183504
0.542667223097889
0.546128460564105
0.556642267288764
0.552672016915999
0.55602613614668
0.557000292769721
0.557450034284843
0.556356845597881
0.554464723963684
0.557324821624409
0.554904819144604
0.549501105267732
0.548767534369108
0.549392354464361
0.5540036840029
0.551584097286185
0.558461819644964
0.566041049659599
0.573097420682642
0.57995214093991
0.592481949396581
0.60202809612303
0.606387491012507
0.612163165898262
0.628122118025961
0.637770821971079
0.643583119339025
0.662010075198977
0.664915740885889
0.676480013924276
0.690687628594374
0.712313915112265
0.713962076699951
0.722279163200064
0.735717765527471
0.751279335818294
0.754110910154062
0.770857158836371
0.799206056730323
0.808092193181487
0.821560741093743
0.842537741351497
0.847057048107073
0.862818013714758
0.879286816464121
0.876405536671056
0.887376924302371
0.903309430521614
0.920853062825396
0.916716755810149
0.92644077952935
0.938125810645833
0.956689912205995
0.949549878791039
0.950452002031123
0.95193511046361
0.943140342395667
0.942519704885166
0.948471477678291
0.946027672273435
0.941955599956159
0.922593012858329
0.929137242464743
0.921310752291957
0.91669992867425
0.92630084052905
0.923982714031217
0.931043896399207
0.935594802553569
0.942674621411941
0.955351741693424
0.966836546634266
0.964888282027812
0.972380052681345
0.976371657375702
0.974051969584912
0.995113942016548
1.01059712320625
1.01907464906248
1.01663300257477
1.029063079459
1.02931817732632
1.05378317478947
1.05456813212525
1.06216344108839
1.06989434441523
1.06708369384882
1.07389580345179
1.08354606417909
1.07703329562491
1.07136182630809
1.10300603708398
1.08015506609315
1.09101386566775
1.08910040135658
1.07485588532688
1.09368231189233
1.08419156856367
1.0875666550679
1.07625209000653
1.07653649664176
1.08613759131576
1.08742055646666
1.07509710498325
1.06248354049573
1.06810129410941
1.03782265743604
1.03535959524526
1.02924290643085
1.03033605211127
0.98994351738952
0.981566375489433
0.955586479567612
0.933213649396094
0.90642232166209
0.865043668049447
0.848302674112547
0.801433305918582
0.755820083666219
0.736825888815355
0.708857159407688
0.675098586879904
0.650217508364974
0.630907868020044
0.609417850997841
0.596087370115444
0.586746785027462
0.570182272646952
0.568107612288238
0.565639727460035
0.555303271155047
0.541122595568877
0.539586962204025
0.530888681678084
0.518856310364008
0.511866901100028
0.507286857323162
0.491184017785012
0.479692867131195
0.47247706019398
0.465614856932902
0.448547039800094
0.435755370619018
0.422124037761289
0.407584658912555
0.39124075868872
0.37249532267191
0.359184954132481
0.346524365732451
0.327223140098722
0.309055135223201
0.296723165439788
0.279730154013462
0.264485605814536
0.248349111261379
0.23441525839537
0.227143957383772
0.209170371883762
0.200829910562311
0.192531276203514
0.182320520380525
0.174643647060742
0.164624041349417
0.157643354241303
0.154878601606766
0.151289742901295
0.145384787461776
0.142250956387275
0.138757299335084
0.134924540945294
0.135562532497608
0.134379192158673
0.128821473981832
0.129960431130494
0.131316163161501
0.129085709402408
0.129870751260123
0.132668986565598
0.135091284993016
0.132335811960957
0.131933816771107
0.138990479356507
0.138739770363782
0.138416906929935
0.142388048813911
0.14171969081804
0.140306141980292
0.139432522999714
0.137190163295403
0.137723679415971
0.13826866282977
0.136124301653003
0.136536689251208
0.133922119346601
0.133968678321553
0.133952698029936
0.133405291375575
0.128553952437423
0.132468309881557
0.132514975331647
0.129555679356329
0.135677759256364
0.136466866370767
0.134804438052956
0.134991404935842
0.133944961074807
0.134725866035648
0.139116963146884
0.141614319545881
0.14480846681534
0.143070706007856
0.144166233530108
0.1484502274183
0.150470677543953
0.151146990283656
0.151982011822972
0.155201776564102
0.150839923918935
0.153040615732166
0.159567717753713
0.154679709247809
0.156522178833107
0.152825167948843
0.155735616983186
0.159746574275148
0.15833015294113
0.161932531768734
0.162835085435901
0.161388032777046
0.168493989183142
0.172932914886141
0.172890848715363
0.175075109329638
0.182925891431093
0.186785429779424
0.189555623442991
0.203729419076404
0.207651515909863
0.211781736261505
0.215431595134913
0.22312556026501
0.224435257206638
0.224935386936638
0.228035481069402
0.229424845602076
0.221596197411557
0.219846183088242
0.214040806468691
0.209681376720401
0.202546009109854
0.200536087669888
0.197487707255813
0.19167921256408
0.18868059833256
0.18912920685391
0.186419637655437
0.194364852209226
0.194037399274407
0.192586431386478
0.187778750928438
0.190914967725758
0.198506704185141
0.194527796652225
0.186360572401956
0.187502496201218
0.189221270517644
0.187625005683774
0.18457893473891
0.178584738572198
0.169919960619143
0.181113833043623
0.176614274725038
0.173303319262238
0.171824168313655
0.163637555869233
0.167397066186077
0.166017278548963
0.156603386278526
0.163699438894105
0.157967038396994
0.155634114383494
0.156524199507194
0.15525027826353
0.154263217494256
0.159051568751385
0.153639576031411
0.154674909188375
0.147394500439088
0.147444215207433
0.141492498796545
0.147105000408114
0.150467043155442
0.147599554173413
0.136712250323035
0.136927032308385
0.139675827831912
0.137556442097235
0.137202927367756
0.137704334359491
0.139679278121053
0.140176682600384
0.131479851571547
0.135915679119065
0.124492063188482
0.114545209365893
0.131192348014394
0.139024386147648
0.126239831840368
0.122567416390701
0.130718729400097
0.132568985478045
0.121416101616209
0.132031739985444
0.129872041866995
0.123584666107599
0.118335896739607
0.132417812886367
0.132511611998129
0.126126362768392
0.133420680386687
0.135913127279018
0.128390322543606
0.138488057446782
0.134739542764613
0.135202518498382
0.129275238732831
0.13969347003161
0.139265860548558
0.134889171136615
0.135540546917543
0.140365993186346
0.147405737406543
0.150793212339704
0.139800756400232
0.154082807610291
0.14632370317961
0.156087087051282
0.15870765350897
0.160263964466056
0.159648190564972
0.170022571858393
0.170854115055656
0.171532011730242
0.181361562661051
0.196158175549306
0.202193619720822
0.20522131671153
0.204837625981321
0.210923112737312
0.220384393603716
0.234584157044052
0.233656939002137
0.238675692926541
0.242748857500796
0.267481303809935
0.264374741566676
0.261442469201153
0.284677230459293
0.282568692242794
0.274903588665385
0.277618087606426
0.275705443986798
0.269017553981932
0.259920793823927
0.25394747288078
0.259395386267782
0.264286620155662
0.260724070806428
0.252256293856061
0.250983417639182
0.261123011706753
0.263246101752737
0.261104216041121
0.236647299716669
0.247048565701075
0.248310485266127
0.23749054194292
0.24512191657077
0.242878771340959
0.231682822966959
0.227301924007632
0.225140203109719
0.228589583727869
0.238116741909402
0.235618017207661
0.22532782177374
0.227049579685709
0.207853594495087
0.24027426535185
0.216644430689231
0.196033630930701
0.200627509855112
0.196196279009165
0.202212267465937
0.21542934079975
0.222551324054298
0.208641160292108
0.206979703016811
0.215599383135162
0.222430073763103
0.215416479001219
0.206823085395974
0.235151364458361
0.211228055717392
0.205609199534082
0.218537285946519
0.22907428682747
0.230821854527409
0.216783661280015
0.219399567374414
0.217223526542115
0.214975055345272
0.232762945867535
0.225680145743194
0.229763609466976
0.210557660566347
0.222798099345137
0.2288223329608
0.234048476352887
0.224396000341501
0.231733009416503
0.230505562532313
0.223859286441707
0.225347997260361
0.22320840605038
0.26953140403225
0.284521839840939
0.250378671186502
0.270911184593958
0.269860669796445
0.261766828909372
0.235836388878615
0.267138753525011
0.278788336720166
0.273657933527168
0.299757057253628
0.289935390251467
0.280854413938764
0.292698692304151
0.338766952998186
0.343068272762471
0.320896668543379
0.306294173389767
0.310221944044871
0.306673132670819
0.312853820440507
0.281591638870548
0.289686998664716
0.35297974265361
0.366966988808448
0.358292878841338
0.316257404677634
0.306039571037467
0.267842017497095
0.301687433971908
0.302257340942244
0.268051679329551
0.315918503926338
0.331004023581209
0.340886533169133
0.283555747900698
0.342648605251754
0.261771514202693
0.277874826657914
0.273257532828178
0.284427828099146
0.299014969013063
0.251356953068297
0.239003809986347
0.236547187554832
0.282458057798912
0.265633466305784
0.280963110562457
0.251116909109499
0.304167566101391
0.273515934656321
0.26790182603319
0.284343332800864
0.224776213559874
0.295034021933976
0.241001056454039
0.255362478299108
0.177207166248575
0.385142500636263
0.00163405095491129
0.113781056724817
0.322977599795731
0.356332433524553
0.365600295703397
0.288909530762942
0.266141836825025
0.253057820856703
0.426431355432114
0.379310505066929
0.347505492007407
0.123065739420781
0.248759298943856
0.408468720294842
0.25192323945384
0.201069881855552
0.430130234880346
0.276558983256214
0.206215819687915
0.619603960867163
