3596
4000.36533379555
650.420452594757
1
2
2
0.0894497199827795
0.0849176514317509
0.0925695446117412
0.0876972820110007
0.0965832543877356
0.083789082457155
0.0878876650033766
0.084060393123876
0.0840634400195945
0.0832144813783444
0.0863612337676696
0.08418527147182
0.0895853981773337
0.0780176192976168
0.0845683925242016
0.0769696438838107
0.0828326933401756
0.0823322230242887
0.0835348260357468
0.0823737748470569
0.085280120071296
0.0830594194501842
0.0900519502154551
0.0824442185074406
0.0875941690653234
0.0916930554138219
0.0892890339661442
0.0779476651188816
0.0853139085995235
0.0904433387592211
0.0858098784690147
0.0769047500815093
0.0918637497343665
0.0799995205523285
0.0839589162220891
0.0837853536293928
0.0885788244951636
0.0816557624775641
0.0867184865564925
0.0877100683218682
0.0876842364409939
0.0811466987498166
0.0954626697194124
0.0849976678507915
0.0906751552161179
0.0799079849322495
0.0927387920746265
0.0875047508738509
0.0793028094784242
0.0884477360039077
0.089630248015404
0.0816874065564981
0.0926490838030055
0.0918073130223778
0.10153279723732
0.105857058942782
0.0988198326311238
0.0786821960907946
0.0846507285794727
0.0878747592893445
0.100230374093677
0.0950836983253735
0.0897106644300923
0.0748975735885148
0.0825614923139922
0.0822747555750411
0.0847515567838289
0.079432903126719
0.0893751344513689
0.0732873746744405
0.0905739709682598
0.0863913615743102
0.104460751323931
0.0849743049215866
0.0989831708001039
0.0820948879650036
0.0826545499842269
0.0759013410057744
0.08390168250303
0.088344682378994
0.109453713273796
0.0832965077040457
0.0853553671614805
0.0688481960129777
0.0951810440722083
0.0890357868829659
0.0892349491109489
0.0822762514252255
0.118577515149278
0.0915508055503654
0.0904141269854085
0.0696441435621807
0.0825524854399315
0.0658191035295976
0.0875289921747286
0.0673391550182879
0.0826456603976891
0.0700505588948953
0.080848561192588
0.0765508990711802
0.103587073505403
0.0992266937931244
0.129942333339632
0.10028484465912
0.122636859405643
0.10386907667063
0.0815144041443826
0.125238024812819
0.10716129621553
0.0779012208291234
0.0850052753065214
0.0708340409767085
0.0934360488743859
0.0816991071661313
0.0896946119752029
0.0973022915148322
0.12655923027236
0.080230860437633
0.0945252315701621
0.074539462346282
0.0847275085148436
0.087677049975069
0.139074246221772
0.0800859549051734
0.103614516898556
0.0794424552647048
0.0883689202417458
0.1072598296393
0.124998376993329
0.075563503742517
0.081496724620856
0.0689397122796624
0.0830660159116944
0.0818351180750487
0.124038489457157
0.0913807517729443
0.0809448309542534
0.0758950485862632
0.107106565387038
0.135626680469446
0.0986193099681216
0.0782620664494475
0.080537041965882
0.0820119814012374
0.140520039858093
0.0827946954543026
0.0801376239438959
0.0958802390578099
0.0987780697625269
0.0703740067707152
0.0771712239720873
0.0709763223220045
0.102049992308681
0.074258249837824
0.0735792512477491
0.0860805337706119
0.180741717264427
0.10539232525187
0.137609538149454
0.0958895542544322
0.0816229237274669
0.0820891883855625
0.0730988098553288
0.0781704810021468
0.08033414850429
0.0795199266082613
0.0994290507869007
0.110214744855256
0.078858340033027
0.0853497538085265
0.117864383519887
0.0835999434320078
0.0953116881175396
0.136934796527694
0.109826013602348
0.0619609046622791
0.123991007737777
0.0973351850099695
0.0842489918497205
0.0806334422393911
0.113240525976403
0.0852270976298242
0.0870350462501794
0.0705018136681751
0.0897041165223605
0.0969936978741031
0.0933871165309446
0.0740862573661061
0.0886747140148976
0.072092962505158
0.10126250585336
0.129894414578438
0.119591142813658
0.0785786192453509
0.0822566268715873
0.0673059603229154
0.103300414622621
0.128020746536803
0.0860991367131223
0.0695269930841792
0.0754646531680344
0.0674602023214811
0.0783997450430721
0.0711210304795111
0.0710404077719848
0.0725887827843422
0.123831462776384
0.0995961808776362
0.0671289892677282
0.0697490833637854
0.0770412418731378
0.0856546970072888
0.119762398673456
0.115804476821726
0.0851117397988009
0.0888508071184577
0.084375598523639
0.104759615355591
0.103262399429139
0.0771647741617638
0.0776307825911891
0.07296904126519
0.0765070149690112
0.0678262400246464
0.0768104446802379
0.0734932132230682
0.0794637108649669
0.0782497636777071
0.0847815389357202
0.0815688761731172
0.0930694663732193
0.0793050310125573
0.0765895527963193
0.0698176928962197
0.0821954480555699
0.0890166084755346
0.107973881162515
0.0735896095115086
0.0770736592599831
0.0698820771019419
0.0730576264203985
0.0738371239912126
0.0756922668237182
0.0774305010428074
0.0768339753832959
0.0873903586269886
0.110368326077102
0.0961429731362073
0.0738461849509169
0.0838975309867254
0.0976607229238672
0.102521705017604
0.0705697919838279
0.0822216430921358
0.0803529357378377
0.0725520469732148
0.0819883809907997
0.113459293473817
0.0960917716495945
0.0831025600199448
0.0935980771289221
0.0927313653120153
0.0843364366958445
0.0731038728991837
0.0936563927746702
0.14025652418458
0.114562329126358
0.089092386123524
0.141049485071664
0.113222114860911
0.0992145132060705
0.087977433571254
0.0720427749334846
0.163229819279907
0.15245984960819
0.0842676335295706
0.100091832791039
0.0927053529946613
0.0904440827925712
0.0837910170962449
0.100316155500819
0.0867428102248807
0.134894600645049
0.154940348899519
0.14102965979347
0.090711544659476
0.10534697938093
0.121508083531278
0.0862723842242264
0.0821523509393657
0.0813649501244717
0.0898682863782982
0.109071578281094
0.114388339600047
0.10402535315725
0.0913116835753246
0.104778830698603
0.108172292361527
0.101081888766606
0.0841904692378695
0.104170786284194
0.0969578631648353
0.093941507525039
0.0822856322961674
0.0946277619148123
0.0880714640881884
0.0868333113974506
0.089187590041411
0.1508552310199
0.10738250206654
0.0936046911105456
0.112579087378196
0.0942323231466125
0.0772999334522486
0.0898228979844223
0.0831719489077976
0.0886792050849132
0.074618033014979
0.0930659795770484
0.114120706150766
0.106863381779461
0.0763098647960731
0.0902379896531164
0.0776501468294241
0.0930945724711225
0.0843030315082174
0.0890386866040648
0.0859392576756344
0.0924829156016465
0.0836380944803643
0.122304023344904
0.108731820996803
0.0984510402725373
0.117373873926376
0.139143662713967
0.0933753406724076
0.0997868633469919
0.0838384066522303
0.106497517016168
0.0968309693217486
0.0969820212714984
0.0888005661816093
0.106659455640139
0.116515763051265
0.115591265737035
0.101765306808329
0.13077436261915
0.191768929726923
0.177636339730803
0.122475627058553
0.11530434044159
0.105241307512624
0.136544473316525
0.154618861593836
0.141393020778511
0.135356857854789
0.118164799938628
0.108424610845258
0.119585569533436
0.108676158793289
0.119853799952685
0.112299610914382
0.126119311953542
0.106581246748898
0.134355747277817
0.120707115627573
0.12452063568076
0.129597956022155
0.173199221439069
0.134551615306421
0.131439105770917
0.124761226737322
0.138576859277297
0.150545183095232
0.195666888941959
0.1794713457855
0.202746620086352
0.164970522719826
0.206237796504955
0.158837401643256
0.146310444579451
0.137150073797842
0.151722896528532
0.152878816517176
0.15926778047353
0.147595933551412
0.160498042688091
0.16057199983021
0.165789126310164
0.162306120383087
0.164921830194282
0.161894837652434
0.185406341830858
0.181320845916378
0.170357963228118
0.166155794693677
0.194984491252605
0.265808861289647
0.238018263481913
0.185306586572011
0.188631745246726
0.175060721473017
0.190438936642195
0.189254435048688
0.198231360924112
0.199474459185467
0.220807611505904
0.224624338700734
0.240153563997838
0.22580387676466
0.22242672611971
0.191519916679782
0.229674620785152
0.219377962176141
0.242781923087701
0.244493168732811
0.23470723877559
0.212372976135249
0.24899992183349
0.248463873467089
0.255883388289216
0.255682677418233
0.25268557388501
0.228611179723701
0.244067370103611
0.232633794025574
0.257441352825283
0.247279609448292
0.256995531472076
0.258256548476143
0.275936955161822
0.246688174452249
0.273284832338333
0.275130595661728
0.277099643907586
0.265710594929822
0.284412197984998
0.274197678627833
0.286337996394596
0.26749638824453
0.298682213961193
0.321615902169147
0.337339893409504
0.312045032375365
0.302641444494848
0.285454264053211
0.310549953455011
0.29775036266194
0.307596336507479
0.311816486706124
0.331098443659079
0.310376498358785
0.31853331558256
0.315175874003921
0.339240189209546
0.314231692065119
0.345966136704615
0.329748265395017
0.341739924819401
0.332948460752878
0.363847121557815
0.347097153314379
0.415473092337129
0.391499226958335
0.437410072985819
0.393080184371674
0.391152461699336
0.368497227198693
0.388334458361699
0.37751923051467
0.387507342353088
0.385395706920995
0.403689235602102
0.386295963646691
0.406016239768827
0.376243171345792
0.413175121364801
0.39483559381828
0.423100881847295
0.417115053109943
0.446290628016853
0.413559469570144
0.465141761150193
0.419987924601635
0.445513356670978
0.443211396638213
0.462164363830653
0.454465004674693
0.470932732906251
0.441252360679349
0.468680299004734
0.453704211756775
0.479391072087932
0.446339403538138
0.476337219501839
0.466936937032801
0.506305457162656
0.470050671507597
0.496500835860891
0.506188104506133
0.51038741195361
0.49845260411635
0.573391462081386
0.496326405804095
0.53696611454241
0.535873697452747
0.552465155150945
0.524407037499076
0.586512685162215
0.519126609879363
0.560682700248001
0.524355800626146
0.574567289756248
0.542164384546935
0.583586093230704
0.548946122182262
0.592685020440434
0.569640608062419
0.560752532339279
0.568155382586059
0.587644620166262
0.567506811241591
0.62655649477304
0.583521253718691
0.628557712604119
0.589227013930061
0.655588040366249
0.582225701165097
0.615599719937753
0.583502457949097
0.654616963783154
0.641129195936175
0.680612782355845
0.630350627989433
0.677178647911426
0.660255995448797
0.660745477956268
0.627778710235721
0.668897265898518
0.652669429227178
0.696025814790782
0.651942191892813
0.693336523163103
0.683279390865785
0.680965483482343
0.70330738841092
0.747284042452318
0.683779211512628
0.738926179749467
0.696288440414231
0.746186771489087
0.679650048010718
0.753974051170418
0.726802293784541
0.734847459724206
0.7115311335007
0.780734621923178
0.73402988222525
0.776275000438497
0.724311028328294
0.762898179544292
0.735266168961389
0.777924498864331
0.749632094807296
0.792470044532674
0.77803915098692
0.82235378124286
0.755552136882736
0.770989413405551
0.764828095263661
0.845104544953114
0.782654936017388
0.863183646050406
0.777659548370074
0.869615400011832
0.790971401382083
0.881200334990814
0.794219597993696
0.851685751840027
0.838692773655332
0.8948733606718
0.797947984670957
0.878604562230755
0.84682206687894
0.880014297641647
0.816305252823164
0.902085691855865
0.817901547820589
0.901076331246074
0.884675257340707
0.967532972410254
0.848434128726194
0.965002702100546
0.853313979060244
0.99412488621622
0.917033504134986
0.934178642150675
0.877564050488446
0.919062168180708
0.883110445158961
0.944540111105173
0.887115473906168
0.957408758420022
0.894165526004151
0.954719705925307
0.978164972406523
1.03418944638197
0.931687206271438
0.928662786313894
0.928667310366565
1.00551902611181
0.892530203218849
1.06766779716911
0.998394770865145
1.05359811324371
0.985850958635409
1.08321850469737
0.999591817930142
1.09335501689415
0.991030982224294
1.0168390786716
0.946594821005323
1.09306761636912
1.06382692577515
1.06129859226773
0.935173709161561
1.00348926662458
0.912222415599772
1.01796387630635
0.933428237567644
1.10180316769877
1.041381255935
1.08229907619683
0.971421562195205
1.09897819513385
1.10541050064915
1.13438720739106
0.995963004920191
1.12889241589276
1.01364943933974
1.14103705107687
1.07389610750622
1.1285876891922
1.03676851253145
1.09839295759639
1.10105510539928
1.12199683989647
1.07973102550593
1.14658131844982
1.08717633528155
1.15167030885881
1.08736958624813
1.14754838209636
1.13756338055717
1.14733201923858
1.0708068054504
1.16586568883493
1.15839473458534
1.22116000277008
1.07566100336638
1.21554716597648
1.16251490932801
1.1965037164124
1.08776425019411
1.14527384408263
1.16042481888163
1.17572250748317
1.08752537557374
1.20326874370361
1.11010086288997
1.24376571481406
1.13831043789929
1.2217202671748
1.09977748444575
1.23965716566903
1.09501043474249
1.1955386194432
1.16467020742747
1.27494338217775
1.07123080758268
1.28736014914882
1.18800350028301
1.33451020349691
1.28564471875215
1.21296681848564
1.13572923357377
1.24699883157907
1.15928973297376
1.21622558771134
1.1386541732252
1.19584811067665
1.1969614891252
1.2482427818052
1.19974201090509
1.30421954642007
1.1390860292574
1.33219916048394
1.22641083536934
1.28655531415339
1.19135269448272
1.21933910076635
1.15317643021663
1.25807468063257
1.15159826244425
1.220344407202
1.13608647835772
1.28622834823044
1.26380176191945
1.28069185879672
1.17880988923958
1.32506161844834
1.25073050022719
1.35833356943852
1.27470025189907
1.36312591661539
1.21300654493992
1.35065141938232
1.11647338512052
1.42035539689271
1.17618783549849
1.29429239637488
1.22935586036022
1.29081663832299
1.23842545860514
1.33867281163046
1.13672678909933
1.24587195123076
1.25065389776899
1.39607416687468
1.2671364812504
1.31428172301989
1.13434465717575
1.29621694304404
1.34040758643787
1.23396360435517
1.28181731079103
1.30258113297728
1.17472706240115
1.25727149196941
1.2277935187597
1.25344634570637
1.17120182160632
1.27806974739659
1.29110213994522
1.24419191220136
1.19103482205832
1.31624410663635
1.21475295260302
1.3353579861967
1.31546862596666
1.28508243513475
1.22886953078438
1.22289494339673
1.23148808817905
1.35620130499935
1.20942845195324
1.29896898214615
1.16208593927553
1.27014415599034
1.23903121487158
1.22070808141489
1.19444914374486
1.3233173451261
1.23631592043878
1.25922839564314
1.28152610017552
1.23384289382522
1.26100283504321
1.33837661428006
1.27333965643458
1.22020715244147
1.22752167709601
1.22384085981496
1.27084592775971
1.27949429778824
1.26804040882857
1.20994812959132
1.14525930479593
1.21966382144208
1.15411141805152
1.18568661156255
1.20034854622023
1.26774540705026
1.20559054644711
1.47062265732884
1.25599376195508
1.29376317564686
1.24832871849983
1.29347300629242
1.1688456917677
1.25933064001778
1.20921351521998
1.30855086596239
1.25131209151168
1.30684600524671
1.11240813186782
1.34106870424374
1.19135973412731
1.22758701198263
1.21695074283583
1.21467098808945
1.21656778651072
1.30022253561331
1.16800868004357
1.27201002572334
1.17632420255667
1.27363995831353
1.13026700287093
1.21289506412239
1.19380159445128
1.27502047157333
1.1946183363902
1.17955143210761
1.19923743659912
1.26693727756636
1.21693301845444
1.32840029189475
1.09577266611238
1.202832430114
1.16900669917909
1.21779441340436
1.12645855237184
1.21706300238485
1.18182825434238
1.20395599960757
1.15597285165356
1.21457135085353
1.18490258539762
1.17037494033525
1.10488109579401
1.17765816632865
1.1710658648423
1.13934585450214
1.15115799389312
1.20105343718679
1.11726061868992
1.11651466151413
1.15449806666807
1.10629315358617
1.13123272885219
1.16522213686021
1.15881189531428
1.18298926871144
1.15662773261404
1.16846864680794
1.1127311789546
1.08605794672183
1.11799398368151
1.1434492950003
1.10135545707668
1.11669355406261
1.04725338692669
1.21562561765594
1.06340775156789
1.19375068628408
1.12289985808625
1.06080182733095
1.04700755420022
1.11814974539519
1.0815534749308
1.07730447828107
1.08577075998777
1.058313659276
1.08124166469882
1.10178249564737
1.00113491696
1.08537996373975
1.0352633200674
1.08201336298885
1.07481676204387
1.05383020966648
1.04359427728304
1.03619103927333
0.987928593286298
1.02057617613038
1.01016688393581
1.03786370435234
0.993775627462874
1.052388293496
0.975790496914648
1.03692455846157
0.978803952390014
1.03695969678662
0.979103032294067
1.02739964199149
0.984806536865004
0.97570564188564
0.965244351877032
0.983251941381651
0.959591883396774
0.977827034698355
0.920493182536925
0.968133804959295
0.953070890088879
0.938621641949161
0.92852439586208
0.965081670803525
0.937114018801816
0.958947313358421
0.945548442538668
0.963823692068019
0.92696322211579
0.923574007423679
0.922951433636543
0.931829125646057
0.869525172473127
0.89179448272172
0.874072486693313
0.895401309724281
0.873921656676576
0.909432496943703
0.887579111969042
0.869335552324957
0.872229179334891
0.887360371327637
0.833573873954695
0.894492737595288
0.856666417471982
0.864030165157491
0.824732793802782
0.863984509278712
0.799241664951539
0.855602938598184
0.81497485045045
0.822737683989789
0.833391899441621
0.830808106849098
0.834527353479968
0.83663149710806
0.804140901975206
0.814656480420556
0.797252967717678
0.831039668523542
0.761803294305707
0.793905985759345
0.763962890032493
0.780902126391807
0.765894982149133
0.769392959696205
0.757982633295327
0.78133622335268
0.731413628381495
0.758736710215895
0.737555577154625
0.760450581238494
0.741836956239239
0.737113329154765
0.698417042802508
0.749610762669332
0.718601755117265
0.732410933934796
0.715703518398303
0.739877069740112
0.714578073837561
0.709840351018173
0.705974462681289
0.717139419114973
0.697335359904078
0.696415463883953
0.690485446637028
0.700929302842862
0.68776898183906
0.700295011847856
0.663800068735668
0.684933989192928
0.662853282565151
0.694020521702214
0.6774506308413
0.6679748012475
0.640262826474739
0.681475087482225
0.631748710888799
0.652387105613045
0.638886629372148
0.646791998153337
0.624923816841323
0.637409483087535
0.642379159148256
0.642166248621346
0.626369402379887
0.639977224700328
0.608643225648771
0.63042353115548
0.60131774337394
0.628597212101286
0.595914861571995
0.610515078461368
0.58710479006049
0.600916480008112
0.588265859594837
0.602454699426272
0.605325359059898
0.595071077654001
0.575215801852237
0.595699866492046
0.575045414439632
0.592172117929448
0.559774911768657
0.571596425929237
0.564913189064956
0.578564120606433
0.551842254809641
0.569870495944626
0.557062637864202
0.565567405586764
0.540250428577741
0.555231371620699
0.541847365218961
0.556883958574101
0.539278018530582
0.535152918285243
0.52378831674753
0.548149591052354
0.515625941766341
0.540371867084221
0.535913459542849
0.527937300509263
0.517452703838292
0.518473142435954
0.504166047617597
0.526541339590973
0.496518603785105
0.517571587599571
0.497405454766116
0.511100552506347
0.494881649854083
0.510933352036706
0.49641798385164
0.499581935712924
0.480073999118546
0.495441882728021
0.487599565837483
0.502173565559769
0.479011507648506
0.498714055541872
0.472391304769564
0.484813746180998
0.468173322297895
0.478554177400446
0.460591479042559
0.477294626685602
0.465294453217564
0.471459926469574
0.458937188457536
0.45950710587146
0.443807119023258
0.459968482190025
0.437901930143734
0.461025202484138
0.442408074623351
0.455892603963732
0.444240327135624
0.450974938520341
0.439811087714528
0.433350651013561
0.437435080738564
0.446089767427968
0.433969359786636
0.438709430639679
0.437607938734281
0.441491639692624
0.425277811069438
0.436322467371021
0.427766946827532
0.420488681585238
0.421282413080471
0.432346285128638
0.418649088879716
0.427435446111932
0.410234686596872
0.424707251458288
0.414851375571695
0.426328914665151
0.41335458677711
0.427426723075284
0.405897716409947
0.42790497175561
0.410425125706928
0.421994741205108
0.402612949853309
0.420670292402449
0.410305067761798
0.429203911510363
0.410976960326342
0.424048831844636
0.411210716289673
0.41932356443869
0.405849919728672
0.412529217069965
0.409048295750731
0.421803677889979
0.415245820689309
0.429008722516887
0.409645109914074
0.421139357361286
0.420140087604016
0.43090698106338
0.415853679090703
0.427263077863966
0.421002433339574
0.431285974775353
0.421481726367554
0.434274386279712
0.422669012325859
0.435616024354823
0.422360263670532
0.442167829462585
0.429367086610889
0.448422522877425
0.430201693767515
0.443370996009644
0.435735160468183
0.450050550645196
0.434091937095001
0.457049562357633
0.436435759910014
0.456536054780838
0.447341800080842
0.463451229683676
0.449577188909955
0.455516403304783
0.447725242692888
0.469191280272275
0.450620876061767
0.473772928498153
0.461428367204712
0.484960667972022
0.463895182444755
0.488122063783196
0.472344354258643
0.483617911798046
0.484058151907587
0.502854605656254
0.495587368074662
0.511148948645237
0.520287879620367
0.523505798358275
0.504691615301642
0.514863890675322
0.517317619154304
0.521058368778256
0.504817519844708
0.539486388573429
0.532612484955292
0.533060621928306
0.52460999452277
0.544364580391261
0.539712007716703
0.545791092552466
0.540510917306091
0.552677923578464
0.526928961247108
0.545489863100212
0.530545570752144
0.539741857057918
0.540051398161997
0.546230646091159
0.535498522841517
0.5467687268107
0.529966690126143
0.541502990232841
0.528157743918172
0.545267739748671
0.525218281704567
0.541979555310854
0.533067151122796
0.543789073068579
0.526736859866885
0.543614551768897
0.528129969447903
0.550680099433271
0.528334272878334
0.540782398844498
0.520650452365644
0.539751261237946
0.533145907946352
0.538302385740105
0.522334049597559
0.533642735639936
0.523042384671591
0.542947047193288
0.541266194938384
0.545898759700175
0.5284828429052
0.549444129413076
0.532961490816653
0.547643960969782
0.53700832795474
0.538793057959996
0.536563625660845
0.549438040316279
0.540309354962579
0.541643025997049
0.53495974739549
0.545106760104479
0.530524510579521
0.546651228970281
0.544512185259879
0.540015009157219
0.53221298099656
0.544144400649489
0.517765817664187
0.534137261220914
0.523913469786687
0.536910901772316
0.517260988432219
0.532673787670624
0.516001392798914
0.535768671832283
0.515443894741995
0.523543889234377
0.505411668750171
0.514428048389015
0.503874157303658
0.512731590101037
0.494581148248019
0.499020865720447
0.491125703263407
0.50218507042439
0.490709230844369
0.49391930563851
0.480643227748791
0.485858708164135
0.480034442167257
0.482509798133963
0.47116887459844
0.479730361393129
0.462404257056571
0.460649558994905
0.447401072878284
0.458058719696017
0.457515299150935
0.454262701409984
0.44415844491356
0.447799480932361
0.432549379746274
0.441695359979451
0.433755306023769
0.444111559704905
0.430104740710426
0.430984181332421
0.423787040375682
0.426939636377412
0.421869135660591
0.424673946923748
0.416772896211409
0.408264621603031
0.406267065005643
0.415564408243294
0.410686209807103
0.415955007267437
0.402340921000805
0.408253199227926
0.39127163320577
0.4078079824756
0.392565329159637
0.40663839606155
0.396973084565288
0.39862373285055
0.396996444419109
0.392668034139532
0.386080780189705
0.388344384773058
0.378540946250958
0.38889880542217
0.382340978869935
0.385379638333525
0.379358826622194
0.37691969464924
0.370510908157051
0.378439960336401
0.37429482879674
0.372211803137393
0.369376836404613
0.370553791795071
0.368236482391013
0.369173953182467
0.364217128308319
0.367833882952246
0.364387937581439
0.363725302435777
0.352880547947675
0.358105717562137
0.362106958113473
0.36598762003709
0.35543428403163
0.360165842608396
0.34509041132385
0.345668584571595
0.34801627207266
0.352227789473264
0.342599290550734
0.353257729686277
0.341770867616821
0.344351945607404
0.342491794811578
0.345158475272219
0.336176790888123
0.34834653261116
0.336569570705973
0.345646344830337
0.338812282952211
0.341722197758962
0.33462041064458
0.335249712718875
0.332143083332382
0.336689991754038
0.339742176291468
0.339684250902498
0.328251179010798
0.339520353104488
0.328430660554275
0.331437595968982
0.325410613081759
0.333826471544668
0.332004904847965
0.329724276129044
0.326450589154928
0.328917306282823
0.322843083861737
0.327839256462559
0.326172796171726
0.328147849439938
0.318645415875629
0.320957706072557
0.318780765180332
0.322294954972424
0.31941784952048
0.325295128485966
0.313550966305709
0.324951824230418
0.314758514973177
0.321521716226288
0.310118498855657
0.315828436749182
0.316576655663365
0.316853096656451
0.307706610646015
0.318115382990172
0.313843372766823
0.315121871366735
0.305598998057721
0.309250804974293
0.307067488850982
0.313369996168577
0.303739789043401
0.311846969793646
0.305376582622856
0.312131145442781
0.306889728852025
0.305546704840183
0.298062082878972
0.305283085471565
0.307638292142719
0.313178108915551
0.301600377219867
0.31025524746702
0.298545581594218
0.302203507707669
0.299035953507524
0.305817354624938
0.301259568134904
0.307432898229712
0.298812786497509
0.298247661699134
0.294980844062921
0.304270965930745
0.296942069405238
0.301175285879547
0.294319924143722
0.296595633335837
0.296408446946474
0.300318818034602
0.300728544261937
0.299587179841629
0.299074728309746
0.301759876482514
0.295977054173279
0.302990306587265
0.298262634112214
0.297578841880539
0.292972112794207
0.299374441606501
0.294765889916919
0.294962014371833
0.28848026004515
0.293455864397516
0.285982480214722
0.292142963294061
0.287162326901398
0.289049539278289
0.283925556162605
0.288978491952846
0.286540272889489
0.287936203768952
0.285896252411783
0.291725865979334
0.286487157811562
0.29227713556224
0.283977312815936
0.283412510897602
0.278707402151809
0.284007367073189
0.280904497932246
0.286346934827273
0.277387477747887
0.276518818454464
0.279155617545204
0.274524349187542
0.271585996509526
0.278230983643795
0.274651923841961
0.274585914592365
0.269489612593537
0.274423040229213
0.27092172529153
0.276470833000039
0.271254604681759
0.272630207773102
0.270516296663857
0.270998483542064
0.269166119317812
0.273390729536722
0.270505447778586
0.269512175806925
0.268051325244009
0.268292286994194
0.265861239822248
0.267639806524351
0.260873050711511
0.265348577126209
0.261644629741694
0.264632531750399
0.261933281492428
0.263925557050034
0.259089898901369
0.261142568111845
0.258448771157052
0.25707067066415
0.257226668360617
0.263413332496183
0.256712927797548
0.257178540142367
0.255743365673926
0.260358729220094
0.254184919891086
0.256763554461756
0.249429975499577
0.253927085741723
0.252782228904928
0.251489425936363
0.248196680347802
0.252326946217594
0.243875812886276
0.246055253473484
0.24250545905391
0.247373665848661
0.242286798248938
0.238761228691702
0.243024769496149
0.244228333674732
0.241435744981958
0.241104017758326
0.235847955220341
0.235283345179678
0.234792881169759
0.23677343166086
0.22967221112564
0.235605842610313
0.232175305707403
0.237670655478607
0.231161872412028
0.230430569460299
0.226999305481728
0.232491459319674
0.227973684165052
0.227696839464253
0.227784543689556
0.224595418608738
0.226373249121478
0.232191976606869
0.22398861992947
0.225923351840668
0.222945270296578
0.224031695466108
0.220732956257504
0.221123365860787
0.217650651651677
0.221067638901277
0.219251908143093
0.222419435266533
0.220754060839045
0.220031251590931
0.218198352104708
0.217542789417785
0.21936676663446
0.220284098024997
0.21400732637796
0.215305975222884
0.21552753725348
0.216341345154252
0.209479068497117
0.209854874733906
0.209247872147209
0.21374145228876
0.212413340174848
0.213477145402872
0.208317871926603
0.209242110644361
0.204264713649635
0.207491983209012
0.207881312754477
0.209268239193811
0.204721288316791
0.20610899763407
0.207429729055161
0.203243360225941
0.201567072638211
0.203750867372847
0.201213321288071
0.205076875903247
0.200975100056006
0.201047499426034
0.199297166908098
0.202379921196981
0.196216029722294
0.2009593866015
0.197873963473176
0.197132873017207
0.19657554056566
0.1998277988962
0.192474300008939
0.197052118963828
0.195207788230001
0.19835040135889
0.198373762670101
0.196407669557437
0.195185208186031
0.194486353838815
0.192483246105612
0.196005252668263
0.191349972208186
0.192772216376356
0.191354578772179
0.192422625381096
0.194267128811363
0.191418907840348
0.192307958876847
0.192428454195151
0.192033185358326
0.196120270162326
0.193414653676025
0.191825979154352
0.193560141966983
0.190820821585169
0.188915030319042
0.190217077199805
0.188131258829455
0.193489653359931
0.191149167044426
0.193617090591765
0.187424546164592
0.187338764163648
0.183905943304033
0.188116944329982
0.188916441655077
0.187978757349484
0.18759050928571
0.184625835605603
0.183078025425713
0.187889982067749
0.187213587646629
0.185194618580002
0.182427465885866
0.186106873876191
0.183521782380619
0.182171158934849
0.180258139443301
0.183485041193865
0.180822445119604
0.181402154213619
0.179104390447069
0.179425504411455
0.176466745016606
0.181318649413354
0.180880094066036
0.176583213985951
0.176843145510195
0.178979714108312
0.173744680188067
0.175867335123435
0.175995354118784
0.173538263448576
0.171074623328971
0.179192912887349
0.1766150257991
0.175198442284768
0.171438661253781
0.175038698491159
0.173952621407221
0.174066834684106
0.174706447179654
0.17284317915128
0.175304809022791
0.173437077321033
0.172519384509147
0.170519973414035
0.16859571806862
0.172938628322054
0.167987215930266
0.168880413730158
0.17088784829784
0.172143515392232
0.170922928851946
0.172117833297669
0.17372989976047
0.171571038106062
0.167050329886475
0.168380851944244
0.167477420428846
0.171819782789267
0.168909455802686
0.164627672605677
0.166210609814028
0.165029658595911
0.163764539646648
0.167464569207601
0.163889648588728
0.162536620095991
0.163814110828578
0.163515809694595
0.163331862439834
0.162810031171334
0.161233147145733
0.161001401432924
0.158843455794868
0.160736804107775
0.158378005182707
0.158341404215409
0.158225463796354
0.157680058265446
0.153851160454272
0.156378021042978
0.157650531506185
0.155090984807839
0.153131377134076
0.152181231326127
0.153901353799498
0.152991746690123
0.14767615727178
0.153117193971603
0.154944687326384
0.149521974120302
0.149983718258994
0.150038800394482
0.146352324756895
0.15018898240781
0.147450157439474
0.148140886976855
0.147477234751579
0.1446076014646
0.146937912875567
0.14697709233299
0.146139838118955
0.146531975377248
0.143113544384503
0.145100665390476
0.144504172022017
0.143405442814842
0.144079199942778
0.143077614415074
0.142465774021492
0.142244178220857
0.141897651695125
0.140617555073073
0.140400871575486
0.141977341101645
0.140040480004177
0.139548095340771
0.139777151657924
0.139795946520228
0.138953438494177
0.137285017454391
0.140608964203696
0.137648014485928
0.135567470195523
0.135406678810784
0.135503417814305
0.136124983662706
0.135216533677458
0.13651452808135
0.134859674788321
0.13211028110772
0.132397425440532
0.132252128386948
0.130804188355021
0.132147911281928
0.128312671995417
0.130486419531188
0.12883034270813
0.129128541462283
0.128158090085292
0.126377330954673
0.127310390532192
0.128494978460573
0.126092254808143
0.127067790472898
0.125338287763334
0.124109271836592
0.127101569183114
0.123185535814883
0.124172965060488
0.125104721948229
0.122008016845049
0.121280054277127
0.123534552428433
0.123401823862268
0.120781951269869
0.118753550910729
0.120959637480892
0.121610833697857
0.120475759417688
0.11999468228187
0.121288602666084
0.122500670859791
0.120882335122534
0.119696107823246
0.120371164887507
0.11930769842019
0.119523535478732
0.11713252579251
0.118446006921974
0.117412716535248
0.116177599622173
0.116747634537599
0.119662654092001
0.118442802674345
0.119663037651396
0.117340101237949
0.117210373349479
0.114423012391426
0.116238633295268
0.11406744902088
0.116172282798159
0.114563824906476
0.109587656813621
0.106115989831359
0.104435371479496
0.105178939587089
0.106450150307498
0.108222922098644
0.112423309246873
0.106774333816099
0.101658909979609
0.0969667192687394
0.103974326342412
0.104006251507719
0.0994574730349775
0.09816691650237
0.102401274005847
0.0951442818710919
0.101575634541625
0.0947591693670981
0.0984039066260261
0.0985128159839777
0.100024392231901
0.0973158549375179
0.0985794173104667
0.101378293944315
0.108754785495986
0.105540638025478
0.110771814540784
0.103124525832707
0.10594953017446
0.0972042423825622
0.104971661872431
0.0960123064396218
0.103836619093988
0.0957385371224503
0.100577235730193
0.0984785102521172
0.0977976958188434
0.0936888017602236
0.0946228255539517
0.0926774565108615
0.0971587236198159
0.0900081245254466
0.0994992191187036
0.1008640559625
0.105430774148797
0.0999862909775895
0.0983161866705575
0.094049137632013
0.092646815163108
0.104006597836328
0.102390585281617
0.0959427457557381
0.0875511924216162
0.107749605758421
0.100626555113156
0.112168343864467
0.0885450344847974
0.114456502493589
0.0996504742981895
0.118533410372595
0.0847481659786282
0.119008973245896
0.0959304713605674
0.114451114855581
0.0941601851120655
0.113929801996684
0.0962680544046693
0.108069345235321
0.100795024013534
0.101345537240707
0.104852548334188
0.102269523063112
0.102166553224408
0.101128939548181
0.102501039209669
0.100810590054907
0.101501289342358
0.103167237417702
0.0991592603681625
0.102751664869713
0.0981418581216034
0.100594953227559
0.0979783164508708
0.0997487354141805
0.0982058132454326
0.0984955431294308
0.0988727399902963
0.10157237442755
0.0984257900207641
0.0990975477036637
0.0970229034184466
0.100642210186336
0.0971625106722999
0.0987716468313028
0.0986132666932562
0.0995497748835508
0.0984792797302401
0.0991455885774456
0.0969555682056397
0.0971349891168389
0.0976583305425876
0.100532247188822
0.0989964361222911
0.100973151294831
0.0982917581054655
0.0974617900342035
0.0937865224770734
0.0957928578728265
0.0967070559383315
0.0993030214880235
0.0998777473552039
0.0995745700216934
0.0975278501754443
0.0988944246965633
0.0992541752413574
0.0984400905593526
0.0976825294993679
0.100156045759667
0.0997743582494935
0.101371993207645
0.0990131223477758
0.0982810676049364
0.0972921788600374
0.0959141731967996
0.0962248511788048
0.0981474163258375
0.094882778751014
0.0991467499210957
0.0989117872061551
0.0983807520415209
0.0990848103427202
0.0996364281739138
0.0973173390256247
0.0970252125936722
0.0977264882392901
0.098889506624363
0.0974943960708171
0.0980615546937706
0.0976085053948068
0.0957206802901717
0.094859056503241
0.0950646987574268
0.096818408077484
0.0987969185722625
0.0978865704439316
0.0972297304221712
0.0958815167560402
0.0974629161168255
0.0964405608543438
0.0971341330163821
0.0988072970669573
0.0985487540941285
0.0971990356961109
0.0972277338369817
0.0958132089527224
0.0971856028304862
0.0965262643823612
0.098031932123659
0.0985856941895442
0.0984598018159055
0.0972507448206123
0.0957268914635634
0.100716991424112
0.101392138528847
0.0986054928969692
0.0995245516170215
0.0973672551510741
0.0969866205789979
0.0976081347435332
0.100936160415155
0.0984396762766941
0.0977918677457253
0.101073291457478
0.0993164550885159
0.0982535762841752
0.0989733180635393
0.100367143430726
0.100950805397826
0.0997145924926921
0.100010514001154
0.100654232695907
0.101334938153108
0.103741373043369
0.103833958787255
0.100117292474859
0.0981906753814841
0.102209021656229
0.102241023606988
0.100065785031303
0.101029198668
0.0989665644808245
0.0995252853697848
0.101821035961912
0.101336457395134
0.100098064346276
0.102651940872135
0.101992787833039
0.101284816037542
0.0998790925046507
0.10050875941542
0.102663774820085
0.0997842553205814
0.101078502348512
0.100945635870791
0.0992734472156613
0.100447581901372
0.0994258876919187
0.102198946516497
0.102698629055904
0.0993899422771149
0.102579187881902
0.105436922091059
0.10169332062845
0.103164445732017
0.10375496068088
0.100837148032415
0.102949151415305
0.102618072770331
0.101518566802071
0.102186676543786
0.104190739480459
0.104261595411018
0.102640763578122
0.102950824521967
0.102696976072546
0.104282266777491
0.104963432609282
0.105170450217931
0.105271095950194
0.103873252616357
0.103207787363598
0.10318917089592
0.105898572985446
0.103367150315008
0.103811855110755
0.105372434958775
0.10360888778554
0.103776654059706
0.10374726125097
0.10554185881681
0.105892543639528
0.105200786997197
0.106445111540341
0.106471087263028
0.105302149361916
0.105001540294321
0.106956387805017
0.104360600204003
0.10330869119418
0.103770419660322
0.102333690697642
0.10261117489928
0.103668588733451
0.103109115322437
0.104427745306016
0.103356621669767
0.104212164766719
0.100843468163105
0.102035996649907
0.103027938822745
0.103930880373267
0.0991577442305956
0.101991995504204
0.101256559020886
0.101633050351166
0.101303379364261
0.0996137150609742
0.100768424220572
0.100767042018143
0.0980393022525419
0.0989901764231784
0.100032729420751
0.0997630154898632
0.0984266264545474
0.0987409310778368
0.0986391592425957
0.0996778996013769
0.0984484618541821
0.0983145511461229
0.100484099288806
0.099694535280835
0.0966023817611005
0.098265284420503
0.0996292885106656
0.09838348248535
0.0983042474700497
0.10041415742505
0.0961946101050458
0.0973072057262692
0.0988791163285269
0.0994884150629741
0.0959012912740017
0.0975838877554724
0.0979469411093022
0.0968526868319506
0.0968132753841682
0.0976312249514011
0.0968370017631197
0.0974664773089834
0.0972313245661663
0.0969208722042806
0.0959172690547175
0.0965052272284779
0.095646284579013
0.0989990752409654
0.0935665673448814
0.0955620262750827
0.0957418366050532
0.0956540891584707
0.0941052891319625
0.0972225189404334
0.0954577306319247
0.0942634074207092
0.0928847960726624
0.0955749238739814
0.0948121196981434
0.0959080705631804
0.0937664385991162
0.096070313748048
0.0940740281233504
0.0947969445038957
0.092709102758555
0.094369833789987
0.0940029398224474
0.0934817129976897
0.0930728135085949
0.0951754917207642
0.092290405526167
0.0926649796324895
0.0932334331076738
0.0954276922160806
0.0950308884879604
0.0956513737003941
0.0946073769455324
0.0940059498066325
0.0927874518076627
0.0925008266190344
0.0886430052498613
0.0907831296118407
0.0924342609237005
0.0913899044458135
0.0918049314455252
0.093652153662579
0.0928111927897146
0.0938837844855814
0.09186633138161
0.0931743107864466
0.0903312312009846
0.0900068923510134
0.0892537089989865
0.0906891146168075
0.0900297211509658
0.0911407198793175
0.0915638440259811
0.0916635285580862
0.0887621081818994
0.0923426926022795
0.0902723662564225
0.089455511846663
0.0882720926585786
0.0881063345805435
0.0886994735183166
0.0889558397982972
0.0889160017160438
0.087735236084475
0.0855258750639259
0.0881669065691197
0.0878673652065266
0.0883769273051218
0.0856401310003946
0.0881222558076958
0.0869108609387372
0.088875645574494
0.086102799835639
0.0861949419510075
0.0842572433531518
0.0856397449295017
0.0822980928914313
0.0859370650976986
0.0827844804633064
0.0843990172431996
0.0841385738094816
0.0857532819698841
0.0900043221313871
0.0874820409818627
0.0831961980490882
0.0805016553259141
0.0793661107841154
0.0835289814230938
0.0822032563885372
0.0815125489994901
0.0786512718613625
0.0791158138505471
0.0804108306363535
0.0801222527635426
0.0807168252400645
0.0772112083309801
0.0776282240605844
0.0786579167171222
0.0765410549872916
0.0783833922915677
0.0776175914711397
0.079198250273261
0.0771509966798039
0.0772105464616815
0.0793497334469195
0.0772902702520776
0.078993876301282
0.0736472356754471
0.087514379066685
0.0904279978218693
0.0777559393930438
0.0779927616347099
0.0802504574757871
0.0806079112657937
0.0763296504413381
0.0792581740274322
0.0756511070557891
0.0759936836077672
0.076848982520771
0.0787388236350596
0.0722839501030662
0.0745875268827821
0.0760242228330386
0.0769302779976582
0.0749244705980751
0.0775414045980546
0.0740523063721128
0.077219843532952
0.0762185954008441
0.0740192096399475
0.0726519991873963
0.076255131850636
0.0746073213574198
0.0753979902407672
0.0738217142312823
0.082628218106713
0.082660129701966
0.0789353049824077
0.0709808728752187
0.0746294103113795
0.0716213693696739
0.0764904886738376
0.074168762228558
0.0724963137720866
0.0734845754692577
0.0745841879390491
0.0697495155929336
0.0731177568465061
0.073395180973681
0.0753519943557598
0.0724255807637898
0.0723580742875164
0.0695022925740637
0.0719514786792364
0.0689178253980404
0.0721665650335179
0.0682904572304359
0.0757926005772146
0.0715068256346065
0.0774540696790909
0.0670715667367714
0.0825336291228651
0.0880703800814987
0.0775609929995415
0.0722694768564134
0.0704801975248268
0.0700387943420659
0.071421272911759
0.0700753450019924
0.068685013974135
0.0699525991239586
0.0680119881689888
0.0697676394358753
0.0698761961553512
0.0700339937880585
0.0704534991938035
0.0695944978440863
0.0716008614686071
0.0696005203332768
0.0688504848373598
0.0722448988738675
0.0691597850501941
0.0768187629066289
0.0869595950577251
0.0720374757739961
0.0753161250324636
0.0699147137887545
0.0693418195871242
0.0982473916738942
0.0751921792591071
0.0730774120551637
0.0693843125393212
0.0716376715358831
0.0666700646089006
0.0739788441888331
0.0650995116790802
0.0744951291877066
0.0754470435007975
0.0736636396568536
0.076486364845658
0.0684312144659379
0.0689732930988707
0.0697789777442453
0.0685494536465882
0.0661254710919076
0.0689143697293678
0.0685382547306902
0.067920992129627
0.0698674367636534
0.066089200418796
0.070857089900053
0.0665753328730454
0.0758511370628605
0.0737052827447683
0.069559229976886
0.0677812983210049
0.0730150081961731
0.0640577884691511
0.081229804494984
0.0862789125955413
0.0680038423515504
0.0737016828704067
0.0684065214834082
0.0728407429017791
0.0691838419692542
0.0698690590046759
0.0667217202283912
0.071104415135667
0.0677551823486113
0.0727968465923745
0.0673271184223123
0.0684849729638761
0.0662199179342536
0.0709177737028147
0.0663581337194172
0.0699903300923652
0.0690997426801381
0.0697384653156495
0.0703519042296933
0.0700792225183516
0.0951156341928685
0.0907314751915253
0.0891532147973987
0.0789236365615608
0.0750608919373301
0.0698686211472391
0.0732463866397914
0.0672514058653468
0.0693134740833524
0.0721898567045911
0.0718314881409852
0.0694359703820867
0.0718270025579926
0.0703881579808416
0.068534482112047
0.0698824219590571
0.06791449710858
0.071094215317125
0.0679194382912694
0.0719155233130191
0.0677232349391416
0.0719897107635767
0.0632686481159112
0.0832441280174737
0.0732593824098687
0.0780784413635225
0.0594654082311441
0.125204872646164
0.0857558986822274
0.0840793440071725
0.0724370138471549
0.071626679337008
0.0687795524769773
0.0699982592204236
0.072869505085971
0.080393342752286
0.0689847188082217
0.0730390024918393
0.0693848046557419
0.0746623777237155
0.0720616051955587
0.0688515598899885
0.0900724779291492
0.110441371616217
0.0791022998408012
0.0814387739715521
0.061422998705864
0.0932437156054551
0.102192585700635
0.0738212132887498
0.0806161951423811
0.0741981434459471
0.0749498205064223
0.070848248082071
0.0742455302658144
0.0738653587037247
0.0829525162063298
0.0737223885479509
0.076483016639425
0.0738582969733582
0.071642628659736
0.0790146635402906
0.0742804763565045
0.0921916955889945
0.0872088328342743
0.0753497457902569
0.0845642618217458
0.0769715846951033
0.0743138890733402
0.0749815911134714
0.0782936275646536
0.0738842944229535
0.0910708105382264
0.0928716926079512
0.0816747921241535
0.0977715198069509
0.0900294705842027
0.0752207531108349
0.0865309176161791
0.0871137576840987
0.0944477387581371
0.0670885091516777
0.109755660713841
0.104655719019966
0.105502218570934
0.105699429289477
0.0809872846311203
0.0856159792709291
0.075051621461598
0.0802798898477227
0.0734537308054541
0.11109203854184
0.0719302884107841
0.096221297361708
0.0667334620684036
0.111024241640384
0.0917215813291814
0.0948824876926437
0.0808757470443498
0.0854958546972454
0.0793840982094028
0.115205535191147
0.0810981115329626
0.0917995756059457
0.119809065940395
0.120608088584214
0.124291818439495
0.0874116940578647
0.0895511785486136
0.134634605267128
0.0898462322817867
0.100262855494951
0.0788030926561316
0.0967807319914558
0.0754728984443248
0.107009949116145
0.132610294287572
0.0965611387748824
0.0946453416740182
0.0968392710321892
0.0894325612777943
0.131604671985669
0.0995710631458866
0.0999638803839246
0.0903190479670985
0.103272060788772
0.0817590234553172
0.177584260976072
0.0937849213387395
0.138994401471504
0.118506744885521
0.130148243554365
0.114824709643646
0.115774269084934
0.0995240841714679
0.13113370023803
0.125080802939133
0.113565322357489
0.0928277174946175
0.147300842346101
0.129495670882145
0.112090721007256
0.119944523838656
0.106593757219951
0.109579662207291
0.169176509738147
0.177919124015412
0.157413651464835
0.122351646274499
0.133801892988938
0.158058692674067
0.12474751851492
0.126448249718566
0.121878338577957
0.125347732277689
0.124151717098704
0.124520454896238
0.147769743349577
0.126404815757028
0.143434311750339
0.125853877814662
0.144933316161275
0.162344209985729
0.217233803762498
0.180120110053617
0.154336506941436
0.198588128270789
0.168922933920333
0.164078235626573
0.145006576980441
0.146713744921528
0.160551013073604
0.157138923478746
0.15475748295265
0.14768853591964
0.202262667459438
0.161685690780977
0.194938128199965
0.180764045581158
0.170437988465022
0.171178127713399
0.182997196721912
0.405559529954851
0.182234516916179
0.221636397885048
0.173473293147888
0.244791286561167
0.264542008433646
0.208834318716661
0.193863209029643
0.199013711102084
0.193008545739004
0.211474204370876
0.216886125446817
0.224316718036094
0.234315032194798
0.222791043708275
0.213839544891545
0.270104796528515
0.322288055831245
0.328801753397691
0.262304697399129
0.257051408587862
0.27685623804879
0.284236373055942
0.259100943075687
0.286143676942332
0.252506898530782
0.298580626166637
0.342071939149796
0.295218926947043
0.298895849736936
0.297502056958001
0.351534619977478
0.286216142349187
0.422572408717089
0.335902068415042
0.354101917788202
0.320439621190223
0.348401648854719
0.332389405106853
0.340895167830776
0.392453186438624
0.37349905464396
0.366595488146853
0.369724173060482
0.373382428448402
0.376291440375008
0.381785477913096
0.391218022961438
0.377287862109803
0.457337950273028
0.407434052123189
0.716279659040246
0.41495569904083
0.433901973135741
0.398062639178378
0.412826562877759
0.460580780322281
0.42822971923483
0.483134394898224
0.44840789524451
0.417517905109178
0.419981732873635
0.412052794170598
0.422372854823137
0.413216510402011
0.436880913182019
0.39540964992114
0.480741835460929
0.395550518855761
0.524654284777724
0.484377654882851
0.455647823555666
0.420034414592155
0.430713119218161
0.410761798549286
0.428661450453394
0.408736205837025
0.443325120253903
0.449751285586199
0.421671672082385
0.431723926722483
0.405685007453205
0.465583523961588
0.440930443317048
0.405060212974911
0.422174015075599
0.404600312029134
0.4179567774372
0.380576306571107
0.454146347429782
0.483029565313253
0.408188907374243
0.403457928440312
0.400204725118963
0.391640813448219
0.399465317148241
0.390992601876942
0.407802450011005
0.394697676173839
0.392472260979907
0.40009707866827
0.390285710229764
0.396399674131017
0.390487916998043
0.400276257675023
0.38616874210445
0.397272164617056
0.391814401297134
0.382757727478073
0.393782770544519
0.391528246502606
0.397141492246626
0.384331343495603
0.396435459690832
0.398125299321856
0.379128758762288
0.391116210130677
0.389144951448063
0.391898544972988
0.386309846558448
0.388245658916325
0.38547602120366
0.37858136095142
0.380762483933134
0.378613233630163
0.378828172383511
0.375368062132857
0.374490088482115
0.375893574519127
0.380563008903657
0.370033252150037
0.382243177454794
0.350100944855604
0.473087366495407
0.38476290723882
0.377320891301391
0.358336393960031
0.359785083038603
0.353695823311067
0.340417769318885
0.40965902852778
0.374201457927729
0.346742420680921
0.335153023004359
0.330297862423502
0.361487401288461
0.336491704793689
0.324196179773223
0.337565679746671
0.295441015812817
0.414659881512235
0.37091845799524
0.442273475948802
0.405330616118571
0.339290143729661
0.291122606862377
0.331945382109372
0.349032315530719
0.292966042597823
0.299243976706211
0.273312424914471
0.359966293276462
0.294192432518982
0.2897012648272
0.277913101317166
0.269640920526081
0.31905782739172
0.318550299329812
0.283534005604619
0.322052275467699
0.313150181714641
0.285551012049948
0.335759234713643
0.364434429915961
0.304420929445384
0.257934013017115
0.271280841442882
0.251089713025838
0.268367861349613
0.340312214203585
0.256031784355552
0.282294005834824
0.233578880507417
0.248868298900842
0.244500982290903
0.279982466513448
0.244768825704968
0.255950023313658
0.298396862328752
0.229561369041122
0.27682194848617
0.2460592898795
0.320853985204565
0.291641612479474
0.257531923064462
0.215580363766827
0.296005934906457
0.276992339916796
0.246440674897641
0.266470936874783
0.219672877608472
0.242436451966781
0.259732295589585
0.222981359007196
0.262045227225798
0.247627324962354
0.271338550145583
0.309326965812601
0.330403870690903
0.317455783942874
0.247048686686121
0.226899219794542
0.2276269405727
0.23061697533804
0.242890491468126
0.210605976481017
0.287913751060599
0.231797511309484
0.24534387498253
0.295874428750463
0.245202814468968
0.243812846378856
0.245178510667214
0.234532544975598
0.257598601244081
0.278896689790323
0.320197507834435
0.268107066415424
0.283251116051687
0.28978608042944
0.270559974710353
0.270983619305964
0.270568160442112
0.275873804757166
0.274206236345329
0.30357818333299
0.292511329106737
0.291783356141047
0.302694801193385
0.296323781432478
0.342971011156916
0.3538054805589
0.312976978952815
0.390923309536773
0.347832928157997
0.438666719420209
0.357569168834512
0.363931742947823
0.359226023194313
0.367296585019438
0.379000106824558
0.373534878266586
0.397417912737041
0.436783902212811
0.389708652307284
0.411327169943236
0.390837672857746
0.419228289211378
0.405922592622251
0.467316627667406
0.420573744601658
0.544474996317855
0.477853232876687
0.467758133260452
0.437454910017836
0.424442564418804
0.455778344958278
0.44222718689374
0.439003470025999
0.434479197456275
0.44635164753893
0.489738490387548
0.445012535634596
0.462331786421047
0.445867990010414
0.450820226080814
0.454097066772571
0.460753851173894
0.456842922743375
0.463580008662128
0.478577377126652
0.467959676863592
0.465132634107708
0.609282593143353
0.494774386363203
0.50428688728889
0.489468494142531
0.510795705992034
0.496892863031211
0.503148592143233
0.537468889729768
0.527935855991327
0.519968181269153
0.519168541701788
0.525618422627571
0.52497467714404
0.536684826284526
0.579748687915261
0.522055123116421
0.563006771459385
0.505188980734387
0.61356603151385
0.602461193540709
0.575891015342806
0.582284550565013
0.566414541758575
0.553789010385745
0.551601182791141
0.555494070921697
0.559578333797183
0.567873161631893
0.562925856726611
0.564092219429965
0.562633419672078
0.57116456134791
0.557051510630019
0.556483711352988
0.597956477896166
0.554942008813151
0.563137484631583
0.549009868794707
0.561542579818935
0.545955211808213
0.603152280263176
0.578284251854406
0.567778002269657
0.559521409212197
0.571696241315896
0.580187161648537
0.582444681614027
0.546913844836943
0.561701429514033
0.540811267178842
0.566393644525183
0.54734962915238
0.572780806916591
0.605909296626633
0.570438091547945
0.562609679164708
0.562654621356008
0.56596615741956
0.57153588788368
0.57452370490186
0.572894066461175
0.591144110516697
0.59325169228114
0.592087839132974
0.591323497986047
0.599155208549443
0.610820363770124
0.619274114742167
0.618501207783247
0.591407434666581
0.598565689716461
0.584635934340625
0.594374697026288
0.613075696449025
0.594215201473864
0.578917539564052
0.592837881304418
0.581243396874295
0.580863932313374
0.617229883100446
0.576604989779823
0.580472744883121
0.565982977087281
0.557918326567684
0.55212141377425
0.553612112919448
0.541545470560639
0.54967156594313
0.550395905170856
0.545348104548603
0.543465446719115
0.533150066954743
0.534423751683872
0.531024999694486
0.539291677815091
0.538855167665034
0.536789933479135
0.527287819952756
0.528318469932149
0.530825000731685
0.524727922652547
0.529776425861352
0.523380552523483
0.541472061245582
0.54984104139742
0.557582133349948
0.53361424085538
0.533993561489593
0.535993177519832
0.519848346658142
0.523458191332938
0.525691839396906
0.526643346222829
0.519991816518639
0.525972048205446
0.52016567313285
0.522707312387133
0.525270860451549
0.526344590723556
0.51648367845084
0.518732359528678
0.518320744079152
0.519151068097777
0.511487055946621
0.523987548650522
0.520136793977417
0.526526287709037
0.515451921221713
0.521066782470721
0.515877031081916
0.514145354096693
0.516438726141518
0.51517735832233
0.522605070686378
0.514019052745936
0.507889492119928
0.513870627266501
0.510402160262067
0.515073723550996
0.515665318464084
0.515175530144884
0.508784551070281
0.501467563905256
0.501103260056416
0.505353997185698
0.502115234798618
0.502238046804426
0.494298523653485
0.489008815012676
0.48475874266771
0.484693584635848
0.479908778442118
0.475951894154943
0.471904130535433
0.466151836965734
0.462907937986975
0.459227935075956
0.454787422628575
0.453949239139799
0.454816990149207
0.456456516836404
0.448633311655411
0.444744481596812
0.444532669632968
0.450964905941734
0.440957353553693
0.445326088572892
0.4366689141012
0.440407031784865
0.436801246397923
0.445975967364758
0.438768480345723
0.44348097673333
0.443564642230614
0.443741130552897
0.446028906704547
0.447421989463296
0.451005580768745
0.45308044879233
0.451421307520233
0.453880227318442
0.452507884249702
0.458633674835991
0.4607016096638
0.459450168230269
0.462875231294699
0.465778681698651
0.466821018595524
0.469320649985621
0.469652219713845
0.470109926253323
0.468320112078657
0.46180701588859
0.466091342993606
0.468955976609528
0.469239041770943
0.468541499744026
0.467590294854959
0.470182957402571
0.467179104472841
0.46747697876533
0.461003014788242
0.463027557905771
0.457690040920701
0.460306024465046
0.452524857088298
0.456723713919006
0.456192313267981
0.45373473556722
0.449811502151406
0.449720467701571
0.447415207115582
0.444639804732356
0.441904798769007
0.444560255886619
0.442252907797909
0.442424833533755
0.44055599405181
0.437931157626832
0.437401963161654
0.43816208569634
0.433645776375305
0.435635495767262
0.429516285409135
0.43066566836101
0.426485117865547
0.430078200478464
0.427940011391474
0.425171447824933
0.422235771498354
0.423505577018142
0.418226194110131
0.41699924337628
0.41564253511523
0.413880950860452
0.40729659521397
0.410890756151427
0.407477765371359
0.40479814856225
0.400592108939909
0.398864363923546
0.397355924645259
0.392739725445944
0.389272677394206
0.386945433553514
0.386953187901393
0.388529653572795
0.383659200390242
0.38369786676344
0.380254259005004
0.381198725753755
0.379392860455627
0.382793672381875
0.37982562034196
0.376632811738499
0.376627627178179
0.375331944212014
0.369372044314596
0.370095269130164
0.364365085841154
0.362311765377689
0.353945456190191
0.354729217878392
0.344670667539888
0.342017355372695
0.33984216747735
0.335412947660093
0.329965954695539
0.329029360596385
0.326502968607216
0.327971427027097
0.325219338919401
0.330025275872373
0.333346978824366
0.341217085795641
0.348716425211219
0.357697715188293
0.361861763133452
0.373652259369853
0.384193379003073
0.401996769021508
0.412554508818774
0.424564386163711
0.440283922572001
0.456392434199423
0.473963163041102
0.487314224431021
0.503029881367521
0.518352184179361
0.532836111610298
0.548924796114548
0.566049771582966
0.586074263972618
0.597740970509478
0.612402930412777
0.624625135126285
0.646806320064853
0.662736553666527
0.670567409404478
0.682338352294794
0.698573088526459
0.71106892550336
0.721711484307828
0.730158984950496
0.738775222178008
0.752486714629752
0.760667832881659
0.765657255511098
0.762246747012455
0.761782386229308
0.770832805370135
0.766776910940394
0.76263149596058
0.759667709223392
0.765104742162247
0.767928677811657
0.765345533370713
0.764785902451218
0.76380389260551
0.766923982648874
0.76243437924213
0.776172494638584
0.771983259099723
0.771367777988906
0.770113733112935
0.774706715168999
0.782690947993048
0.788020756604486
0.791228868877892
0.797196211475483
0.806723102773618
0.805974809090791
0.816821875182347
0.8249275104898
0.846088766150486
0.85123109547299
0.857346424910758
0.87888780632871
0.8907677422105
0.896502176399935
0.913420307600705
0.915159204600407
0.927587647973581
0.935672000287092
0.923215423744516
0.935890368387683
0.935679884231924
0.94089993465127
0.936386907392415
0.947690107679916
0.946962194719615
0.928219451214246
0.9232057160516
0.929426712207476
0.921354581660714
0.922225700760294
0.928754820480492
0.940583930903411
0.937639402935162
0.950850707736017
0.957425566211482
0.974581203719388
0.96900857123819
0.985587267390542
0.996330250983085
1.01890516255146
1.03449938134678
1.04880320446042
1.04949956814605
1.06855717285613
1.06785182815976
1.09860620141447
1.10079977295705
1.12590428927432
1.15108428516982
1.1678984187202
1.15579694377937
1.18045631259905
1.18877861941547
1.22549769307329
1.24934771876877
1.2955067740566
1.30452788201365
1.33341851887384
1.32289339472291
1.38326706943035
1.39174749779285
1.42524737436639
1.42591264814629
1.43862399899307
1.4601454437044
1.52301246939363
1.47067058223965
1.5040319967474
1.53185460138456
1.50713336933317
1.50642619860179
1.55111627951827
1.50066422482875
1.50138939166142
1.51786495584517
1.47439537464787
1.44814631735913
1.50604074809605
1.48622318966052
1.52353900252313
1.48664325056719
1.5590284185582
1.46022448754457
1.50592246772416
1.46352184906975
1.53601959898028
1.56983611424805
1.55171957020613
1.51058034453615
1.60986452663449
1.61645139539191
1.65687578962589
1.58064984133477
1.68100489440035
1.66644987928388
1.73316244746007
1.77762877289812
1.71586830820396
1.70300643376309
1.78331019736566
1.73268466441936
1.80693840384916
1.73958837922604
1.88082437716686
1.79303676620208
1.89416319608919
1.84016274874029
1.85252410880298
1.85535969197583
1.9249092385256
1.92210676646466
1.97158233716686
1.86272723944973
2.04382340497676
2.01665797652071
2.12473349047678
1.9710237000653
1.9165840615009
2.06526083982877
1.93774267239887
1.97921268519778
2.12430985633622
2.02123431054945
1.97730967365817
2.07646575581115
2.17409694526021
2.12414473955228
2.39075883185863
2.20545990563391
2.05879749751623
2.12068866050405
2.14597293068485
1.78250403145976
1.81300597925545
1.83152810240995
1.8484274722453
1.7070514892276
1.79396091068284
1.76587289613321
1.7337922756857
1.65099663217588
1.6918617895016
1.57826252328613
1.57304689606679
1.64155800848666
1.6127526069934
1.51616022362128
1.54232587618716
1.55326531797461
1.56097551874845
1.48927704948977
1.46216752960339
1.4635508438446
1.48874718738402
1.4845617510007
1.40858655439958
1.39719294876832
1.4200165984617
1.31427649748072
1.32267713191073
1.31652882490588
1.22986327239531
1.19429189912607
1.20940415807857
1.14427507286515
1.11659919865636
1.06040694124798
1.02885769282421
0.968191673899728
0.926625616739447
0.885733323575509
0.854759306725792
0.801569755705196
0.778014090865426
0.750673991553952
0.72297250023581
0.695167937462744
0.671450844245334
0.642628664469459
0.615812767559449
0.601788950794994
0.586581889415689
0.567142539121016
0.55728321909764
0.54466999619861
0.536856543372052
0.522989100973963
0.518998421869581
0.515267697156284
0.513601343097262
0.510594583601853
0.498241475289937
0.501188011019073
0.500293978073602
0.500509643210303
0.502499694965163
0.504997507357759
0.511476932790402
0.511490956248532
0.513964986159094
0.516651871155545
0.51398681177951
0.518712081325053
0.514749729849443
0.51400832622868
0.513597523948872
0.51300691390916
0.51553444490331
0.504899767540227
0.497183019766416
0.487013043829653
0.494864658688425
0.49365576916672
0.490379023878395
0.492522250175058
0.489824240091234
0.494936495217446
0.492146018807745
0.49279246093232
0.493232060459102
0.496581378898916
0.498633645561366
0.4943794748439
0.503042236466656
0.507262014670838
0.506162332069962
0.508397357926938
0.510630216039752
0.512127039886953
0.52095996448238
0.512586383961842
0.518312280317239
0.51762933861083
0.514401145049979
0.520750009767531
0.523117048378796
0.513056226031937
0.508287903421957
0.50666612231845
0.508509161133578
0.51307754661695
0.517676788291397
0.523312592215196
0.529181739272287
0.528481529573688
0.535368516868382
0.537311189365326
0.545501181473887
0.559516761199838
0.56044979038999
0.577441633708476
0.593531497799569
0.600159307302215
0.618013717734999
0.626553813210339
0.643211837965315
0.650397274189809
0.651966439246992
0.653586771831821
0.665494563140532
0.655868774392549
0.646676951991723
0.635367245221671
0.622396290161196
0.617447735383428
0.614851569121971
0.608302839106435
0.594443646254385
0.586375255478325
0.596827728725839
0.586450435359012
0.576102709940078
0.587835287825055
0.590934282749623
0.585486484863447
0.602737722346209
0.584673478704654
0.578259431064224
0.582095390558464
0.588258463822296
0.584089406215644
0.576944111081972
0.561417787370216
0.566829127827662
0.558133950489431
0.55448298954004
0.551346169649191
0.547814356713169
0.545998087421581
0.547989386160709
0.553340970154686
0.535761107098428
0.534412526404198
0.54977454185709
0.534562773680349
0.519389146940967
0.5319680608211
0.539546846580126
0.519010808461341
0.539040052102003
0.535740744001166
0.512966293746404
0.508446170217139
0.531327068333786
0.509711153723219
0.504338594655405
0.512418552002036
0.511418197227055
0.51148662850721
0.508808725450615
0.506295050532453
0.497616280781283
0.493664859245205
0.503795621054405
0.490082085468994
0.487997517813102
0.47817446627138
0.488138558049253
0.478303996297347
0.470120675391007
0.481154566750756
0.47639319072657
0.455187492004211
0.471419484135695
0.47994923114629
0.468982373741283
0.453087892117401
0.464820058573034
0.466613029393167
0.463417112358973
0.469776034494889
0.478111699421801
0.473402253203968
0.474418323588739
0.478326943003361
0.463015523579143
0.450677125987107
0.470010807499188
0.470110662149973
0.480049454147959
0.475858962454138
0.491287162766519
0.479771122258191
0.480475762870394
0.484169000623501
0.493207148436796
0.500180032797384
0.506082124769284
0.489416819824229
0.512832225858119
0.507987382270717
0.50608787662189
0.51343173932803
0.520862317221034
0.537200652259995
0.544783024789548
0.529006563970918
0.549652898150488
0.569195116801872
0.564018648022549
0.575808572588886
0.604203462754374
0.635601262068523
0.611253836449944
0.630101452264874
0.640702656041887
0.6392662774794
0.713060891655666
0.693424805998811
0.730157596079271
0.748194417970998
0.746950755751418
0.798856420530475
0.756192684559768
0.751139123506433
0.805958427724596
0.798155891945253
0.734635287468459
0.737703567015196
0.771055184683169
0.741599804701372
0.765678732511417
0.739242590200352
0.76344629442494
0.810518789020846
0.806833898614767
0.776973139115834
0.773961369769547
0.74805386963923
0.74291405923499
0.768456290238034
0.717504422624603
0.704797223606574
0.749587830470641
0.835903667149481
0.803328267067183
0.787817499772223
0.762701278278484
0.756476408069131
0.788359649026278
0.728606418973844
0.740247610333488
0.722844839596355
0.738458910292974
0.758478933142021
0.734531514896441
0.700285888585083
0.726437066898705
0.75237639931129
0.71476128297677
0.708441544173118
0.716149394449771
0.696690463927357
0.699992709029151
0.705014651893472
0.679707270978719
0.726367020016856
0.722428331673119
0.681971588055443
0.72243805156577
0.705199289379739
0.71882061383771
0.773955559024726
0.736550689557922
0.712405638199071
0.686750525966769
0.736673355285346
0.70755714259872
0.676133959999803
0.7449700654256
0.74710551635462
0.707876124910051
0.723755358950266
0.736428309281044
0.796021549754349
0.787487308845241
0.694236322879727
0.690323891629455
0.803294156785781
0.75883504351189
0.855144734981095
0.882890673335094
0.806779207987377
0.807671462233304
0.785142279667774
0.764753306121871
0.899903855585365
0.878912009143227
0.799609532955064
0.848205739429157
0.893023987796495
0.860331336965806
0.967590152042712
0.843675530709107
0.883619502910783
1.22478055599528
1.04291056832543
0.875115307619784
1.04090927108429
1.06235995703623
0.996436692161634
0.822547764958798
0.759049942271264
0.985624070536792
1.23382417734093
0.936627199728293
0.764960361427932
0.806092835892237
1.06434059212911
1.19592271027372
0.926569079474949
0.873790678082713
1.12444663685685
0.950691138613791
1.0230264610028
1.06380023277254
1.14691497399258
0.862993756921721
0.91208342940621
0.844777962226805
1.0249124354133
0.91158905751883
1.08663435646162
0.956108718491663
1.02636192239781
1.20027724916899
0.969489773336738
1.00997727847661
0.977718227314757
0.643925552902047
0.797207547871225
1.86958293971268
5
0.89608607437011
0.808236418195117
0.763904249075281
1.18594902876224
1.42889372576818
5
1.06998032309404
5
1.46539356606432
0.933412264852937
0.858636633709771
1.01665459706685
1.18213704974687
5
0.986189269137257
1.32627495113027
1.00254113883781
0.612869550698965
0.728738870123691
1.01158912866244
1.1110021259646
1.35264858858743
5
5
0.345727708308923
5
