3596
4000.36533379555
650.420452594757
1
2
2
0.0838166245687643
0.0788860035582774
0.0809031540193137
0.0789548737997898
0.0854532520509485
0.0755738882241468
0.0839979955871284
0.0802121832999641
0.0769515430393511
0.0848620983241254
0.0824890115159542
0.0773339016900341
0.0832843314103704
0.0731317669407363
0.0830999807155685
0.0783657005977696
0.0833162081094091
0.0732571039080414
0.0748966636772423
0.0814917178557536
0.0797821445890821
0.0753746630948764
0.0829294122901007
0.0843920953504976
0.0851090151102781
0.0834513426575176
0.0819023377390256
0.0788650054981411
0.0853223964216537
0.0763147501158029
0.0794411256544206
0.0769806124109852
0.0857293732850546
0.0779015279223507
0.080372938355256
0.0767861718680722
0.0787178008354157
0.0743709335355692
0.0817184757680957
0.087495283660676
0.0785969528668347
0.0696359035148797
0.0889697847127337
0.0785310553669217
0.0811938624684112
0.0783772707410988
0.0850570487415739
0.0719832861201647
0.0735976006598496
0.0800836788806683
0.0761382963748605
0.0791120005403074
0.089820526204367
0.0894973493131984
0.0969233765177427
0.100608432096607
0.0937310467242423
0.0735758056355695
0.077813695270479
0.0803756121448258
0.101130688637796
0.0908361840020982
0.0760771978726416
0.0690061610352927
0.0761329828781287
0.0761159281594525
0.0852584176939078
0.0740380980078332
0.0807075245681889
0.0733999427192169
0.0834414406483925
0.0790793683192743
0.104613142161634
0.0795684773613312
0.0917784710997594
0.0797058418431902
0.0775499443746702
0.0712998703688768
0.0781963583276238
0.0793242019386734
0.102638318170515
0.0751596588699871
0.079898424324167
0.0690002203507789
0.0888813522136049
0.0796671473058872
0.0790373100170245
0.0724070892107727
0.11611891014536
0.0844017485630889
0.0806515724179203
0.0648521089030004
0.0812039782089539
0.0599164881894675
0.0799767016128893
0.0637590813313156
0.0722064745296558
0.0632959729330357
0.0795850130276003
0.0679928609973316
0.0942455719260708
0.0977736049900408
0.125187707097703
0.0942387815380734
0.117719836580927
0.0997462349699821
0.0765893254086606
0.129503254728767
0.107386770464571
0.0751338056179068
0.0796828731365924
0.0657951722819198
0.0816297822232415
0.0747188237990406
0.0867648028460609
0.0923596346804414
0.120782822706798
0.0767130099790903
0.0851066355282527
0.0589988760359206
0.0744679713666188
0.0857070427820382
0.132613677591749
0.06697690669796
0.0952689210421319
0.071681510220143
0.0874871639302
0.0986316071645276
0.117219629231148
0.0719685726257529
0.0760425498211514
0.0625145284197277
0.0776709015289644
0.0780763938578499
0.121405594699045
0.0850497736925783
0.0718864432565791
0.0696873444891506
0.101099199522403
0.132940674521711
0.0942603803478779
0.0719049535322137
0.0731512515823845
0.0815087929828766
0.132700169738443
0.0729883282015673
0.072778884414388
0.0887705638159012
0.0995435710885668
0.0596277336886269
0.0695559860921884
0.0689026377357156
0.0960016913610807
0.0699196332897702
0.0733039617886345
0.0812261476846261
0.173897108861686
0.107393894664985
0.131762846300446
0.0857940187530737
0.0813606143059916
0.0795503948968169
0.0674540520664249
0.0750371010270851
0.0705648613373654
0.0702488254784994
0.0963982749087327
0.101502617593042
0.0755243756927846
0.083730315780473
0.1172477114723
0.0842999189581508
0.0811859248390166
0.116845626386902
0.108200613530262
0.0573040279027504
0.112006192267822
0.0839868366439259
0.0733881527507468
0.0844826413619811
0.106947390506169
0.0732567862122998
0.0768549138698317
0.0616792773896859
0.0871145991797035
0.0904541845143119
0.0876005684521256
0.0655070115784555
0.0764200593288268
0.0651136871117561
0.0969775936884859
0.120847635701984
0.120935379802823
0.0812864406073141
0.0758844860076498
0.0592212323134068
0.106326323286024
0.118700533446185
0.0732675039194998
0.0592965980620666
0.0729252882734503
0.0609984819570475
0.0723032154010009
0.066880041542817
0.0638270302531306
0.0652456129953582
0.116443774463093
0.096378829945907
0.0665546321958949
0.0683067904297688
0.0775557172728841
0.0865609627275006
0.116493637828123
0.108715119129728
0.0732669785523055
0.080003236711416
0.0744986267237013
0.0940917620079688
0.0960670895220969
0.0680120558989863
0.0655001857623673
0.0655021643025602
0.0689787359473727
0.0560943408871288
0.0678518018577457
0.0671060852711287
0.0688517477055887
0.0664846228243192
0.0722622424204697
0.0719093508530073
0.0837485802380798
0.0739066355121348
0.0726355137155223
0.0668523917177652
0.074752237734759
0.0773513185968422
0.0991176214459008
0.0694645970894981
0.0727464929108041
0.0609952781095996
0.0678307476172664
0.0619779498198333
0.0697300773093794
0.0718965060497811
0.0672408926277919
0.0736109469073855
0.0929417190700447
0.08852242556659
0.0660262027368474
0.069938512382509
0.0804105261259435
0.0969046934469975
0.0645961778932273
0.0719348352382024
0.0644684141250516
0.0643310061745021
0.0723378224368045
0.0984577555205371
0.0826848893845578
0.0752427490865936
0.0866314223246293
0.0837399053099696
0.0698636158455326
0.0683080393091202
0.0853806210676108
0.12750824112314
0.106483435562856
0.0815682152796945
0.138965992965084
0.112032335828894
0.0844595951362956
0.0741366815640393
0.0649673911414713
0.157111465079287
0.142215927044703
0.0792638108469886
0.0894857839824914
0.0777947057945891
0.0800494159352936
0.0739055744379981
0.0963632105483507
0.0829057970912622
0.134974643183624
0.155329128062606
0.121748571651854
0.0825659564286282
0.0983233759125554
0.113884140786494
0.0776676881977989
0.0766719472923435
0.0723226833425213
0.0798447338458665
0.0949196101185359
0.102054971451346
0.0961106755456034
0.075956106096261
0.0902114074043653
0.104627871302726
0.0928808216612061
0.0741756825907697
0.0838874758460446
0.0811594977666402
0.0768089116528556
0.0686971815793388
0.082885982156092
0.0800870320037964
0.0821204647605973
0.0790109644422579
0.13577292537928
0.102121379547909
0.0858093643350505
0.0984713507347937
0.0853239639187952
0.0736258293069166
0.0811068580166162
0.0693550807822048
0.0694881249011619
0.0661078043241342
0.0766844047180892
0.0977247985666476
0.0957316383138512
0.063011938070447
0.0770775891782661
0.0608249895379913
0.0796510095230029
0.0750187583229035
0.0766512700819318
0.0744188050392619
0.0779258243840297
0.067852866177884
0.105275547003938
0.097469030185648
0.0879118987408957
0.10330051895082
0.13370778686976
0.0835453188929159
0.0866406248210547
0.0714128715740416
0.093458639159072
0.0795934651748872
0.0784856293295708
0.0781128356997214
0.0890188223433254
0.101367668998221
0.0985066293497568
0.0809918660440846
0.119887609680451
0.163878504256883
0.149485609326513
0.105309944826404
0.0953697397159909
0.0875472473218428
0.119864186590339
0.141871053432264
0.115714837965885
0.120279671044525
0.0979535140171549
0.0880489756386045
0.104105496651559
0.0908375317216728
0.102493413291999
0.0923237503847675
0.104819221542062
0.0859046978880276
0.11116219560091
0.0960815338908796
0.105640315832489
0.113318334028465
0.147804798401402
0.115415864552487
0.112062645561968
0.108799544471726
0.115864293304376
0.126037318045756
0.180543145405966
0.147785437291337
0.179657766792152
0.147705708925569
0.180518018770421
0.132795035363866
0.130156017249027
0.113746655403739
0.127155139974646
0.129250700370923
0.129896118275444
0.122980619217446
0.132147830592943
0.133930391905346
0.141720960069807
0.134107101662395
0.136295357470168
0.135679935877467
0.168699335775713
0.157433444409846
0.144854228945643
0.149725021608728
0.160009794852602
0.223790661583301
0.216026392039667
0.166021773177803
0.165866018088736
0.162494135925524
0.162032911813599
0.16352036787813
0.1610004284169
0.160857493696279
0.189098912636145
0.186066162485321
0.208871503193119
0.202453079409376
0.195246162043508
0.168806031186103
0.207273708879759
0.192313545937672
0.213907316430826
0.21698938400485
0.204145360999259
0.180577245075528
0.22787909707343
0.22309505819847
0.218865440847593
0.223480213068027
0.206656934340802
0.183141673725581
0.212246248965138
0.208711667556638
0.22368651760506
0.206227145440406
0.222660529526979
0.217085755055009
0.228315711916625
0.215830227675705
0.245028287793506
0.242602991267951
0.238644871596919
0.233566151424272
0.245971027796501
0.2357591707378
0.241340998028447
0.233667234180427
0.267955870408173
0.265220750525138
0.286260907226569
0.278104289815647
0.268765831932549
0.238004049269811
0.262313964085492
0.259907597592339
0.272411988700826
0.253032335884467
0.283826032932956
0.273298902943892
0.28348524716907
0.272303936049382
0.287343249571262
0.270251670673717
0.285130761351455
0.277229070980687
0.296971149439516
0.285995632974779
0.312441908719562
0.308116819355146
0.352999973534559
0.34153578338311
0.367999098031353
0.352127025199092
0.336019422985422
0.310291212898544
0.32736581292522
0.312657408730751
0.343683041562921
0.336965860561149
0.337046220381689
0.318879141497731
0.339324887900428
0.33407345049062
0.357358110544399
0.344914241750941
0.370426918725083
0.366221477791039
0.372898711542874
0.358253118009029
0.392818472986725
0.350743713344072
0.384067441066572
0.37715193896897
0.435048179858384
0.410959156077948
0.396390483678027
0.386464558134581
0.388975960324481
0.379467776224675
0.408013423044271
0.383720879695725
0.407258330440645
0.401653604615944
0.4381093616946
0.424285056837252
0.432540872877073
0.408807992723304
0.450752548118247
0.416125154633161
0.446831082042301
0.436127209978835
0.461842991208143
0.445981144248702
0.485122598242562
0.434452964003981
0.472146941460119
0.445745169340012
0.487858640747138
0.47982786244575
0.497708909291445
0.449878799191329
0.490781205119086
0.486970671313546
0.508347524633561
0.482538442608879
0.494901795366673
0.491713215540231
0.514765843319297
0.486897250104501
0.524903691826381
0.508541006921042
0.540672563480727
0.533113256435946
0.55132436035199
0.505418261395014
0.565224926138564
0.519554124423799
0.548618365624669
0.550891965706861
0.579361583049882
0.544741535810774
0.582415381271949
0.538685498506882
0.564198861064674
0.557995143777183
0.586320959899887
0.577035291640158
0.588198120662756
0.568546786705709
0.618667998608153
0.571830113679356
0.6113012691754
0.57352424109445
0.623103483991483
0.594225348719357
0.653478595809305
0.605140905159018
0.627509451875663
0.587896550991422
0.644565658415626
0.616777534731274
0.668263288617491
0.628006697452955
0.633043566451963
0.61490788132483
0.638289781708347
0.641529948916307
0.691167120919458
0.637320557402057
0.653856975040424
0.624840322974275
0.68940998694149
0.668765517888865
0.691616529401098
0.651417643370854
0.677087426768658
0.661343854334163
0.704998557959357
0.662229895043952
0.744033037323318
0.650586870147874
0.711583926253514
0.692534404276875
0.749555896655626
0.697398300193345
0.737545290440885
0.674961111007236
0.734966652372245
0.712127771863207
0.743618204497006
0.73626957353826
0.766855706592381
0.75619830452305
0.766054355161412
0.75526011313114
0.773602729339279
0.749810796108924
0.766623326215086
0.74132022008439
0.76050681388854
0.746436459770141
0.858610750503602
0.79737572509125
0.819675437408185
0.74816579622208
0.78703294315679
0.799127885640214
0.828901708271051
0.74684983506518
0.811468230706454
0.787552212073055
0.8460162524219
0.798879466168539
0.824300366638215
0.816717862506847
0.840763933513302
0.817021316467208
0.829513188936338
0.830990450098829
0.854141213535776
0.830270347807965
0.891668590436992
0.81348527997147
0.924471872902977
0.826165806097015
0.960302169790721
0.829350080340612
0.911186929734072
0.863620090239002
0.886907640763361
0.823603775108314
0.886706654896341
0.885562437815299
0.952080234509546
0.857873602573738
0.859673888712062
0.819754733180339
0.91456141905281
0.860415307847238
0.912059597411505
0.852038537873219
0.941114259774115
0.921201069734393
0.923138812710355
0.907511493628912
0.926667634701851
0.856428144663113
0.938264428470917
0.889512280460436
0.928533099178927
0.879847893983145
0.9808272786211
0.948264993433299
0.983549604813228
0.928224950976275
0.990669654377188
0.961854620293377
0.993216903882759
0.927389623673411
0.991387518988933
0.93732630091744
1.00956747581695
0.893295584550943
1.03338966380573
0.953673588189805
0.988255527387799
0.969641505433847
1.06443992775109
0.957751062193695
1.00240048795238
0.937778429503667
1.00391883224408
0.967686156963015
0.984791548355731
0.947387318024857
1.01931561202021
0.976389374847832
1.00562556931803
0.976967994059477
0.985698548343557
0.939315783135746
1.0033096044138
0.896327597722632
1.04110810113861
1.00216308080491
1.04363885285255
1.0143216314341
1.03038651673227
0.995997456402382
1.14656041021388
0.978567726597113
1.03778006667381
1.03300603103101
1.09861437143291
0.948779540132602
1.09865869092239
1.01812431324803
1.01015747532719
0.997294933598567
1.04897801000034
0.957644318572575
1.04556852960808
0.994365364083133
1.10284874182415
1.00651584022634
1.10789217644463
1.02905333587397
1.14548604987943
0.984877118980193
1.081942782569
1.00653817912323
1.05400996799562
1.00628002280159
1.10395851257635
0.980407670168367
1.07348899368859
1.04081229491007
1.05939503446458
1.05826812771528
1.07128697253358
1.03731833543326
1.16557898105941
1.00870161839041
1.08719927747128
1.01487252695812
1.04880084879497
0.9485479726317
1.10477224028214
1.01151422991852
1.08330393618676
1.01430288539185
1.09439881678054
1.01738773114896
1.16628409034115
1.06663235493661
1.11024996708722
1.00872777450709
1.05785974170798
1.05743861311521
1.09717324600073
1.03161460425376
1.09193478018647
1.01975252213414
1.09411272326032
1.01316197740335
1.09091179345635
0.999539469438683
1.1059924975461
1.09611629065328
1.10884672592272
1.02965402145986
1.0871686160747
1.01444763101937
1.06682210050932
1.05544690123946
1.12217086319877
1.0519805331507
1.09227833487788
1.01080386768674
1.05173621159826
1.01045930803622
1.07400507846942
0.990140166097816
1.03637108548055
1.02183990682718
1.06362747792379
0.996186487981025
1.08181168865184
1.05491349180934
1.1152437692354
1.05358100803354
1.02803812313035
1.01665815944799
1.09911654766565
0.985048861018143
1.05499164800026
1.02902896298381
1.06144503552599
1.01834179839985
1.02743147045353
1.08315766915125
1.05403986669068
1.03923899821783
1.04213027770596
1.01081319406208
1.06176795241177
1.02406802181339
1.03389690002294
0.974635515271526
1.08512929775009
1.02084041182821
1.04905955279225
1.06135324897507
1.00768188439756
1.0520154935897
1.14344802565048
1.00175449471793
1.02240423685269
0.960198484263978
1.04588679849887
1.00948570992541
1.03395368454824
0.993922154286918
1.04097374903025
1.02804735770559
1.00877747895587
0.982183580702486
1.0805372009877
0.988105790969907
1.02845369403531
0.996866760056732
1.02504859819077
0.974351989345278
0.975192219931017
0.97396353801553
1.01560192902838
1.00771242505273
1.07339982238156
0.969204119552614
1.05817771212583
1.00172938465315
1.01813965464737
0.960205868152316
0.992336448014576
0.975336866877984
1.00439988301836
0.903311930015662
1.00715579083314
0.97378212757729
1.02551459192335
0.959854423117617
0.992770558252872
0.912923629581385
0.976530306492846
0.960886716032812
1.00077280941682
0.95051151860028
0.977970362379537
0.934390841790246
0.960507694056694
0.883452040335139
0.95105886621523
0.956512341093552
0.952610639861227
0.925603588531295
0.95427595462605
0.935482012183415
0.944417343168234
0.934819782445382
0.942673793893665
0.935019764987408
0.916350186834637
0.917030197469818
0.938401151021897
0.891883073054968
0.948633318781755
0.891272423492822
0.921806951520994
0.89597610464174
0.946785617474551
0.908271815800575
0.949799996953516
0.888215387360287
0.906640938085124
0.867824966931834
0.905975760800854
0.873959327362866
0.865309138704992
0.873357365064868
0.920147547977503
0.854355502002506
0.902306336213116
0.839538898505327
0.871165385310377
0.849228970529168
0.869768944481455
0.833088467991565
0.872998848029777
0.837077395558489
0.837360551696457
0.854178944130183
0.850599730651942
0.833801414871572
0.853150497674921
0.849937991312732
0.843279390924527
0.813271660629145
0.858549483170377
0.811417966203833
0.81131224326505
0.794178642557383
0.834552624175258
0.781003426579117
0.823698108613521
0.781046750942295
0.809150224131783
0.782689158747513
0.789604412388105
0.773341943166484
0.785173753690499
0.759569282085205
0.797621890940057
0.743125455089674
0.746678491642749
0.750386422330204
0.76597584453287
0.746019987154851
0.78149461710754
0.731651048428004
0.763016287146016
0.726714715524595
0.762952505592709
0.734333793991864
0.746836197882439
0.720858818614587
0.726508473660394
0.720198519794338
0.728557464704921
0.700824171308327
0.724915379404005
0.698408938208844
0.714473665718998
0.70362042010407
0.701926537470719
0.690992404326761
0.687202775440466
0.671024982899843
0.721909936828638
0.662483527023433
0.690124876478153
0.666192002542551
0.681275574636395
0.679711125240619
0.677920543563178
0.640024462683331
0.669554705961855
0.650912475151693
0.634550457034814
0.636447583013056
0.637383944304775
0.639643309092431
0.65986862411586
0.629583469915721
0.649230787227493
0.6395080811793
0.64783611677861
0.628199985342049
0.624738254515469
0.607619426425474
0.623703255519999
0.593014635168487
0.622566948199904
0.597917770503142
0.614489128330788
0.579796794149315
0.599326548895994
0.591812693250134
0.584934341212106
0.580009624925452
0.590330308902157
0.573458482890892
0.597333613207945
0.580169900755855
0.587544304185259
0.581428443213701
0.572202631357155
0.55892223626805
0.577466221735442
0.551898859793296
0.565366257829676
0.55158169013089
0.555759155359198
0.542297229237885
0.56820462193022
0.546847174003247
0.552373271994925
0.530374425923284
0.533324938285348
0.527864131843921
0.539504523464266
0.525303496575799
0.528696035591199
0.518902150476736
0.521406659191563
0.50759578546348
0.532462644122155
0.506112014899698
0.516546368569876
0.493759788139492
0.508732655915434
0.489986645143037
0.51168032467832
0.493377968356487
0.498881521284691
0.504321194233735
0.495795149436139
0.479544217458127
0.499264705825994
0.485945859229367
0.482202412579145
0.478886016396481
0.487927219375619
0.459263103278466
0.478542198714274
0.465706044262854
0.467364615261392
0.458641876647763
0.471570619145061
0.462079842184011
0.469950384962192
0.449675329645399
0.465632772393669
0.448393859129561
0.462565440646003
0.444197779319056
0.456992370063943
0.430138125802407
0.447076293678304
0.434730927789366
0.445932186335644
0.417142323812449
0.442859008836281
0.433315994385626
0.428102815552702
0.416987835140317
0.436058217766167
0.414999612805864
0.434076385008108
0.420682971634435
0.423745805646371
0.418090676697674
0.420309525448591
0.407116530694652
0.422209271215915
0.402019891812658
0.415742850036861
0.397267024120314
0.411033459712732
0.39470289548099
0.408175468957736
0.395081857504852
0.396469142579486
0.382024976268291
0.394184698842044
0.383796243187342
0.401366729794601
0.38095379865686
0.392925881408427
0.382346370438007
0.382543984275339
0.387459374590074
0.376344788825648
0.369411484485842
0.379130483037258
0.368353565649607
0.378260533801341
0.360079846230992
0.372093379186308
0.36561777838001
0.369274064739382
0.368814288181664
0.365513184708321
0.360805855737618
0.360999701044182
0.358025199213813
0.362947663404138
0.359118314004697
0.360795300328547
0.360760874325424
0.363307081794939
0.352140163402657
0.347853229446019
0.345274372569033
0.358954170814272
0.351220943040076
0.354133501080843
0.342860346800997
0.353869822822972
0.337184616578128
0.348427769204671
0.343115628193959
0.347168902285281
0.340873541846621
0.355355570796128
0.34131026976863
0.349902362200314
0.336543925006029
0.349126840767403
0.341922367903782
0.351505248422624
0.340345562354632
0.351436079315051
0.34249908561997
0.349871152822947
0.343223334220769
0.347434112966633
0.333821698677889
0.354038396534718
0.342316858626109
0.345027507433398
0.346269939503743
0.355281204006165
0.349864284523641
0.353762374234832
0.343851928910703
0.351789751921206
0.352855434584063
0.361080285045923
0.349370927587419
0.360754708307692
0.359312406351202
0.362372743254528
0.353790856646378
0.357396876480335
0.357267920563295
0.363316371829246
0.356700190658997
0.374463033999438
0.35363943488851
0.372215514927677
0.364021222626192
0.377582012669652
0.370925969458109
0.384822399008687
0.376262058639386
0.383075801784711
0.372832172862809
0.390498565658431
0.387747110480411
0.393689521272883
0.387186037550199
0.397694558190421
0.389344549083849
0.405830922373556
0.395040657704651
0.412123509474516
0.401100428032991
0.41227150114225
0.409999788551932
0.420912660487414
0.415103836442441
0.430340703070235
0.429000045843645
0.428394047767348
0.42899340176805
0.440894401855285
0.445246634824115
0.449081755253453
0.438452398895449
0.454625646390859
0.441352798129006
0.457936770092628
0.452151091120746
0.459500288419811
0.446993578809549
0.45188393708636
0.458617110961135
0.462788792988159
0.446763993073533
0.465296868530993
0.461073188676461
0.459166893395707
0.443821929991216
0.462322374764307
0.451482644311037
0.458538160115715
0.445113602225766
0.451959801582642
0.448917684272693
0.460031528967466
0.449727583622867
0.46157957491378
0.447531320890637
0.45763985267361
0.442224221765682
0.454890127688108
0.442069036826698
0.452192139346912
0.441920181609544
0.446719541375803
0.444631597830564
0.454251315286906
0.441114133101703
0.449104279166479
0.441899040693486
0.457327009725707
0.443298143888953
0.45237613159234
0.449729343754471
0.451830451783498
0.438602855320688
0.451923638788108
0.448107353506397
0.455919284188067
0.44741319960859
0.456457557036816
0.450461161286488
0.45581359166337
0.45168978229988
0.460694462267464
0.446820536068126
0.450287961633443
0.453527791342299
0.455253548769665
0.443479985038834
0.459489582758726
0.446514754587907
0.456116598398358
0.442273560370897
0.443579733138611
0.442109123740996
0.446579421547608
0.43647581738785
0.444192822771421
0.434258655149988
0.430072137237679
0.430149113197704
0.428996786319693
0.421163881442769
0.429956745158735
0.42214848574045
0.431583838858771
0.413950553813685
0.417468019309061
0.40792919155724
0.417708726970614
0.405739343881879
0.413708055492885
0.392531215770807
0.40921025184475
0.40152014876965
0.406463240435341
0.390176936783893
0.393997388390566
0.389666473439127
0.392368318916175
0.373168392771803
0.386410230523979
0.378260627699192
0.380131375967772
0.371209451502621
0.363949680319743
0.362181563193207
0.3665899132844
0.361156192169813
0.361627267351106
0.36218101818265
0.357233305340964
0.356215588089717
0.358619592587546
0.348236864737833
0.354127471911314
0.341228176661174
0.345861265150912
0.340736328317555
0.347785351219797
0.3383289105181
0.346473075855525
0.332948409154891
0.332962027875444
0.322927955265576
0.33383487603347
0.332385715667932
0.339367709265833
0.32468206493235
0.326036731932739
0.324056792576757
0.335933908983955
0.322009159368022
0.326327098246706
0.314964339729115
0.323564909169644
0.317865739170768
0.316474187301209
0.308478915630215
0.315084818193676
0.305855618537724
0.314073008168165
0.305206659956134
0.308931226059943
0.303017593852205
0.312723156866927
0.308049946988309
0.305223722395769
0.292593487247034
0.304722225355575
0.302087635342313
0.300459656355067
0.292254792552913
0.301121468175736
0.297457746454191
0.293546689968137
0.287985549745115
0.294537737095912
0.288399200605779
0.298154527565056
0.287107155345554
0.287236089724751
0.28554153315489
0.291833158136373
0.284665718079797
0.288094018513198
0.282571700646624
0.281433987310046
0.281496451206738
0.288072872398834
0.274549566644919
0.284805115916862
0.283674528260127
0.281891821244446
0.278328004529825
0.273014748983938
0.273271635638485
0.280162823150485
0.272113292296277
0.27544896602362
0.276096265053069
0.275469137433598
0.273158844189667
0.27318377237419
0.265774958818866
0.279894574676735
0.273672532988612
0.269970425862535
0.262869548645327
0.269078707054211
0.263986349714696
0.269960630750988
0.267037680785198
0.269902361151022
0.264810744758472
0.268545853949588
0.261855495358577
0.26576848771953
0.263573814436511
0.265840607861881
0.25383869527091
0.262197933558865
0.260603578883557
0.264526339073562
0.250631662548023
0.261571932221171
0.248956638027573
0.261851513623943
0.257301256794491
0.259878978352241
0.253059432003463
0.257699981834806
0.250571739552901
0.259226667348384
0.257075511764374
0.257328685598003
0.249897112578939
0.253602296141137
0.248420061920307
0.258108223399799
0.247416572916543
0.248143713354969
0.245589909961339
0.250396009341836
0.244600923885355
0.250934680993521
0.248571145876293
0.252194370998244
0.242017232968195
0.253263557417434
0.242324281770183
0.249767478585579
0.245399955899136
0.245702241909833
0.245628773403143
0.24913021104408
0.241978534887176
0.247156492036571
0.239212135813656
0.249392615205141
0.243512373903211
0.243708580469408
0.234597704270607
0.244414426668871
0.238302563248574
0.243746295091876
0.241614572746829
0.249077437751186
0.241103018826357
0.24538193573721
0.236690201048195
0.239829087426827
0.236977906065915
0.245495898874422
0.236752513587019
0.234299309003095
0.23299453600988
0.237164221600981
0.231823657276386
0.241212014191532
0.231890959469314
0.237031764772614
0.23193425402054
0.238641883324374
0.230842537205534
0.232424463496913
0.228818025851913
0.237747346082777
0.225860371025591
0.230249810788069
0.226358251581969
0.226876646634307
0.221615531692053
0.226411025809656
0.223532516245986
0.227724308372988
0.225917438060892
0.22616147902262
0.223976667934083
0.2233283190773
0.21830591072641
0.224555676409697
0.221720118694147
0.223346787449732
0.21708977047157
0.223968548894756
0.217338663602666
0.217705607191236
0.215945777970417
0.218463139628193
0.215593323381525
0.21759116598285
0.213955729353538
0.213590200904085
0.210164688450188
0.217819019121156
0.209475329181089
0.213814738733634
0.20776118518256
0.212418523750221
0.209089572312383
0.212696545655529
0.210140286938218
0.211426933050817
0.206724801045678
0.211002032671407
0.208212653833433
0.210726228607709
0.206455707998082
0.209063435791705
0.202333551322011
0.207463459431545
0.198608888336445
0.202578882533219
0.204783027009997
0.204010019629411
0.201277301219868
0.207662986964635
0.201265845686194
0.198661025930458
0.195614447742358
0.19836570586759
0.195477995460731
0.193894528580887
0.187676407903436
0.192947769003753
0.188492333311168
0.191533862825139
0.188353729993712
0.192047363416821
0.191728291501166
0.189936951412889
0.185799042425543
0.190225594330709
0.1847606674367
0.187275326802184
0.182127195631591
0.186374389011382
0.181201380400323
0.180890492037215
0.18107682250392
0.178142182718179
0.178706363606501
0.18131983901156
0.175009388291545
0.181355465672436
0.173629601619006
0.180295027011907
0.17521863620327
0.175560073408048
0.16967039326526
0.172076424941513
0.173039252858832
0.175591107810428
0.169112241316642
0.173486510941396
0.169457373992363
0.166954347549921
0.168096545833905
0.173938826577607
0.169127277573072
0.173437887230857
0.173076359651063
0.168281326362445
0.165994360533109
0.169163727082081
0.165194879703443
0.166501992680808
0.165407361019595
0.165928820404803
0.164896333232184
0.165469711764831
0.161127386892793
0.162451438470996
0.15723961712935
0.160044427849557
0.161587689252327
0.16172576509613
0.159061561422125
0.160014443068741
0.158375176993365
0.159559169474072
0.159732626831877
0.158986226618243
0.157222922304982
0.15949122168671
0.156721950477707
0.153217334087593
0.152159575037447
0.155792255831806
0.152537492479779
0.154855501801923
0.151883820798377
0.153421411111157
0.151100044425083
0.153113366103094
0.15015910394903
0.149977259875808
0.149026999899899
0.148709049888372
0.148358037844118
0.152546460836889
0.143845276850969
0.147504846233619
0.14882653229544
0.151929886832203
0.14753901345489
0.148553812888247
0.1462612588546
0.145929488368144
0.143459559913574
0.147821548057929
0.144857334758467
0.146565204811061
0.145983186270677
0.147856701526601
0.14298151623481
0.143727842475869
0.144577678764368
0.146412384100536
0.145517347426923
0.146925610629499
0.141744043637519
0.140889182677067
0.140402714170106
0.14173754331773
0.139427864037633
0.143537733408695
0.142504775713662
0.146832385352516
0.142465824723853
0.143120763909132
0.137397463085578
0.141600877123856
0.140103721421608
0.140961835464144
0.137701804263322
0.140665769325482
0.139146479846837
0.13749749577729
0.137502676312957
0.138580697155074
0.136244462609165
0.135611219499946
0.13746466627639
0.136751032623303
0.135625632364539
0.136922968648612
0.132922882756342
0.135652498923355
0.133451173316715
0.13178953983438
0.131102121175811
0.132819320994257
0.13175817770477
0.134726125297318
0.135777730859154
0.131239933213529
0.128775418539712
0.128457536146905
0.128313227844187
0.131209940576078
0.128815565914744
0.129367239474835
0.128178862476663
0.1297520503523
0.128109568185684
0.130985964171831
0.128092859712927
0.129889109265141
0.128382253250461
0.128608001138447
0.125551253702325
0.123393297527603
0.127264247522124
0.127951616857575
0.12499373958985
0.127961566052511
0.127261483558199
0.126245825962622
0.122295402123063
0.125197392530883
0.125138775504539
0.126532278460418
0.126880134467929
0.124919941121933
0.124097578150879
0.125330166343836
0.124959721082244
0.122639690067666
0.122429159541078
0.126008401056713
0.125580580537415
0.123549925473355
0.122033215630949
0.121472938119024
0.121715655551039
0.121052605040934
0.119120995879973
0.122154024241778
0.11883128725392
0.119774863490239
0.119195112488622
0.118894306330374
0.118840192857539
0.116125552029824
0.118799385693288
0.117656062574656
0.114086000279496
0.115470931271071
0.116037588661304
0.114029441758812
0.108633008498613
0.112900604623324
0.116277297155966
0.112955416079854
0.110055967788368
0.112852406234107
0.11246985149157
0.107122551697468
0.108213700679648
0.113227950722658
0.111034087787313
0.107020030467536
0.108387682059374
0.109364194775452
0.107744034838449
0.107634047688906
0.106674568405929
0.106651599686294
0.107139608803817
0.107996033348293
0.106144593906741
0.106354787942367
0.10268143218527
0.105123257156437
0.103837288674827
0.106123905963994
0.10690596863431
0.104172315389976
0.102321748219806
0.105949726875547
0.104177700519917
0.101459852139898
0.104021943161627
0.101330000142102
0.101214835761105
0.101174871060675
0.0979713137694046
0.101424280649389
0.102091226203959
0.10169784420465
0.100206190313896
0.0987897448210961
0.100344845695478
0.0991338755565454
0.0985101517853462
0.0965077288063732
0.0965324981834909
0.0991470655301493
0.0965011829920635
0.0969886447075686
0.0993023662867468
0.097123159686671
0.0941098900140194
0.0926967882712603
0.0924933432099714
0.0947441572607667
0.0931592643374222
0.0941842260119073
0.091453105282726
0.0910521301259855
0.0895729252614049
0.0897210031169703
0.0914648485152939
0.0912293632764532
0.0902665439679692
0.0893388050786667
0.0880728240088804
0.0888220669391692
0.087623896359412
0.0868112240335674
0.0877147776497646
0.0883412527378628
0.0874442204778652
0.0869108965665524
0.0869984597302797
0.0870652313734723
0.08482584161291
0.0852930765961935
0.0884311369210431
0.0852131887927982
0.0842871013760641
0.0864811226731767
0.0873215001052332
0.0873778403614905
0.0893387257145255
0.085735168853455
0.0835365402997852
0.0835376679781341
0.0841762132462515
0.083737787244444
0.0872874708511715
0.0846893327037374
0.0828839806648405
0.0833015540360364
0.0842506796865798
0.0844377121410789
0.0874078261581143
0.0861337387748941
0.0861310666923828
0.0802340032926804
0.0828253647319025
0.080364520508889
0.0824291911546608
0.0801742788091274
0.0766822334845791
0.0756490382683696
0.0705742776120885
0.070129021839753
0.0735185936849105
0.0745186860510609
0.0800118430142795
0.0756311515397758
0.0689854966656564
0.0622971678337564
0.0712212043234694
0.0739379955582667
0.0655894787002305
0.0614404348168297
0.071661622438898
0.0619776102199307
0.0683138647151926
0.0655872715112686
0.0680661387506099
0.067904808881745
0.0676319862381923
0.065795503713082
0.0673177363134013
0.0676348828975673
0.0796809252311843
0.0740456207665213
0.0779172224797009
0.0725689972971743
0.0762470258380636
0.0672830106781652
0.076307972124052
0.0632881230099465
0.0703302259780404
0.0663585605797476
0.0721207619508498
0.0667734414445005
0.068174183473538
0.0622474800194527
0.0651143946020015
0.0604401124190851
0.0646298026056801
0.0570983839360142
0.0673372350677752
0.0683328513039144
0.0759904123020331
0.0696127962104274
0.0645621888341448
0.0623127567699297
0.0634849125505678
0.0742704632791464
0.0731599397689972
0.0707275818248239
0.0583024449197397
0.0797413060131079
0.0718774116917278
0.0822398717067979
0.0555987897055843
0.0837562937150812
0.0659491259308519
0.0911654599290194
0.0529804088240241
0.0899454305360522
0.0645762339598619
0.0848176275880978
0.0633786253361888
0.085628337614071
0.0691515931805637
0.0824936140227062
0.0703796071807751
0.0733537158926461
0.0759290608353032
0.0741712377969196
0.0753512443651352
0.0711162370639257
0.0721926721770604
0.0743713515387277
0.0738234954225666
0.0757795991652581
0.0714902832405921
0.074686702635588
0.0681326110019814
0.0722982546204881
0.0695099742200989
0.0723537290074798
0.07105963057139
0.0700999499470984
0.0700454990829237
0.0714637750179994
0.0692649729969639
0.0735927869809856
0.0691943114109346
0.0697326818383782
0.0699135147366723
0.0732958114123766
0.0674076992023827
0.0697622679795588
0.0708786073719956
0.0705511188292378
0.0669282229096301
0.0683272862643793
0.0694174047748026
0.0721119209224927
0.0720296626585647
0.072684921800143
0.0698406146386279
0.0709457203779049
0.0688423558077692
0.0714010356158451
0.0704658863364773
0.0712266745451096
0.0701748408064564
0.073108147080569
0.0683825428532615
0.0721145996782137
0.0706024998478376
0.0697341358371535
0.0701099221235156
0.0737429579431234
0.0732838682662283
0.0706875347028427
0.0703947553129845
0.0722504417050952
0.0702117077978123
0.0703615493655839
0.0714593227611943
0.0737900920357008
0.069487382083968
0.071610573564323
0.0728559502308494
0.0721495072505454
0.0697436883357003
0.0710547774001137
0.0707148332114841
0.0706975504476968
0.0694446132253577
0.073487664128864
0.0716601590873234
0.0709997364504708
0.0695795003232455
0.0699492869064832
0.0678025445785011
0.0678270457537302
0.0706296166230461
0.0703827575982184
0.0709127910681783
0.0708316547271347
0.0681958854547365
0.0703552565023332
0.0718098516032831
0.0721112760571175
0.0715441609080743
0.069757012747655
0.0691068581975477
0.0712055815767248
0.0690745747188597
0.0727649656379358
0.0710555595988316
0.0690581198889618
0.0705452278389426
0.0705718214421267
0.069885451467341
0.0696598266378623
0.0721036444294723
0.0727232714899411
0.0700206743070773
0.0725165627699511
0.0710583098308998
0.0717350803925929
0.0707051563394269
0.0733843894107977
0.0705030284916342
0.0702443353512234
0.0746443234897827
0.0732663695990522
0.0730211480067929
0.0726862931662689
0.0726136226070897
0.0723368843941295
0.0729391530107602
0.072787295329316
0.0728724391121141
0.0766708420231038
0.0762317915368022
0.0746577838860868
0.0723387336699145
0.0724833935686597
0.0737602216129285
0.0752208946913383
0.0722712384099717
0.0740903354553
0.073964643260933
0.0736373236113487
0.0739273218115211
0.0732651037059911
0.0730136152845828
0.0751216376006884
0.0754256308853042
0.0751257459167559
0.0737753385562373
0.072646118871939
0.0745855027465196
0.07437341857352
0.0743254870090872
0.0738424543925108
0.0733827214926647
0.073019051292062
0.0729338639102222
0.0744123446988826
0.0767051181091449
0.0754405496488313
0.0744970067393922
0.076061547927542
0.0755353262784342
0.0760482838211393
0.0769335317152691
0.074688537727071
0.0760403572873054
0.0751361601567751
0.0754642455553136
0.0750728840550065
0.0753062206070307
0.0773155225945208
0.0752539388996676
0.0752306114497072
0.0749599402637192
0.0782025117188626
0.078588536766537
0.0776177607765901
0.0789159540969286
0.0783658493967805
0.0770638734827606
0.0777994579722107
0.0783370288761999
0.0762328688196884
0.0785812173912625
0.0818655768063008
0.0784091766541577
0.0783433687287464
0.0785577130983157
0.0772454667827907
0.0778350761911917
0.0787957267909758
0.0788941643774328
0.0784192971773059
0.0767890581296358
0.0768554019275536
0.0776690754930872
0.0771035786248648
0.0768230289448322
0.0760236556005683
0.0757090909155009
0.0757237779371372
0.0777032902651287
0.0765178339998173
0.0775197073489229
0.077803514429114
0.0791188836583046
0.0752451159415804
0.0743441218487583
0.0750365293895738
0.0745368411053533
0.0744170260625546
0.0774727364095466
0.0763429704548454
0.0756563544475446
0.072269049193258
0.0723148927415724
0.0757586542933231
0.0769454884348538
0.0729555242748231
0.0756172627721556
0.0758096484069895
0.073902002227408
0.0738909442418145
0.0752926097975405
0.0748580062092205
0.0746997555438262
0.0725665097258067
0.0746441290864282
0.0743052345751701
0.074632915542967
0.0724011068866579
0.0717863121118993
0.072891181470429
0.0743904959934837
0.0735227236619456
0.074717654570669
0.0728665049286976
0.0723704196203336
0.0745202325117057
0.0751943946850595
0.0729765469046667
0.0724235369807356
0.0731148424074801
0.0735706217384431
0.072956298470486
0.0741592639441645
0.071113629873032
0.0726446123313082
0.0734088797051463
0.0712246430196013
0.0739312822100498
0.0742867273005752
0.0714775225459879
0.0732990360606716
0.0728714574279895
0.0730068719999391
0.0736151997723774
0.0718494078496705
0.0706925771903672
0.0716960075643093
0.0697877680107966
0.0722745381004191
0.071325572970914
0.0718316321367539
0.0708525116232012
0.0724679215002535
0.0696634980998887
0.0713459042542453
0.0705814219849199
0.0707915570991461
0.0682045482079685
0.0734352255358274
0.0720722708119871
0.0711750307545056
0.0726332603445996
0.0709860041195781
0.0702035606190842
0.0709369097309181
0.0710784113011055
0.0735684086175239
0.0735877259842199
0.072228296629527
0.0702926196474288
0.0706928177079086
0.0712880186392848
0.0719497804790973
0.0693602845856589
0.0686942863673879
0.0674162263900216
0.0687506211768781
0.0710987157034314
0.0713508024721718
0.0699002174620432
0.0715647212015424
0.0691619545947569
0.0704552214426098
0.0686683301496904
0.0682116073419159
0.0667683827090948
0.069312362184693
0.0681174955279797
0.0692659246344227
0.0687101048311146
0.0702428516144491
0.0683592251772626
0.0719528242246308
0.0719316567623629
0.0689039436512853
0.0666117784017363
0.0678965205515795
0.0652544253863826
0.0693081758693678
0.0703952156008509
0.0695530450090517
0.0669256412352507
0.0672696923196909
0.0661789194850641
0.0689453256258362
0.0660421267600852
0.0673848894816745
0.0668781970257134
0.0660733773207903
0.0645494046824963
0.0657107349266609
0.064269433447285
0.0651123365481363
0.063381376779569
0.0664023360626247
0.0647061511041529
0.0652123455039273
0.0657142251769986
0.0647509316478529
0.0696212629723753
0.0676597986238124
0.0647546287400279
0.0634373066915018
0.061502353647359
0.0639210302222462
0.0611831413038465
0.0600797281439342
0.0617873034437881
0.0621797927430889
0.0628029204079909
0.0616416504020341
0.0616301313980257
0.0600484385566034
0.0591831992610876
0.0601588427721773
0.0595817398880609
0.0585892730216512
0.0576343995037287
0.060796159596841
0.062010468463689
0.0595072626217256
0.0596649580221753
0.0594736255332159
0.0598446838466434
0.0570265966569376
0.0717516002533508
0.0710099154598702
0.0589576650591348
0.0614245993856167
0.0640258700155747
0.0637213974747088
0.059155682749928
0.0612925531638064
0.0587003900570288
0.0570744422871607
0.0588687697752746
0.0602299440581286
0.0576505974944664
0.0596395378753224
0.0580605183435492
0.0599272927197463
0.0576568727214713
0.0589593443401252
0.059598057190488
0.0583782949130686
0.0576961070445124
0.0578262024434928
0.0576975952565029
0.057787831383221
0.0563443436909214
0.0560105159612223
0.0573302688546636
0.0689391945355864
0.0648692926371302
0.0602716534924152
0.055908021553738
0.0587069711857876
0.056746388387526
0.0597828273088292
0.0570821662137365
0.057587259185759
0.0579583165072244
0.0590435275133418
0.0544346679164144
0.0567682921559017
0.0562924711323107
0.0582283932634881
0.0564090771582336
0.0576709236024561
0.0553917947592506
0.0582226906694855
0.0532460293849046
0.0530481772995273
0.0535782315115917
0.0596028958364132
0.0549866200003784
0.0622177819863559
0.0506088815672601
0.0699976550511082
0.0738353711631062
0.0608608071331787
0.0567927685955494
0.056527099393786
0.0557967937561278
0.0561288671032451
0.0545531893415145
0.0553573705941555
0.0537647003537363
0.0556550171689603
0.0531320772078445
0.0540579108094525
0.0543198332248543
0.0558853974803867
0.0537282909241046
0.0553145665874346
0.0539335081085758
0.0539027701670737
0.0565816725597443
0.0531453225383283
0.0633875568803731
0.0736515728413714
0.0564908057929256
0.0614724113043981
0.0546073227146543
0.0559125358495098
0.0824163284192787
0.0598110482070327
0.0595725391050156
0.0541161285150541
0.0574495569649256
0.0504174207182208
0.0570894545844859
0.0496131310331373
0.0584424786836939
0.0609768727650841
0.0587890177882321
0.0617677357598669
0.0533517921715548
0.0551689194010431
0.0538377648651662
0.0543866087014405
0.0522023173532026
0.0546350546807539
0.0536907129546214
0.0519836460601907
0.0523864812608292
0.052823607661129
0.0546114002513559
0.0504092619733806
0.0593942775181937
0.0592647022392634
0.055497471140981
0.050938041293941
0.0585275598891691
0.0519406993908895
0.0655434589162672
0.0710134528311629
0.05477587697785
0.0556034675730359
0.0521883364342042
0.057059816186222
0.0525750230376389
0.055872166668345
0.0528915966762074
0.054723664007458
0.0525094690090882
0.057948145847416
0.051239980645803
0.053634291816336
0.0513544601354784
0.0556812259662524
0.0512170001627556
0.0549027698305952
0.0540899693236085
0.0541887456342185
0.0536923115383609
0.054456834863622
0.0789604162252127
0.0768542256459356
0.0755363056282366
0.0664442794048318
0.0612336351861973
0.0533402428172266
0.0561918849727535
0.0549616755346519
0.0542951057485547
0.0563361562634005
0.0554958642072742
0.0550704829945032
0.05747937666125
0.0559590180225127
0.0512158022553415
0.0539847147605601
0.0539001218584245
0.0551779959453508
0.0517595646663126
0.0558379629805006
0.0513009550538966
0.0553458262873475
0.0487761485435333
0.067990988259624
0.0573341480701057
0.0617457490016738
0.046048267054257
0.108416657127337
0.0687066390458616
0.0689549777674929
0.0592015702399956
0.0570773984090326
0.0554606203637373
0.0545914672487875
0.0575463551049013
0.0635159298633757
0.05530485058338
0.0569214610683891
0.0523519445275367
0.0604360448578608
0.0551758885335846
0.0538802984517584
0.0757988664683286
0.0953682727938419
0.0638635736613336
0.0643419159879224
0.0462221866120789
0.0784572699264827
0.0845151479116233
0.0575307620008704
0.0640202054372318
0.0570201163665649
0.0589970214047522
0.0535837243159482
0.0550901128774465
0.0558895471886212
0.0643241828995483
0.0594247351865182
0.0593201659133099
0.0579065370588048
0.0554433424048592
0.0626039778321534
0.058034275210567
0.0756985224210815
0.0704903188296906
0.0571715911060929
0.0680086256630312
0.0611329832179716
0.0591159881793225
0.0582397987671626
0.0624263484289317
0.0557627269626785
0.0733620620033925
0.0739570493862857
0.066250437651114
0.0812440738560604
0.071376715477931
0.0583099161276719
0.0677815662236222
0.0683145115429631
0.0764252044781562
0.0452718833212488
0.0945944403861071
0.0828098305143851
0.0900435077164044
0.0858665490061537
0.0625123298835474
0.0687967870612571
0.0595296575553667
0.0619419595172298
0.0607695719517472
0.094641440467659
0.0529601903149515
0.07465934543024
0.0498965596175663
0.0926373970361156
0.0701635296070333
0.0756040034714479
0.0620427919956067
0.0668741805916689
0.0612400188389307
0.0954232838236304
0.0622366020273377
0.0751057662023928
0.10221380820753
0.100971197626892
0.104598261138034
0.0668276445591145
0.069463977706791
0.111260649165368
0.0683398211772433
0.0772488647066525
0.060147713451245
0.0753764438973044
0.056537706402561
0.0876569274195399
0.106266857963611
0.0749869048822739
0.0750162394181615
0.0732581023108727
0.0704577318313843
0.109819187862488
0.0773008522286632
0.0803385233589292
0.0690749732447861
0.0811702252279377
0.0605534440677069
0.156351952329247
0.0738460806330934
0.115364286758411
0.0929039671400225
0.107802341450518
0.0902199052871696
0.094646934537644
0.0757072454046495
0.10783579517113
0.103797797469144
0.0912357461521725
0.0697111218509998
0.122911956842301
0.101476984483696
0.0876656133026903
0.0966083263004099
0.0814527421265372
0.0886411333314892
0.148892520818246
0.154868077062337
0.131709946681714
0.0960144190097429
0.105094088773706
0.128901842666313
0.100493362249515
0.0989328807005841
0.0961803650289134
0.0948918097135769
0.0962830652043387
0.0953992294810116
0.117969469305266
0.0970100284971385
0.113540068379157
0.0942985993296802
0.116290036354588
0.133822923913144
0.191497845791723
0.147646741147411
0.122053540677533
0.16372859988351
0.134930018983658
0.133985873355677
0.111226738433471
0.116054543937385
0.127915091320406
0.122868391399052
0.120238387025637
0.116886533999246
0.163576977459005
0.124017658901904
0.161454180518375
0.143374423032176
0.134425159181461
0.135029454547497
0.149006893998543
0.354890745128304
0.143863837582042
0.185592498164568
0.134100583750331
0.204562305938829
0.212736069389571
0.164534370869318
0.149199799649153
0.151612180757861
0.146483850000863
0.164830290005333
0.160762002933148
0.179495284093137
0.185132077159154
0.171652141905852
0.162947013505594
0.219034560788281
0.264109052402046
0.26611033181613
0.201672146114136
0.19835459670766
0.219493491125477
0.218516197294061
0.192371668859193
0.218178936541758
0.188522297735466
0.25049841604555
0.265143934762638
0.228670791914692
0.229717253184046
0.231220365667595
0.268233807551188
0.22041801854159
0.332304857768773
0.257914684569721
0.278119641293531
0.232003231961812
0.264577275366708
0.246719678867672
0.262753266526029
0.301313735799636
0.28281142560495
0.280794836993195
0.276488621852417
0.280631696002503
0.284710155180656
0.289647811817539
0.297290832549552
0.293905937905372
0.354639791021113
0.317997418398285
0.561604065052841
0.315283669331152
0.326916798412903
0.298207219666923
0.324333659132374
0.343431143234013
0.32799974554776
0.389779122238951
0.336711850800166
0.315247452831964
0.314251054388759
0.310627002389311
0.32182951455942
0.310578731814302
0.324083974521901
0.303360062792417
0.372565325748842
0.295782528335395
0.43530268859933
0.368139790550105
0.342128266037607
0.306586930548087
0.319574165850753
0.30446829211102
0.326557736403318
0.298039017612815
0.340768252910208
0.336929631020013
0.316107681161351
0.314355248477757
0.308892342760706
0.355529852817234
0.333943095232597
0.307364111108495
0.314456815399907
0.300822274451757
0.318342666862205
0.279523104446781
0.35551244604003
0.331787314967413
0.304359324245557
0.303554836863538
0.293178094891202
0.294847997105662
0.293424129953451
0.289047755655678
0.300169790954924
0.286924447804792
0.289846577730884
0.293500631335455
0.284667092846103
0.290203990513358
0.282129584442441
0.288397925217333
0.283023182790757
0.295399772030226
0.287483914373922
0.285932363426217
0.287504648815718
0.279049223048479
0.289190244787975
0.280474688005635
0.292769584433597
0.287294569771469
0.281579017448742
0.282870824308677
0.282754487198833
0.283898043711782
0.273137687367198
0.280030005850698
0.274743265748538
0.274714410256222
0.272399574690765
0.271364013626393
0.272576779492589
0.275287365752353
0.27193358498639
0.270198990608824
0.268545378426869
0.264239192569135
0.275660847584563
0.258475262207514
0.368423520209861
0.272651750101248
0.27564054926574
0.251952714409022
0.259471626083308
0.256626151417963
0.243820335874673
0.311258304284232
0.266686698897459
0.250876361005723
0.24510171520048
0.232345895548064
0.255998093008228
0.236504644798382
0.233490521454463
0.243695694779272
0.209477087868938
0.334190726614183
0.271176242164382
0.375774769863198
0.302480617138968
0.254105963967464
0.208577124524453
0.25874220142289
0.25748517948898
0.208080492460175
0.221281241724418
0.193477996674745
0.282180895135702
0.213294675168635
0.208068468128948
0.198127584423614
0.193875531919557
0.240390131710676
0.241316117228009
0.206187757121704
0.250903022012049
0.236401084499271
0.21442276939486
0.265498272658078
0.276996550145392
0.228438942046624
0.187443283175638
0.199312220333167
0.181788051659698
0.198846286348938
0.260404199497066
0.194383087901902
0.214683748534033
0.167416396120217
0.188091765776581
0.175379473140517
0.218491797046533
0.181601692248492
0.202173627016473
0.223458175593021
0.166283089243042
0.220557591262556
0.186876202058141
0.259364847305138
0.225433631236433
0.195440874124297
0.161627251184898
0.236905707436299
0.215920740791157
0.188180213578353
0.20061934837979
0.159182235190133
0.178604874015038
0.200159415832171
0.167046068481953
0.207345674279923
0.192685791573584
0.220071666553398
0.254313533523424
0.274393683355756
0.244033404452702
0.181717630727818
0.169504056405474
0.173710844118947
0.177305456169577
0.18032886932225
0.157707290870105
0.233657867402206
0.172496865573733
0.197321435950558
0.233563537504931
0.187062629302224
0.18394139356061
0.181620599592951
0.175984073736204
0.198821023221471
0.230844915763912
0.257996789780902
0.206664670425528
0.228571996487775
0.224395837495905
0.206519839429916
0.20929309320564
0.210011826172843
0.212733419108174
0.214274817459792
0.236637682572042
0.224954355872573
0.227094491929016
0.234870738350844
0.227727415331748
0.286721150470994
0.283202847382212
0.248457257153695
0.31458825198991
0.274134663621585
0.360037794341848
0.281958323438643
0.290818650091606
0.285401892761375
0.290044307920796
0.2966027978522
0.288325554683793
0.322161488039726
0.353033485789006
0.307820000884135
0.326859163124646
0.311754916231092
0.333498534664649
0.320991633801316
0.396192374084919
0.346327720926558
0.459780785641052
0.384009740303909
0.379611386498129
0.354480085408048
0.343457088917206
0.364262355983753
0.359368735220387
0.353742300845226
0.352199956072955
0.358088252008523
0.390520943406401
0.355542035196402
0.365310053848199
0.355572010497816
0.366887906714343
0.362158315537117
0.373929339001515
0.365812795401369
0.370818960053174
0.37878613845373
0.376428742286798
0.382370383697273
0.487254861006931
0.396665304993183
0.408034887885676
0.388999168359935
0.415039268990976
0.392667675502619
0.411418901028393
0.432124079236937
0.41887419761677
0.41519897625287
0.418017572527569
0.418422921046543
0.426291680427449
0.437727632921215
0.46476260438641
0.411282941326374
0.455400885140057
0.410572877270935
0.507416469175978
0.465875081542732
0.470639431786036
0.459819827731748
0.45280173168418
0.445011701062411
0.443020595494928
0.444021973993706
0.449786775058918
0.45041963226555
0.447241066068404
0.454426935847803
0.442368952121453
0.449356220088607
0.44777752135897
0.439433579038684
0.473822929132265
0.448804220294397
0.447225840483585
0.441659221512679
0.44637026137682
0.434184625672151
0.482882533360013
0.448961525586538
0.452736498485363
0.441087194161738
0.455253071347022
0.467092195576213
0.456266847504752
0.429588111107149
0.441449076226569
0.424194443230052
0.448816501533874
0.429773831718247
0.457385499624092
0.475209270031549
0.458037377349647
0.45011166397201
0.448721429067544
0.4526791545457
0.453605823942887
0.452523278877335
0.451957301829667
0.462630818645051
0.467035406810985
0.471523052175087
0.4602125468198
0.475237924608199
0.490549624369042
0.491579318377701
0.493270386761787
0.471470611523287
0.480119545931804
0.464760407523957
0.477719493682395
0.481069521191162
0.484689746351793
0.458911404297077
0.474386744446992
0.460534476788288
0.465587686016748
0.505127270915752
0.462930109927264
0.474758705102254
0.454759111290582
0.45234398228156
0.446192003254716
0.447570080867765
0.440422520510704
0.439537810312742
0.438404024335524
0.432094957233671
0.437384873592002
0.427840367463472
0.430662808832704
0.426552270930147
0.438578598796085
0.428862798246606
0.428706278521743
0.421489414173185
0.423999142756736
0.423394717208636
0.426007587471802
0.418062546667971
0.42155847498447
0.445297760625529
0.443762644569456
0.450909594359107
0.42271307270787
0.433551772549366
0.424681954350188
0.422159790281813
0.425438282701027
0.422909189062635
0.423944858127043
0.416146325337287
0.427014239117433
0.411533720187825
0.41789097468236
0.413995004321232
0.421908330894438
0.410647433672946
0.416193261567065
0.413148105207492
0.41345321659676
0.411927862392475
0.416617908764412
0.406715963116472
0.426256910141222
0.412414772832061
0.412054072187843
0.411624344642374
0.408209641908866
0.407889206925495
0.407645352061125
0.41196125636719
0.409307670424965
0.403740618749367
0.405008098608865
0.407171485573243
0.411945862509508
0.401381600313508
0.402799862958265
0.40207488218009
0.401313266904791
0.397751889748402
0.39657489396888
0.393142792697805
0.393181614536942
0.387299861892802
0.383080123629514
0.38209721782954
0.3854997219451
0.376269298758418
0.374077743816917
0.37048653402824
0.368993432409762
0.362196926833587
0.359364770478367
0.358994332785221
0.361015646658278
0.355800060234865
0.356194746829945
0.349812122735631
0.352974183197398
0.348576794855767
0.347394110453481
0.344038997241293
0.347159583075115
0.343864592699306
0.344026039784946
0.342784054644603
0.347853075350602
0.341446770267374
0.346839142209811
0.343537522363851
0.348219977672597
0.346965147315422
0.350833726085944
0.353305437093576
0.354551494649644
0.353330493125005
0.353392389320283
0.357106046576969
0.355507253809065
0.360981276660207
0.359406228660532
0.364875090037838
0.363633291738375
0.361990454608507
0.364211291650573
0.370381925299676
0.365417540509262
0.36283113652257
0.366861340081601
0.362211871523957
0.368048455437466
0.365959770920292
0.367446854974905
0.364935746392481
0.364635126832618
0.362800131283878
0.363359006664306
0.36161720961851
0.3655701946435
0.361990203194067
0.361437614792294
0.359681328808581
0.359242856064843
0.35890987054389
0.35822773815853
0.352013053716754
0.354697183685716
0.351516208583186
0.352303881715434
0.349680613789661
0.349283928957947
0.348368516407688
0.34836466680236
0.347981812536073
0.343665417267589
0.342698405954374
0.343874903590808
0.338640379158947
0.341839607828171
0.33929381764322
0.339068412712992
0.338388126369182
0.335177383510263
0.333593129720348
0.328978320179632
0.329264333014095
0.332343454790526
0.329522643150525
0.326256328248249
0.325521593857918
0.323436315162986
0.31969675832215
0.318986367210855
0.315765852253163
0.314856933857983
0.313170171454847
0.313330148093493
0.31007419198315
0.304476672457514
0.304441947439936
0.305182787395082
0.302264632819221
0.302228795172932
0.301403317445805
0.301408686855721
0.300706978411563
0.300020809770928
0.300003824750047
0.298866446395678
0.299027026284794
0.298676409267664
0.296821866766663
0.293200378905843
0.290623182937519
0.290069023626267
0.286134923210319
0.283241461657406
0.277377329586512
0.275673132706161
0.269258271361058
0.266328197132912
0.26341631556696
0.260516407427951
0.256351878781684
0.259067260118669
0.254990507974906
0.255250997235616
0.254214473968461
0.260859454302691
0.262035037389522
0.265594161943094
0.271405031891277
0.274749479699093
0.283363095927495
0.29427526354078
0.303530533638054
0.314495076265142
0.324172617762024
0.337492790498672
0.349799943660981
0.362789017446244
0.374976849153574
0.389115420690214
0.399166495811422
0.415337773874004
0.429036904495374
0.439933455438182
0.453358172033797
0.470138751020386
0.48405390607024
0.500691822291002
0.514302704328774
0.530708556349319
0.546398745037164
0.560326473077518
0.574083656457215
0.584749274666607
0.597104979521009
0.611108901348967
0.619702276880642
0.626608824194112
0.634765545306168
0.643988163522023
0.643325160500891
0.648446102217093
0.652324855182539
0.655928452706644
0.649262089869949
0.654565208369239
0.654325822642908
0.651297743226138
0.653062174453161
0.648294503540524
0.650966195053665
0.641695810799055
0.645598924396564
0.643480526544222
0.644144317193806
0.643486823183866
0.639312661948625
0.643088509823487
0.64566553401679
0.652599629841795
0.65186225150658
0.655623027609456
0.655318329890075
0.665060339857308
0.675023395674193
0.679349264031432
0.681281194244205
0.695206565374355
0.70099402057778
0.709756268219533
0.727104619887913
0.733921108477232
0.732958111307619
0.749850318627619
0.750597541379789
0.758339883201192
0.764874618100546
0.763185658601372
0.768653814624838
0.775468394590234
0.77361171996741
0.780658125213175
0.777856705009762
0.775665274698789
0.768625720623639
0.778107678732761
0.766617013532424
0.769207565325022
0.768123840349321
0.779766366382141
0.788394354501431
0.790339014088277
0.791717232599878
0.792937001794685
0.814335372064426
0.811830850118894
0.815713150043901
0.831190293618776
0.846784323325532
0.859277092795167
0.862447133520865
0.882833919346031
0.892385244405007
0.896780814419731
0.90203937154153
0.935211768669563
0.936553174197766
0.932640303101069
0.956936204215914
0.990517653999195
1.00418132844219
1.02551170150066
1.03419443502599
1.05647265428052
1.07840435277352
1.09030750211596
1.14690344233343
1.16101316005165
1.16416815280991
1.18643844526932
1.17239437386873
1.2117713038617
1.25653233927938
1.23978447325878
1.26277961491657
1.25053767914378
1.30622691129242
1.29709814977833
1.24243847651972
1.23634556031443
1.23773043796906
1.2617294776428
1.28381720154557
1.26227893020229
1.28568941996998
1.24464900293452
1.26466410797237
1.26786770429489
1.26878304322464
1.25987064175025
1.24750217415855
1.27155777269377
1.28676573976107
1.32249682264054
1.31734814926146
1.29243361795224
1.32559659524745
1.34083932368962
1.34191697688264
1.33311010574221
1.38013512124891
1.40665187570712
1.43496657078145
1.47308098126775
1.41577841602953
1.45200981847284
1.49918925643852
1.46452128757771
1.48307306152125
1.56909421837698
1.49387901494607
1.55735082212054
1.60646111455422
1.59921616695366
1.63499616018094
1.6306244623667
1.57320617221608
1.63188901684664
1.63966388905482
1.73468530593663
1.77541525072154
1.69879409986872
1.63057939237689
1.66008985887889
1.70256979270162
1.7425332730604
1.97310207366093
1.87767757426233
1.86541713667483
1.80787503859944
1.9703074536325
1.88196934268934
1.82152473721311
1.87196402164452
1.90824823476932
1.96140829339369
1.79644667781604
1.7812092189238
1.80142372744805
1.77987034963124
1.86519558690033
1.74034364735532
1.77628040520866
1.73257155432297
1.78515983368618
1.676294055637
1.58293481848871
1.60108643275045
1.55857103839402
1.45418755465088
1.59109383663245
1.48634660591296
1.4875696393926
1.53427284661634
1.46132043949144
1.40655357588636
1.42455094907376
1.39431516324051
1.42316010798366
1.41283695846938
1.38993369125172
1.38448544448276
1.37532219815105
1.26721092107663
1.29585350572593
1.29905357246673
1.23466672046494
1.20880818787084
1.17730581244213
1.10022558713846
1.05922001663234
1.02959905024068
0.987338100147839
0.931604580846648
0.90296376084062
0.855316933437255
0.795862103198597
0.755140745415786
0.7282392452418
0.675893010901958
0.641604782209727
0.618311349573859
0.586457981945877
0.55792526308231
0.541759012269832
0.509738924503162
0.491124909047004
0.47497181273365
0.461597711646046
0.444718484005572
0.432363187381062
0.420208092800945
0.411447773351358
0.403649071317348
0.390188322648371
0.386491069037164
0.38098092683949
0.375240380215704
0.372248934773464
0.371049844952804
0.373214317904787
0.369707372487312
0.368322828837138
0.366744117661714
0.36774090232078
0.369327260875498
0.370315723214797
0.376101963926576
0.385619751068016
0.387798209165317
0.383100226060543
0.384896749187111
0.389035131199504
0.388952287660638
0.38713058020621
0.386203175125836
0.389517651580988
0.388745741547014
0.390058476478355
0.382935404615931
0.384816892133983
0.381131693871938
0.385104185644932
0.388477828609916
0.381119184780702
0.381607084901401
0.388096281032382
0.384741890596078
0.387839992934823
0.390365810062143
0.399604986151857
0.392019409870762
0.392483806143108
0.399657046277253
0.395489244692938
0.392469998260226
0.402424668831737
0.400924097417984
0.40309821708468
0.400105202230611
0.402455450897672
0.400869552127102
0.402128380329433
0.398571360149813
0.392535620021704
0.396459507143782
0.392833615429348
0.39075541005241
0.389477022190254
0.398690378622626
0.400032535787936
0.394681869847694
0.399397815733385
0.397712457630334
0.403788848910381
0.406387843838871
0.408039353951068
0.423688571240328
0.429136411163591
0.430301220298561
0.450018246739428
0.458793906351357
0.471938393313635
0.479587215881933
0.484359552987342
0.489152781626099
0.490734524941461
0.482035860123043
0.486722064293011
0.484866617876615
0.483500776502521
0.475514344401165
0.466658531821044
0.460457715384742
0.449155168668587
0.43883330475995
0.442220340558523
0.438536672444961
0.425371666965421
0.4147704147968
0.423072454071212
0.434807247233017
0.434088285408218
0.420224388478706
0.436836416404128
0.428155998926757
0.427055173235341
0.432738222690472
0.424685342316408
0.424363662292362
0.421237201860251
0.419429520995426
0.415818406055683
0.404800779515623
0.404645017046567
0.411051350676307
0.410596430714413
0.406520619167202
0.41740075387612
0.410778089884059
0.406152189308815
0.393680243483082
0.400968677268585
0.396483304876902
0.397390410020099
0.407670817800427
0.394727835107353
0.389168097850431
0.39365906388014
0.387713214164042
0.390161104199602
0.387853772407049
0.394119375066014
0.377896468403981
0.38053956076046
0.392637124678999
0.384975151753356
0.369036653359828
0.374326091110343
0.373569219244247
0.373285372726119
0.376423896095026
0.359206340337719
0.349788775318354
0.356412829243163
0.351269470444821
0.358278485701413
0.349868828131273
0.35260499925292
0.353319131550296
0.34818652011465
0.336091563370454
0.340721532941762
0.340227337035523
0.343544945912222
0.332423383802719
0.329622471096457
0.337834434286388
0.33094789668079
0.320833547020825
0.340416387227431
0.345726069186009
0.342804429588915
0.343581424040275
0.340447479003621
0.332961729413
0.341835484064225
0.34390461222218
0.35178911348512
0.350731407652404
0.363846305371291
0.352323700015787
0.354392690142425
0.344890959508691
0.35711373236028
0.373730302819301
0.364971587718049
0.358123685505813
0.375851526231761
0.369662277836838
0.383923810111241
0.394254110014643
0.381216583330457
0.385980598853248
0.41099130921138
0.408684986422345
0.411850875418532
0.408573654682144
0.428006108656796
0.437029526506627
0.443078956078408
0.442625866940428
0.465280951783625
0.484035423994327
0.480423175117182
0.503078298060775
0.524838780392004
0.509918814176791
0.532359009103812
0.557897781101124
0.540853887449448
0.570677891355189
0.579100350093323
0.566123693221886
0.591965978785357
0.580870195603682
0.585524605682999
0.57289265669851
0.557258087562891
0.57463546677375
0.591922459835668
0.597177069424132
0.559315888104624
0.550242426784364
0.574913922917658
0.576947504889781
0.597685209390626
0.590293377632926
0.583036338225685
0.576417939340351
0.592494816449193
0.568000511037733
0.547981370104422
0.577977618816648
0.601950017112422
0.58346870611464
0.585173750287478
0.57188521197117
0.57042656799646
0.564773917303976
0.553196308934578
0.526168540516577
0.548813146708324
0.535313229592055
0.511686972190866
0.522776999121643
0.526789229249441
0.520756613589252
0.54406824635836
0.570487916063941
0.550032606779246
0.52567905296368
0.505224271556908
0.532793150925918
0.5243278587287
0.515723374371255
0.527419727566652
0.544102877008863
0.558299087265825
0.51924801876139
0.502497760794918
0.549338174799504
0.550735384641165
0.517354958795048
0.522124227426464
0.522129376012348
0.524078883660121
0.520965482148707
0.556081434696865
0.54234315663156
0.575831579969514
0.575819614870752
0.52343576464082
0.543145820953382
0.563302436195403
0.586950618118042
0.589983061148147
0.539798747112324
0.544952996355104
0.589377150844502
0.565517349418687
0.551723251953584
0.613475268926951
0.588414003007814
0.55970137139253
0.572800775877065
0.626603231757987
0.577417758913654
0.636663929840301
0.745774538275105
0.593080535957989
0.597711459458662
0.66177549037663
0.707611591503138
0.777198357755256
0.772326257284579
0.767661757249045
0.652833215823635
0.645169056428436
0.727018078435693
0.667043492310681
0.796957491564329
0.795817869960819
0.739253827095978
0.721894202692144
0.6911126645681
0.699989991075699
0.636497617875966
0.663318230358703
0.767583349621034
0.68890370391901
0.694659875653559
0.650812238084529
0.710161360268767
0.677308758166867
0.832584133088744
0.795035088441566
0.629510788300345
0.636831532119907
0.814600592961879
0.706551807733081
0.604249801157755
0.582256766055103
0.725530479455304
0.678546259582183
0.558334348625387
0.745052045330371
0.828609169197928
0.689302033070547
0.661143712214662
0.625118192896831
0.859571642954264
0.981430824985819
0.736181734474496
0.553306413473845
0.863923269753964
0.512972712265854
0.440099728469586
0.228036200133567
0.511824036226201
0.795542056699557
1.167744661386
0.55889006073602
0.51894245758928
0.705560992637432
1.51926507293202
0.538993032395932
0.600476059560875
1.20275784209927
5
0.888265028054629
1.29727833456302
0.658425270074463
0.495069669620215
0.632969611176423
0.42163589262512
1.11934397565732
0.943496303217392
