3596
4000.36533379555
650.420452594757
1
2
2
0.0613112240059323
0.0614323887772473
0.0608662940719958
0.0598939576645082
0.0667407348365741
0.0624101557174521
0.0568258381208596
0.0542866354310606
0.0617193065573339
0.06496252420519
0.0574006431796265
0.0609455491845803
0.0645393698382884
0.0572751391187926
0.0583158466575941
0.0589458725875665
0.0622066660980251
0.0582327504470307
0.0541891591600434
0.0536183096882323
0.0632928429415815
0.063131104961404
0.0618420183499915
0.0609706135036601
0.056083955241801
0.0654636477400121
0.0621330990786083
0.0555303017175822
0.0659050090842352
0.0657802064428805
0.0571731195785286
0.0579678598093043
0.0599154579786382
0.0543045846032115
0.0653389453309099
0.0622118286462803
0.0633336060314375
0.0535231721452869
0.0594135593519558
0.0629933579193401
0.0644762552736
0.0536603523069309
0.0676028670785161
0.0649964791826502
0.0649098835012283
0.0641875200145424
0.0640513219274813
0.0544405394978834
0.0562092543558577
0.0614667204654247
0.06130259639653
0.0608794892920511
0.067247411618547
0.0709316865129353
0.073422621783899
0.0778906170613664
0.0730828858451954
0.0573678019135037
0.060887356213082
0.0603855996184055
0.0878836467958386
0.0793808445456626
0.0592830492446398
0.0560038515671866
0.0577141605258788
0.0600124716641449
0.0643022921788437
0.0657218726602644
0.0594079790815956
0.0553122636184733
0.0753156709293088
0.063433557023683
0.0803000474777835
0.0639762238940312
0.0752736617835808
0.0632605539695909
0.0597681021382419
0.056232068202085
0.0597603875386086
0.0646802903177577
0.0839381526512049
0.06041275527447
0.0617689770281087
0.0515500972852686
0.0717479269044436
0.0637908680706463
0.0615812848524972
0.0593291948352493
0.0992218291023254
0.0709501150587885
0.0643169122459174
0.0501305351570144
0.0662618213899311
0.049055746360296
0.06550962128134
0.0458489884485802
0.055328220145973
0.0506615941330388
0.061467030492774
0.0585402391801587
0.0809684117471315
0.0693522917766697
0.106260422862308
0.0742781374323479
0.110477225982167
0.0921351992026074
0.0547647592852655
0.114160799568797
0.088410752892444
0.0624953468600364
0.0632705259435031
0.0583653148441591
0.0678697716166856
0.0584459694144828
0.0680658923170013
0.0777825193145639
0.107722482206338
0.0649397308823518
0.0694143919659988
0.0510726578804906
0.0600336228456317
0.0715657957545885
0.123270641975008
0.0588547857689371
0.0877987884234316
0.0615020652175691
0.0615556996176171
0.0882294823719989
0.117103933867133
0.0595530374247175
0.0571601029952719
0.0449122899761662
0.063083965822794
0.0579919903817645
0.108558439054379
0.072183682672998
0.0620528928956052
0.0590353675142765
0.0854797817348899
0.130512366922039
0.0853032197959143
0.057241935603413
0.0576106020341689
0.0659270311439096
0.118779878474245
0.0691150727410848
0.0655368453559291
0.0771732315977063
0.084343082312578
0.0506142626394063
0.0581892372253774
0.0525716682858307
0.0820160119073104
0.0561739653227802
0.0493686216987037
0.0683563162831657
0.167871296570029
0.0750016093684912
0.136626202789789
0.0710623241225197
0.0617336053311009
0.0665587008255449
0.0539872239635278
0.0629375553076537
0.0624758997499196
0.0571379299157949
0.076629418970067
0.097233807813935
0.0618731527249645
0.0666715466231085
0.102626558165435
0.0743887445312633
0.0725372179163588
0.115783889323029
0.0935975715593781
0.0445736904244097
0.101761715362944
0.0760059532776162
0.0643450288275335
0.0673453203461985
0.101292350184478
0.0634677617307492
0.063158189056131
0.051049605055217
0.0728596002677806
0.0789957020755917
0.0779289464043401
0.0557538266954908
0.0675947614953505
0.047975896720185
0.0816972057271638
0.11345918951442
0.110166994141311
0.0624743814494762
0.0603372825885004
0.039410088128128
0.092551717477951
0.107939830849272
0.0594419181527902
0.0516740578385836
0.0548521104040052
0.0454945002686621
0.0623073548200435
0.0548370964089547
0.0505159701044227
0.0414965160684041
0.105337882970991
0.0884548799575514
0.055361704462536
0.0543000377737478
0.0631309679006543
0.068724049302769
0.105230850303537
0.106475852146975
0.0590418263194311
0.0654258790325782
0.0567427018203449
0.0839531253618919
0.0878506901112308
0.0558247878327693
0.0555607739790286
0.0532957076582744
0.0552258614030669
0.0493197501828445
0.0568069356775305
0.0541863785642536
0.0598598370688382
0.0534605271297277
0.0570112686366548
0.0581629147257703
0.0680678112127175
0.0612276984211745
0.0549603841607358
0.0530756676510461
0.0594312326185048
0.0610714048719553
0.0894905010772734
0.0525692800118568
0.0580288331883551
0.0500656562998531
0.0531981953588862
0.0498580476146496
0.0558842172283246
0.0544071785911853
0.0540922061916805
0.0659545456347126
0.0973098474813209
0.080110415557512
0.0535132077291082
0.0604808809862104
0.0707206834731134
0.0819007653483644
0.0483674632758973
0.0587091793903787
0.0550787568827292
0.0515346067160312
0.0512851180792976
0.0944053248210026
0.0715226437270323
0.060945056938867
0.069050573660901
0.0740582407528089
0.0557705919679104
0.0522079573653998
0.0607917544728433
0.120282700268302
0.0938783890776095
0.061158624261211
0.135469896831486
0.103198054803485
0.0744115643282555
0.0674453930108522
0.0377417227522716
0.143138848775433
0.122590621519206
0.0629424705740008
0.073886171640459
0.0713695212684693
0.0679672647077757
0.0647765215875763
0.0823860629829572
0.0664884110832843
0.126160977063912
0.143241175694533
0.120981102637628
0.0636544202748799
0.086508939339468
0.104358010173127
0.0625719356023518
0.0668874804360304
0.0542085952883644
0.06530805591476
0.0765148465895917
0.0880941820056107
0.0799400555450793
0.070726331054081
0.073471795886841
0.0946888448531252
0.0731993063389137
0.0560611060527872
0.0730951916492517
0.0702704851779974
0.0561403399895394
0.0539154916872776
0.0622195476655015
0.0606233472532738
0.0613450842263657
0.0559138931324815
0.117281476239418
0.0906480072506497
0.0729290602246318
0.0930442006244862
0.0659784344147322
0.0555884799568396
0.0616112320734944
0.0544857696617925
0.0538739693439165
0.0445829188057969
0.0514177582397334
0.0795600542681077
0.0755971513857482
0.045484307505199
0.0634236191609417
0.0465884046367401
0.060283791463718
0.0522561185563064
0.0567618376576993
0.0508216166502194
0.0555393219193036
0.0454403271892765
0.0779155794016544
0.0829057828334513
0.0612912669267356
0.0816737611202924
0.114190513817656
0.054097971890858
0.0686494577217835
0.0485300011342879
0.062837931189051
0.0560532906010789
0.05330153729956
0.0494748624245216
0.0670207677090515
0.078951499386376
0.0759304612497512
0.0520047805255374
0.0797974040690232
0.141845274860302
0.135181558774952
0.075115086388256
0.0621769862687527
0.0586516267783977
0.0857495294846602
0.113246848299027
0.0791875829303085
0.0923589860251378
0.0660542557745909
0.0556158729908915
0.059722516469824
0.0510300545585945
0.0592151883239922
0.0510712982041305
0.0633096273058821
0.0486567800889167
0.0657304062672495
0.0529914530486259
0.0612633412465051
0.0592739472004519
0.101221672652912
0.0725514053719281
0.0645059679949024
0.0589313739133094
0.0606739373216594
0.0693655232181647
0.127724638134741
0.0997366597347431
0.125653243017955
0.083727080095096
0.131189259269597
0.0826498838248293
0.0687587212401416
0.0559974006292627
0.0693051802196642
0.0633035107998201
0.0628188147083261
0.0594897438109859
0.0685830851072715
0.0667699964256985
0.0730455410319087
0.0574044875070747
0.0616576289514163
0.0630611110176634
0.0865613253066551
0.0775138647008645
0.0668293577847839
0.0710206713683529
0.0781636954347589
0.155241939497897
0.138595806994641
0.0891105996136538
0.0753874622136112
0.0724126509202363
0.0647072781402946
0.0725100226091441
0.0664254913910788
0.0704444379943141
0.0858088542056878
0.0970325409418838
0.112535279837065
0.0891751170075201
0.100868461964932
0.0703120536654249
0.0997865508638922
0.0891560145122769
0.0982683141491444
0.106547473206601
0.0880258038311782
0.07548832934796
0.104244111525651
0.103448670341614
0.0956725149807066
0.100482550429491
0.0898903537862526
0.0742177675160986
0.085692462911247
0.076882390203765
0.0931353634852161
0.0854495741418795
0.089481686331672
0.0833927191700733
0.102204791478159
0.0843580126509838
0.104606300355822
0.10519649439039
0.104657970408663
0.0864868794862791
0.101999563663568
0.0801658800805824
0.092298413989609
0.0893774569659433
0.111205856850038
0.13212531409633
0.117774708195553
0.120700833911525
0.103189820827925
0.0840983302670226
0.0985405421497282
0.0971428698295811
0.0965461761061523
0.0890672053580885
0.102220436656675
0.0973611278582125
0.105724693051647
0.101107114481146
0.10738929541102
0.0825892294221289
0.108807773058988
0.0984744222019412
0.102970126580835
0.107750300727838
0.113119424823877
0.0981574641237991
0.135101565287168
0.143054937409363
0.15108459296912
0.144194219834287
0.137207152004443
0.115094297588931
0.132565523831985
0.115308555178528
0.131078291067639
0.123244839654479
0.131061183210132
0.113774732031035
0.127470664269356
0.121756475899942
0.131947545062155
0.122073813342767
0.142955241166617
0.136324440681058
0.150636830646862
0.131300981076825
0.14259397401825
0.123754060249438
0.142752093649254
0.155184313395189
0.157914345531495
0.15371469260176
0.170682371115152
0.140568642907759
0.150894593876694
0.142457248188617
0.139131154237986
0.129717158342589
0.144340686496677
0.13880377783495
0.156585991321055
0.153791994872457
0.164083283410384
0.146751532695073
0.162906971734203
0.149346867187304
0.167009397057226
0.157368027263282
0.175343505495922
0.169271755020065
0.188971905084384
0.165217057390647
0.179657662927811
0.171836032516602
0.195861946028831
0.181975421110152
0.198932670835292
0.164737293325474
0.179753734784948
0.170835641386421
0.185187637066849
0.174671789592833
0.187669418978513
0.168815674219663
0.187065062509299
0.182527565981225
0.193987058414264
0.180107864246213
0.202589247152811
0.199437683768091
0.20871268097524
0.196066215157704
0.207353028102322
0.179714773129768
0.212132442482805
0.198933363521026
0.217781436025574
0.202604829403048
0.227482455558474
0.209134801121468
0.212941160013111
0.197271600224285
0.225417010748125
0.209761240249045
0.217983261231496
0.225876166522332
0.237991506497555
0.211718134575422
0.224420009113749
0.20863308354259
0.234241799229146
0.213525116798525
0.236687411017045
0.22041094028254
0.232148322522985
0.22784521290207
0.246514756528634
0.216945676352501
0.24506410660625
0.231792498382001
0.243686918308741
0.249765289676095
0.250637522961203
0.223810648532616
0.256924950317617
0.23223787748358
0.2318339208634
0.245931436497723
0.246664362859436
0.23540828490269
0.254510305894794
0.241622535006874
0.255805796648122
0.240239746397709
0.26707245736107
0.249308478788891
0.274761687225716
0.257089340244189
0.272483743343101
0.256499355935246
0.298518022962603
0.266303807653553
0.277451731330966
0.250300123182477
0.276975452505296
0.274586660930295
0.274100491843873
0.270654611427659
0.290697191791962
0.267878096468882
0.283240291666053
0.27335309902477
0.290925792510194
0.272958896532207
0.316409655049852
0.277709033322961
0.317761833429643
0.281551584434992
0.279547260448538
0.277593866625663
0.296552749331133
0.298312738373136
0.30210534305384
0.279721682646738
0.301868978112549
0.282638062168892
0.306106425999128
0.285392620687023
0.298019214178521
0.291941391922176
0.317769932369645
0.300696172522681
0.299181133492715
0.287757193628459
0.312612330209018
0.302740706786354
0.318095876269865
0.308498970580791
0.331359352430432
0.315556247033948
0.327932478131534
0.310959410950158
0.330373579989273
0.301813963055057
0.319582007951065
0.315754017701778
0.332246621052943
0.308479869998708
0.332823241555282
0.322982850523387
0.328161729831689
0.310826083583014
0.321331797166589
0.299953652203917
0.355341269315885
0.325072301536746
0.329486182933853
0.310436358310372
0.329866573064393
0.326316633099786
0.340559235244183
0.311840646952512
0.335787474386691
0.321135410885292
0.342611672680267
0.316346839171095
0.349838280036057
0.322283981689277
0.348746056365736
0.330862525212752
0.358704298901639
0.347702509244098
0.351182006379598
0.341874019022416
0.348332975289212
0.334116138859223
0.353723345039732
0.328962453244005
0.358971171277341
0.34438014754437
0.34013909766937
0.328953571743956
0.349740586484746
0.338954357760256
0.349664021284903
0.336189763286345
0.351651947594135
0.32757557790144
0.351575644250067
0.33832810368559
0.352423812480902
0.341253843645161
0.355152710578931
0.329166129671306
0.355616383617055
0.328419586743256
0.352339092291145
0.342741631877401
0.35509427816282
0.327674997133099
0.353011145656446
0.350732939242927
0.343263616120678
0.341515505694703
0.373944905014362
0.346162635500405
0.349687119530436
0.364447221562887
0.365050176175259
0.336955914664644
0.358706168265713
0.339844297653175
0.350187766249703
0.327790207496476
0.361469045684787
0.334917556706356
0.356631317810367
0.342360395732487
0.348520150991415
0.337287079284636
0.342527559279917
0.337499285326168
0.356297257917354
0.328289096241655
0.35321810409244
0.336264013467439
0.356906763151132
0.328792396287608
0.354911333579819
0.339014477275072
0.364633588724139
0.338255281637104
0.362533007525082
0.334778055679257
0.362522625525697
0.340920693984099
0.345015412784948
0.330245978405609
0.346037243176732
0.328120095020823
0.349805240922256
0.33587279496255
0.358671298840266
0.340947735282378
0.347168939067619
0.332000603731136
0.356263055170454
0.328238249214593
0.345725796275047
0.330080511220787
0.350107651114757
0.330390619487447
0.341128752797186
0.332692162110164
0.345712899136198
0.328656349380046
0.345916933447592
0.326237777639382
0.326388664014625
0.32380695087872
0.340701087466238
0.316778915126367
0.32800430050079
0.314600131140286
0.335859457700802
0.318021322495957
0.334495403458947
0.312507852522942
0.329817220086472
0.320862346971857
0.318410260538839
0.319948309496624
0.329878270462754
0.307954250032403
0.322040292593901
0.310360506300494
0.328643272137261
0.307848621259168
0.319496888279136
0.316659876912859
0.323732384340172
0.315474974092453
0.311022388543722
0.294687841490168
0.316947827847627
0.30695693775743
0.313385108270185
0.302703568415978
0.316815239041664
0.294228737763199
0.310808525843986
0.297251859985563
0.31204641931862
0.302674963919655
0.314404571127075
0.292101335440972
0.312640260693911
0.300756059727104
0.299147156366758
0.296264145424131
0.307238633277444
0.291309635651213
0.290754107153533
0.282221360090579
0.307338650824951
0.28832192184991
0.302274664123708
0.284301179849918
0.288130485942432
0.280281248167028
0.290177856639739
0.280482090673926
0.291338797775401
0.279006894891921
0.283867455532485
0.270782813069035
0.295568866458271
0.278420936418912
0.286437319391733
0.269080181496786
0.280728426485582
0.270261077962248
0.28187319780768
0.259413509286379
0.276235165471779
0.257857513050298
0.275423604730486
0.270064723647801
0.270375595748917
0.258450491606097
0.276850239174672
0.260559243405296
0.269052463201577
0.263652481116206
0.269646250548707
0.25345326125225
0.261529552385257
0.244883511050098
0.266122689113842
0.254713472677533
0.259040441654825
0.254387682240567
0.259593833720693
0.240492591881149
0.256279115365172
0.235665156886601
0.249601463201707
0.239320160522625
0.246207084087012
0.244125709550322
0.250070492192604
0.233804932703774
0.244534618931832
0.228261617177695
0.236656894093819
0.232806280190771
0.236383075679358
0.226638724216853
0.237978486981854
0.220121408670389
0.226989669477186
0.223717337183905
0.229982962034299
0.225688868745354
0.228599396638332
0.221219988337686
0.229180961815871
0.219113504455855
0.2217586360122
0.214316078292939
0.226985785992469
0.208898123585785
0.224318597297569
0.208603133793263
0.222027795073466
0.208214985420083
0.216816148178543
0.201452260449818
0.217327204804927
0.204679731078811
0.220227736262304
0.202360124420606
0.206444330551063
0.20382724718734
0.210047697543207
0.196218642538444
0.210568944941862
0.194609337959644
0.201531947260545
0.189540410144884
0.193239436612031
0.184597681570455
0.199456341516101
0.181428255649792
0.199186464520259
0.176202470502326
0.192703328402334
0.18161337116806
0.190171640257257
0.17816487492409
0.188502143933234
0.176510800848032
0.181602402833996
0.174129270745683
0.183965780872767
0.172912266796905
0.182495144170113
0.169110566110995
0.176343522874799
0.167443504144449
0.171851118086455
0.16498783049289
0.173498264400271
0.168960589815942
0.168010640825211
0.162263295692266
0.165862505460491
0.16097489308233
0.170661728205469
0.150468490776871
0.166025861563913
0.157278008968566
0.16372361109791
0.150064675576157
0.167878555712373
0.156476653392884
0.164721257050485
0.148078011361649
0.159496871568196
0.149740449129249
0.146840516086487
0.147915151187344
0.152289680945996
0.141596620449682
0.152141415094056
0.140233416923851
0.150756408169057
0.143719862402456
0.145999784201796
0.137102028080612
0.14015767430891
0.133368945360824
0.143138948483935
0.132551716614564
0.139241503172898
0.133039484424143
0.1370650185463
0.126882829052393
0.140773980272012
0.127396051340525
0.13030372058845
0.125225486080371
0.137681222856662
0.123470711227484
0.13167953682224
0.119282048091845
0.13511147933757
0.118833480711891
0.124191743689815
0.11546337285421
0.120515830575022
0.114722950385299
0.127485248361168
0.118088688223515
0.119192312431468
0.116876598178351
0.118931339746929
0.107629547417327
0.119789027237386
0.113463144268703
0.116555134965583
0.105586407339565
0.121605409222394
0.104262517630018
0.115161250207792
0.10612779531222
0.123328090461114
0.10391981941133
0.11469763415683
0.107502122079621
0.11917495918577
0.102895335036695
0.107119790451821
0.102477181055139
0.113053068240235
0.103163895657395
0.112721123416226
0.102775562797545
0.10545993860545
0.0954791601698469
0.109744970633018
0.095316522154785
0.104469799335279
0.0930426536128918
0.106297957155773
0.0933125159053378
0.103373283177957
0.0925208969783966
0.10048299956837
0.0862698654339763
0.103984664761617
0.0901308523578869
0.100973729940909
0.0901194111256348
0.0993354896491946
0.0904767591793806
0.0953697887445465
0.0874339149704914
0.0915168302855326
0.0827487842908317
0.0955098850322153
0.0855867224826324
0.0900543519023897
0.0830002148496853
0.0976650408879401
0.0822539863180753
0.0900976677754289
0.0840946833745538
0.0867409840739483
0.07565296076773
0.0864809149415578
0.0835955772916716
0.0827780543796569
0.0787358527665175
0.0867479041275083
0.0767825560091537
0.0864113599362232
0.076684714457096
0.0855952889839745
0.0798664665824405
0.0769991887228507
0.0744634533685491
0.0895946420660523
0.0751042355030197
0.0818885772911365
0.0745347221383175
0.081668689866181
0.073513564648765
0.0841278489270036
0.0757618927677538
0.0742171631165951
0.0726378069904234
0.0791873800932355
0.0737175571630532
0.0763720085671633
0.072077595663553
0.0803074095159564
0.0680140884112591
0.073610407892639
0.0697576319526241
0.076421394424905
0.0659978575950367
0.0735352147702158
0.0664531518787845
0.0749185987161316
0.0674128072195932
0.0740166098575689
0.0647403030804711
0.07303336692131
0.0651189550631884
0.0712410626832275
0.0616349270873426
0.0756398802834914
0.0684375032667155
0.0733575377398197
0.0669504683749934
0.0738298477349525
0.0665233726139749
0.0696722735268796
0.0633509340101813
0.0695369240998565
0.0597618075748657
0.0691921351883213
0.0573849493099643
0.0672836842390696
0.062173772639713
0.0655862723745008
0.0624278234902395
0.0663303922776607
0.0576616809343664
0.066702712938042
0.0598810321812224
0.0639566444132181
0.0660730562495514
0.0658066082087202
0.063699341648112
0.0689270930165947
0.0608134959004502
0.0619081788773717
0.0588366892891644
0.0689141551673778
0.0697952108691075
0.0604202058234516
0.0563601410016037
0.066276264273427
0.0624091881593882
0.0650964737555871
0.0621274202623692
0.0629421574840932
0.051431423768424
0.0607273441364927
0.0625199690389676
0.0643037360472345
0.0575066012772655
0.0698957248160499
0.0643211113809663
0.0671843906473623
0.0619888793942419
0.0666413868646813
0.0620574071515823
0.0685644153965005
0.0622953302836954
0.0667817397549207
0.0607880603760493
0.0689554278590055
0.0623509619115526
0.0700566012325239
0.0680001235712989
0.069152020718427
0.0670462574615586
0.0696153371691206
0.061179251458535
0.0710107446801818
0.0653049984874772
0.0719321541929603
0.0683865219753737
0.0747806799607741
0.0665488312287201
0.0742497852386712
0.0705354846821251
0.0719968591546733
0.0665011139185629
0.0748494264014031
0.0670081278934638
0.0765038606132921
0.0713973881058627
0.0747509427799893
0.0721336882466756
0.0789894605694092
0.0719326603007098
0.0802082686701274
0.0767505636627425
0.0768260791169742
0.0707887901918174
0.0841730837734832
0.077999528477286
0.0850448913401615
0.0737875497289316
0.0865477444152415
0.0793716260410279
0.090470144496497
0.0754867673907654
0.0864459317365704
0.0789728483890472
0.0905569995897106
0.087581069644843
0.0933714538007307
0.0847576309554897
0.089629149047509
0.0932523662645426
0.0959871582810571
0.0896677786277835
0.0942183966232929
0.0942944788802502
0.0971662459688428
0.0925747824873385
0.0984447361869809
0.0959855316174358
0.102177142257064
0.0885331534470869
0.100142074168619
0.0997950706188954
0.103756914939181
0.0953271327805607
0.101378119263803
0.0932509273208841
0.103307900180736
0.0926738966763814
0.10012836336194
0.097139818348221
0.0951681675231157
0.0938486306840869
0.0994672253747785
0.093866707082911
0.0950433638825691
0.095557494128685
0.0975385054323358
0.0864499868671495
0.0914034207118111
0.0865874588602056
0.0937887554697991
0.0902057903658304
0.0953892315697964
0.0851367994582746
0.0939890471095606
0.0884027261062057
0.0959591350260145
0.0920957010871821
0.0932485134478026
0.0874487334562785
0.0950955134515143
0.0865378366270844
0.090763291882276
0.0847397672768904
0.0911007613614382
0.0903683902238732
0.0926764235498033
0.0873560311506072
0.0877636896193124
0.0857791940743438
0.0958481060378628
0.0893879739686957
0.0903372187400559
0.085902695087451
0.0883358163277547
0.0806630642842639
0.0948023853947112
0.0879084235093404
0.0898678771077247
0.0873767697559647
0.0924362892702103
0.0848903993881679
0.0931516421577012
0.0859141330878022
0.0932634878056645
0.0852261452285918
0.0858541492070337
0.0829256146809288
0.0857915841405586
0.0856316556410147
0.090404661827692
0.0799611651993505
0.0834549299640052
0.0771540380405103
0.0839725796116461
0.0768478495057954
0.0799814645269071
0.0760103743782965
0.0822496769941536
0.0738638481058332
0.0761789618204985
0.071721512541495
0.0782171628256298
0.0750072208553432
0.0789288876370987
0.0713082528836196
0.0735027489479042
0.0680502793876374
0.0733776821868428
0.0676203866882073
0.0720079160325751
0.066206317696759
0.0664762598486209
0.06403089349985
0.0674914837609546
0.0658539507309804
0.066656190758799
0.0657726861879627
0.0652445899281468
0.0574136952842649
0.0610255252499896
0.0628623181915353
0.0627387844740653
0.0563125176311958
0.0603407823204382
0.0644905753978071
0.0672020213584419
0.0584450704699273
0.0613804827315167
0.0544695907582651
0.0588421588109646
0.0559920797813895
0.0621508683389322
0.0568399126527309
0.0612408524344768
0.0538669436224789
0.0612336633199497
0.0515726973037999
0.0578239327319924
0.0602325024085458
0.0627503300915984
0.0565313214873745
0.0567916319085958
0.0584057150833198
0.0583160981341741
0.0572558731220661
0.055179774811252
0.0510098554431212
0.0515874600008058
0.0541824606380997
0.0549858870886298
0.0520663845435975
0.0575975502398998
0.0513400497004768
0.0508425181414674
0.0521653760696263
0.0518540220046554
0.0496133142215477
0.054805739203787
0.0516976581294603
0.0512910969836023
0.048206487376058
0.0538234616472541
0.0503375217151488
0.0533026066571499
0.0473808001752564
0.0544971720942183
0.0496001497886914
0.0491555369150911
0.0494901725982427
0.0525924608056943
0.041577781277063
0.0497996251046942
0.0456468068027202
0.048633221567303
0.0432630233490113
0.049978584359961
0.0464843603774785
0.0492563119221294
0.0426600070036084
0.0468326104683279
0.0460543567054974
0.0487031873212443
0.0451261999120299
0.0497112356542336
0.0471993107102604
0.0446517154169214
0.0427435173901872
0.04438739758963
0.0432310569980385
0.0506492612458128
0.046518724601214
0.0458984143208323
0.0438877244237703
0.0506684923421156
0.0463816783863822
0.0499719407153346
0.0439774364058437
0.0466021786957943
0.0481083536625232
0.0492093570707706
0.0441127625432966
0.0470294569245898
0.0431203303412347
0.0484923351322995
0.0449021361267198
0.0479095633442457
0.0449100877856286
0.0488688394947043
0.0427939096200359
0.0440424875894601
0.0437075830475419
0.0452400245640791
0.0423648738993748
0.0468810523950471
0.0424615889354293
0.0506452779180947
0.0408976508730997
0.0475942296578355
0.0431972450549348
0.0416683827264036
0.0414920908473597
0.0461198128898619
0.0406589964443876
0.0474929752078202
0.0427542125360172
0.0465235933606714
0.0414137990722167
0.0440140539175556
0.0406821573789759
0.0453154198802902
0.0385175060377294
0.049515005177246
0.0391366923730692
0.0434313413885571
0.0379200241875915
0.0436054401356537
0.0365796410007031
0.0429267584621061
0.0448657306570211
0.0425360110713497
0.0380195220324911
0.0418228739455464
0.0419372950440291
0.0460795639867908
0.0375032008675967
0.0442109602872709
0.040763924323677
0.0443926407042721
0.0387149495761734
0.0434568466606539
0.0400411130764459
0.0433722846233634
0.0399797007816167
0.0424186688776223
0.0407984461435448
0.043664596699494
0.0411019757629377
0.0419707779823674
0.0399839039273856
0.0475008176133454
0.0399741696334072
0.0423579395851389
0.0401122353288286
0.0445034827002899
0.0434407108769115
0.0453669249194655
0.0427866275009929
0.0431044478274526
0.0387493893673316
0.0420692043929253
0.0404969673148095
0.0439291942792257
0.0423234523686453
0.0435810684846577
0.0384923941517668
0.0440735931760519
0.0377862430841198
0.0419269931460996
0.0372742137423005
0.0404461698943971
0.0403877491995097
0.04199285496044
0.0347461477945509
0.0403491514207165
0.0340274591663355
0.0411810958779347
0.0379769776099193
0.0402517339171119
0.0352454613770557
0.0362612745317867
0.0377028960647399
0.0384866626286732
0.033773085161628
0.0405053537468742
0.0383831545684517
0.0367271031550213
0.0332157856174078
0.0397602969253867
0.0355247790593745
0.0400292162360219
0.0346870671967117
0.0382433365124813
0.0345306023686589
0.0418606752892713
0.0338750216452229
0.0351663101937177
0.0363411791658487
0.0377702850173202
0.0381443758309291
0.0388502100277437
0.0337683519690832
0.0357557658734054
0.0345389316816239
0.040139140797165
0.0373371131065856
0.0386967904757174
0.033268907052932
0.0392456455407979
0.0377983107320174
0.0380865610500038
0.0346858786728007
0.0403220491609381
0.0384200582831707
0.0405625779494944
0.0341314072949199
0.03850306810019
0.0363148787615799
0.0374600064840141
0.0354676816902789
0.0396395719583035
0.0341801799907339
0.0337862405638543
0.0344769689596771
0.0358444278913058
0.0350125065737823
0.0340300896269094
0.0306946337940034
0.0361750906786624
0.0310627644986195
0.0352825193790316
0.0340083571431323
0.0352324663325399
0.0325232012600172
0.0376834876681728
0.0353068068622647
0.0347330251109469
0.0313041538582293
0.0333061260773842
0.031282941934686
0.0338785558683678
0.0310744020440056
0.0332451346661364
0.0326580738937731
0.0321751360238735
0.0295513210296108
0.0292416882544185
0.0320785182790026
0.0323156222981619
0.027777822553892
0.0324473305135929
0.0308449774381249
0.0327752776953678
0.0313971110357457
0.0325872082249028
0.0318173732783257
0.0308199432634921
0.0286732590414506
0.0305878854888223
0.0275628594588246
0.0278994962823111
0.0313503449155081
0.0343584600088468
0.0303359322202488
0.0334825374817243
0.0330837306555602
0.0341327923705648
0.0304887064668686
0.0355336413591618
0.0326685508662244
0.033979852202579
0.0312174196275382
0.0332414231322196
0.029632646138262
0.0313811108034345
0.0297493414491577
0.031853412999711
0.0284469142028155
0.0320085957397398
0.032210427279802
0.0331886091212386
0.0318093050100598
0.0317087668878186
0.0290597370955056
0.0326946369141679
0.0315259599983763
0.0323397244600716
0.0314442672293498
0.0320036742802538
0.0307518349267084
0.0323717367135071
0.0283275675719711
0.0294568418186813
0.0302604594174205
0.0286331264801433
0.0302230352585744
0.0295122771356116
0.0279190356170719
0.030448363632424
0.0290709875953269
0.0273715628026622
0.0268708203724535
0.0266059668238429
0.0268300411523255
0.0321445429547306
0.0250762669592702
0.0276758247936919
0.0273316352152923
0.0315701911751079
0.0285409685637803
0.0296934081369385
0.0282891889062116
0.0280128232324435
0.0260212547514739
0.0279290434850666
0.0274072023647089
0.0296720971867481
0.0280589052245373
0.0271427384057549
0.0285815914892825
0.0299137617763417
0.0272411313757365
0.0293694786773658
0.0269385008687911
0.0302182298044895
0.0280406980986186
0.0305308267011101
0.0309922624016959
0.0295134605835039
0.0278628428899111
0.0291640676489216
0.0260914083284865
0.0302809596623329
0.029479388971761
0.0308093751973831
0.028761514266838
0.0298800571319603
0.0277061597428728
0.0328443977159062
0.0294064271885595
0.0309453352342008
0.0289383991667083
0.0288421102263724
0.0286274224918155
0.0297407651542604
0.0269080531136581
0.0312568150969308
0.0282658714127508
0.026875355979073
0.0284152799501223
0.0283449975602259
0.0247675990557709
0.0281168054037865
0.0268115623822745
0.029755680862201
0.0273239510283835
0.0271342346426395
0.0243838265439238
0.0284092808257923
0.0274996471694965
0.0270309906403213
0.02533195750518
0.0248108130252534
0.0251406215325631
0.0266999364959261
0.0270410783324119
0.0261673013632342
0.0254241580862747
0.0292153312827226
0.0267128393907626
0.0245308481070421
0.023277812117726
0.0284206584648318
0.0260630566826766
0.0251161972520235
0.025906150688124
0.0266404957404215
0.0252552417603713
0.0257879376937321
0.0247189616964017
0.0257519479918791
0.0258403833648168
0.0262244923972719
0.0254600223880524
0.0265579655424707
0.0254668607664174
0.0271147018973917
0.0266462872763112
0.0263110978978406
0.0262638053752863
0.0297652630930807
0.0258087345929451
0.0256992459804945
0.0264109823232295
0.029038149181173
0.0276572098645205
0.0261042830043173
0.0280989149979492
0.0270701375847084
0.0272558049886356
0.0265864612811942
0.0266105053210002
0.025651359657395
0.0252954049312252
0.0289412051243523
0.0269742611247304
0.0277965430737317
0.0267090802590343
0.0261531219083866
0.0276663123097061
0.026634465751237
0.0250453902210871
0.0268248941154846
0.0259989224144083
0.0259080389272152
0.0237494344229403
0.0243170150546858
0.0253085841304929
0.0257673509313003
0.0237535071187801
0.0224593099112118
0.0256685780695287
0.0247904359619148
0.0247173572586181
0.0262932063957457
0.0262169773886938
0.022311564689989
0.0229614624513496
0.0253470324240208
0.0232477793496328
0.0225235152286482
0.0217899033003883
0.0225886483055059
0.0222354341765262
0.0234355617654191
0.0256742193029843
0.0250678145695926
0.0231030736016521
0.0231740615109702
0.0225142560923767
0.02375204058173
0.0252608555718688
0.025714811010312
0.0225315958003114
0.024501830333507
0.0252931812867143
0.0242466161416241
0.0240458711317017
0.0259930194914324
0.027150228455441
0.0231756518875539
0.0225589232808761
0.0241881760897704
0.025695517023839
0.0244531373788029
0.0263810040153167
0.0267800676583165
0.0246722549112266
0.0251951054255842
0.0235776126385571
0.0220838243145284
0.0263829623083399
0.024400601775793
0.0230620636343892
0.0245240528055697
0.0242293728633691
0.0226824412834308
0.0228956953911045
0.0248964320984362
0.0231829913985013
0.0212895529344154
0.0222046796740916
0.024223893680302
0.0218945424500216
0.0210791013232948
0.0209347630415771
0.0217185589194698
0.0215778776722205
0.0212798676330798
0.022208748582526
0.0226894909622934
0.0201661390719945
0.0202137839277515
0.0210687453697031
0.0199976032242548
0.0218173494647318
0.0220325470109199
0.0202173170006661
0.0190954000592663
0.0228783394065986
0.0217346633053841
0.0200522705863367
0.0193421424503366
0.0218007594226114
0.022008513180613
0.0201049402366408
0.0203934136822406
0.0218467290272782
0.022062669899083
0.0236844134704229
0.0221684898872714
0.0209377614294193
0.0202355905132799
0.0223714731480909
0.0200086599312771
0.0205661612271913
0.0210998367061982
0.023093581835153
0.0217429481511769
0.0230067994383808
0.0227003767984183
0.0256950796721878
0.0231536847168479
0.0227341357886156
0.0185506450033359
0.020688087808252
0.0180312788160669
0.0219917224110161
0.0212268796353252
0.0177880509765806
0.0158792001026814
0.0117112934331168
0.00752290255042949
0.0108848556663825
0.0142202860306844
0.0216786407447514
0.0189196905698347
0.0143600014330014
0.00309615710518679
0.0106226404443323
0.0144998053728109
0.00716472164934358
0.00759987554868492
0.0160113141319554
0.00308985396643118
0.00839139122438977
0.00510013415840673
0.00905946615139336
0.00810118751217126
0.0124624180906593
0.00807220422224089
0.0103162735372717
0.0126738201036936
0.0249205046004189
0.017489426168624
0.0234254039371141
0.011800557990198
0.0188459898247938
0.00996269573319955
0.0194170726352599
0.00818374064191882
0.0181030796278001
0.00872882011595629
0.0156773907572498
0.0078927531145246
0.0117173546140824
0.005030366216127
0.0128036682364618
0.00508555515516506
0.014407847759592
0.0024904823847695
0.0116675431596007
0.0116773118139549
0.0200710405129835
0.0132992475575506
0.0128159539272523
0.00601189350146416
0.0077046510930757
0.0179379714519167
0.0189171273439859
0.0179369915992823
0.00388795326739284
0.0247544134400769
0.013635841170944
0.0290406242108366
-0.000807262488522322
0.035253685388132
0.00967817721560261
0.039766329444477
-0.000564640993534823
0.041556103565733
0.00438185569520745
0.0339642815017948
0.0065381898716004
0.0365178990661062
0.0129840073417494
0.0284241575196125
0.0156831243492696
0.0234511495261281
0.0239874313052343
0.0209789742129323
0.0233193983760295
0.0187718871083635
0.0214515898163904
0.0219892946154233
0.0198883468357483
0.0234502904990483
0.017744783737928
0.0241172646950129
0.014359655978525
0.0205145796215196
0.018243205122432
0.020505049795818
0.0189595120602471
0.0175406532559223
0.0165670350575282
0.0206192253311296
0.0162717304659884
0.0187449309085392
0.0163587292784948
0.020336163008447
0.016270029493012
0.0213614278633465
0.0178534870796012
0.0195034069807189
0.0178872516393503
0.0186452869887227
0.0158595833462557
0.0186804423984402
0.0175990109204541
0.0196735864684171
0.017912856924871
0.020092215448195
0.0154008047637145
0.0178048791576473
0.016144664508753
0.0175749886718697
0.017356773525082
0.0192549883143443
0.0180921177528832
0.0218694851987286
0.0172550583732903
0.0199739130241795
0.018635513256829
0.0177714035374855
0.015761994179476
0.0190579040540276
0.018783951992476
0.0196959305759603
0.0170586365506961
0.0185351555962694
0.0177651179707199
0.0181535562021956
0.0174091342912824
0.0206199467392062
0.0158338917398175
0.0209370791920333
0.0207008333664086
0.0185964304607567
0.0171221169718911
0.019778464532789
0.0164359743335071
0.0167318745695409
0.0183968947674767
0.0195144745781949
0.0174432453385436
0.0189797985862746
0.0174533352106
0.0174432229378546
0.0152341915813635
0.0160804613374382
0.0186916220850497
0.0173664590473966
0.017184723057139
0.0191318542589796
0.0146992756338369
0.017440574326466
0.0169997952284916
0.0175431711972274
0.016803845842664
0.0162825491002037
0.0166361462558439
0.0181159799947529
0.0162306170455067
0.0170469796933009
0.0157049989740718
0.018208252069694
0.0166390100934362
0.0160147496915865
0.0146771163909463
0.0156942025647356
0.0177976836583574
0.019415950334561
0.0162440131370739
0.0182135457715484
0.016677241026215
0.0172095427552331
0.0180805354754559
0.0189534573921724
0.0167907275509847
0.0175580325839315
0.018894083112452
0.0184811489084782
0.0161705910914769
0.0190000599963928
0.0176391070662809
0.0181695857682599
0.0181424884174177
0.0182237816260225
0.018510374596125
0.0197541251269789
0.0193625717961077
0.0215025008469982
0.0166397466557925
0.016717230038392
0.0185533961748167
0.0177104068473934
0.0153189776867358
0.0184936375869109
0.018244607904946
0.0167659856132568
0.0176626122497552
0.0174456549673835
0.0159890261129079
0.018378969301713
0.0180870630787094
0.0187143012412308
0.0172323364864504
0.0176475274833858
0.0174977398949391
0.0166474152640896
0.0151168966353675
0.0162017300998662
0.0161806673441828
0.0153686933944458
0.0151564308538914
0.0180034908676309
0.018358687190523
0.0161690147811327
0.0156960753148699
0.018244163891468
0.0149148349514377
0.0168402220685288
0.0172568942262307
0.0159309799676946
0.0172326663324448
0.0159063759948512
0.0160961967244029
0.0154332183313416
0.0150051269621575
0.017089896525328
0.0152948627064366
0.0155710779888222
0.015856279879408
0.0175786502572023
0.0167907809204372
0.017452020758537
0.0175167463212184
0.0176386412228516
0.0171381767705232
0.0173108641546837
0.0184787292795506
0.0168898358433989
0.0157052900316828
0.0170305870567817
0.0167540244487238
0.0185861783151499
0.0175919862425412
0.0170409395344205
0.0176326876112542
0.0180562814584209
0.0189502749409163
0.0180829438510197
0.0160531089730929
0.0169177378630943
0.019031796466283
0.0182036227658133
0.0169624081931015
0.0172187766352531
0.0180506770581941
0.0150096927247228
0.0166952986531089
0.0171199441156617
0.0164752028684827
0.016708722608392
0.017896135011313
0.0151591201619663
0.0154160181267358
0.0174934060139006
0.0184752663625913
0.0156197238489267
0.0152406728075656
0.0157425928893379
0.0168731149693288
0.0152507990486502
0.0142904275003006
0.0174536066250939
0.0164017400567138
0.015844155159094
0.015155960692533
0.0151791650691314
0.0147148451284299
0.0153652966782781
0.0154214924355045
0.0152918391140649
0.0165857941905597
0.0156752743890194
0.0164152352022978
0.0149842858201724
0.0153257503243158
0.0148153474984928
0.0151382894239046
0.0170762018674154
0.0164014576951963
0.0171724829851608
0.0171150725505693
0.013916419045323
0.0158811801778509
0.0181884731168006
0.0184101639729247
0.0156670860616334
0.0147490487783621
0.0147051130257223
0.0150757324781585
0.0154622439949418
0.0169599198960387
0.0158368421553405
0.0149574392842347
0.015775536114059
0.0158108296430934
0.0168564326457108
0.0176554939053292
0.0153230964858755
0.0162315694725392
0.01675469043149
0.0162809632340405
0.0160821134314753
0.0160311706847789
0.0150185050867578
0.0153983235629042
0.0165573289151726
0.0163803407340135
0.0142774321110748
0.0148180956822156
0.0151146348856663
0.0151560891949308
0.0149945020618591
0.0142109687183216
0.0137265740009445
0.0161488655325938
0.0131690724535184
0.0142572904759941
0.0152560637125713
0.0145226434885575
0.0141558530913378
0.0147455295839387
0.0152279094860147
0.0133088907029101
0.0149177088755762
0.0178455840216786
0.0172332805305657
0.016145699524861
0.0151857356572437
0.016049043142452
0.0167539373157189
0.0170196743886789
0.0133583306311734
0.012272572135748
0.0141926234338938
0.0162861118732384
0.0164917908177366
0.0161926136498151
0.0139900566458377
0.0142634281716386
0.0146093998379467
0.0162769576016264
0.0136857159592397
0.013708783077449
0.0138128527794859
0.0149730885337671
0.0140044552136666
0.0142525903925578
0.0142794569954466
0.0182432800171968
0.0154800674560392
0.0171128405325024
0.0173192960433246
0.0166698903051559
0.014449818234386
0.014389710033318
0.0131537832019091
0.0160742822138405
0.0160803210298181
0.0145915537219618
0.013759043358026
0.0149347129089008
0.0155504573232195
0.0145672048228515
0.014576122159111
0.015757730359036
0.0143161584396377
0.0173645800405139
0.0153574550461451
0.0149647002228382
0.013690485695547
0.0149987186524777
0.0146355102172177
0.0153306917893005
0.0120579695116081
0.0157274145454132
0.0166569216452138
0.0155675784260809
0.0198617884899698
0.0172210520112489
0.0146427231953433
0.0144205122587222
0.0132244656642816
0.0157362803513669
0.0149192668454879
0.0120676327930725
0.0136860444583132
0.0135112947215057
0.0133950573576721
0.0146654224212951
0.0153458969300662
0.0134345024113175
0.0137445124233077
0.0135556080552071
0.0127927121739172
0.0122820417966214
0.0109031563818365
0.0131720589069237
0.0133510574863451
0.0121956008928272
0.0141062880245765
0.0131060308764981
0.014385278899513
0.0114775319443685
0.0246482322793064
0.0262618199700472
0.0156376367727
0.0155604884003417
0.019646705910096
0.0178417489738404
0.015421155926729
0.016445458589194
0.0108249343538543
0.0133138703239974
0.0147032914133819
0.0163479693640727
0.0115841455720318
0.0123587838866744
0.0139695843235003
0.0139942093081798
0.0145859687708013
0.0144447039702104
0.0142229917464685
0.0132721871898994
0.0137474519926741
0.0143160160687793
0.0121584177199479
0.0146091640989264
0.0132727135383755
0.0129042303300981
0.0141277264795474
0.023647858294586
0.0205392675410989
0.0183626506276858
0.0146296284163236
0.0140921616223866
0.011586509853351
0.0168903533159838
0.0134504649131121
0.0121079753138144
0.0116026736049543
0.0157752532180566
0.0129203138683482
0.0145772671064654
0.0133017671677507
0.0141013822438125
0.0127131883022724
0.0146918557745798
0.0140785616443063
0.0146595978058011
0.0115874307278117
0.0142318048891236
0.0114788339710444
0.0161010316813698
0.0130382025170252
0.0177643313883584
0.0105905603368434
0.0261591356571605
0.0306575019090963
0.0193151259714642
0.0131450116486357
0.0131022563623728
0.0120606074014096
0.0131944382116424
0.0128977245386495
0.0125927584997905
0.0144482552299905
0.0125753094445814
0.0138521528078918
0.0123963116977689
0.0134785917323636
0.0136962927363587
0.0123378886447586
0.014574708156956
0.0129684226683662
0.0135130512405877
0.0138564874298002
0.011106150509956
0.0203742783534095
0.0327031477567779
0.0164243427926155
0.0177702602397638
0.012444681663549
0.0133122963980397
0.0406874218797353
0.0190815626303258
0.0181701140524626
0.013691874753564
0.0138740589841393
0.00972215769988947
0.017185852171738
0.00971050019339533
0.0177529231488033
0.0186015204185675
0.0180854425776115
0.0195201537718301
0.0124242064714964
0.0131765959981451
0.0138871049025058
0.0128707452830759
0.0106040983153154
0.0117111403238879
0.0118490784236036
0.0123510408955843
0.0128724032126248
0.0107118907493766
0.0121658230260239
0.00918928373614147
0.0200295858413083
0.0178775762185479
0.0139145671866223
0.0104577994373504
0.0180191669104418
0.00866825040262861
0.0242305084694849
0.0320039821570463
0.0139348518380523
0.0134919744817002
0.0121448513378652
0.0150339322002504
0.0124409125791213
0.014427751884786
0.0114239046829307
0.0137847715210583
0.0118435596701676
0.0159695177313504
0.0126933643922482
0.0133930155396124
0.0101347388461372
0.0152195841910867
0.00967621029634454
0.0120844011233372
0.0129037685170537
0.0141002008377707
0.0125482669009971
0.0159908645569343
0.0376483038351264
0.0356661674537916
0.0331374983198252
0.0254440537698219
0.0201350898896564
0.0126959277268215
0.0147275192360392
0.0122428861783562
0.0127019075385141
0.0133509468578658
0.0132060832337288
0.013503713475997
0.0175850126943419
0.013907933539492
0.0123781806821157
0.0119034858359714
0.0121273959333288
0.0139173750834358
0.0126818429364068
0.0125567913187661
0.0116351489859661
0.0133016340503189
0.00628915373154443
0.0264728965362786
0.0181935896011688
0.0189390276850103
0.00517573301496188
0.0646766573375927
0.0298745302507439
0.0278337601462475
0.0159567577805218
0.0128900147119661
0.0116062298724357
0.0101289250510785
0.0142561766029578
0.0211174284280844
0.0118715787787635
0.0139724494911505
0.0118854251206436
0.0169797606166883
0.0133248843103597
0.00891775128645876
0.033800360373331
0.0528042456895446
0.0221064736613358
0.0228274811055936
0.00365101211301078
0.0341172403597948
0.0429813741882834
0.0160204666324433
0.0203348846925468
0.013610310134099
0.0138151030192056
0.0102576247592596
0.0132245857820066
0.0112346606877922
0.0211320707456151
0.0127116627644427
0.0141616489736314
0.0123057756285277
0.00945540085516681
0.0175973930884371
0.0131994049065812
0.0300716644021037
0.0247655346963559
0.0128892515999617
0.0208293898160199
0.0134096236226423
0.0121535486762944
0.0121926216823551
0.0132446159104474
0.00986795643185364
0.027167301665446
0.0285834198730925
0.020922198560045
0.0342786523661721
0.0242773592093488
0.0122444366632011
0.0181252773205603
0.0203561827204531
0.0304501037148432
-0.00126953719885896
0.0448420124550187
0.0377916172477437
0.0443908328407074
0.0339361802595658
0.0167127841524123
0.018495196665483
0.0112984390089647
0.0115365703263879
0.00922139408130126
0.0440201716437006
0.00518719664676948
0.0235346064802044
-0.00141438522608624
0.0403003345379737
0.01964037469659
0.0239732650126025
0.0149034566928779
0.0149392011345402
0.00945539712218231
0.0448033080136689
0.0132417084366903
0.0202523255322393
0.0439314796923668
0.0472246205807811
0.0548200469075343
0.0149798627028712
0.0176992550361339
0.054796968116888
0.0174171441295579
0.0245497082413112
0.00512420189411484
0.0208828846589312
0.000581307453609265
0.033678368284429
0.0515660975137867
0.0157895347038242
0.018227695302341
0.0186389593004307
0.01441713782134
0.0500522664223239
0.020898112654767
0.0207447189294654
0.0129455132194652
0.0223453836214825
0.00376535154658419
0.0962888408062869
0.0163652127198635
0.0561302483916461
0.035244026375522
0.0484333247548414
0.0299524469666736
0.0337844005059349
0.0151789387995103
0.0445825381718784
0.0386419329505431
0.0250927100839214
0.00356359893865702
0.0569968806136272
0.0334102327929116
0.0195711501118212
0.0246304890241888
0.0147815547671109
0.0167592322962511
0.0716289906234231
0.0801891985807425
0.0592895126124527
0.0197441623902272
0.031186948422581
0.0529440121741144
0.0204194967844523
0.019736811202915
0.0162418038199237
0.016728008885542
0.0135407858993597
0.0113810724291115
0.0309566091875031
0.0118251290548609
0.0280311507819916
0.00700051803226155
0.0286275529974673
0.0419166557857565
0.099717370087499
0.0574877380547765
0.0300959147280931
0.0734581874932302
0.0422580437067444
0.0373184516418104
0.016099363348817
0.0200774099683973
0.0295383076840667
0.0273814705623038
0.0221268904257143
0.0172606284321111
0.0602246941424296
0.0285508830294795
0.0620183658464425
0.0390223411677597
0.0326800326896845
0.0246645195750836
0.0382287284295411
0.245193695660101
0.0361701919538371
0.0628932787437517
0.0156844164952536
0.0787869285367205
0.0807548473844741
0.0420345111192895
0.0219298381989242
0.0253928182748597
0.0162091013680837
0.0338429774831832
0.0288373813879015
0.040940604252702
0.0411196037844886
0.0280050510276114
0.0152456968113439
0.0662806190811433
0.103151246735917
0.115390275011572
0.0455075419290631
0.0367542945101572
0.052010459059699
0.0511965881718428
0.0200315769731548
0.0423154704251484
0.00809351689820732
0.0620566203551424
0.0730836762460572
0.0409980299672105
0.031111774268091
0.0346213784288677
0.0654173130736124
0.012272123655728
0.121175663245116
0.0426154847810622
0.055436588766626
0.0159651319651974
0.0432180255153765
0.0191005360304647
0.0282220513990234
0.0631900397309734
0.0433507358794996
0.0383865110698473
0.0338304699839993
0.0307609175923996
0.0310259304947988
0.0335179982051341
0.0351620655133287
0.0311297798541107
0.0858379609255278
0.0518634817412606
0.267608419886749
0.0454595949632596
0.0609729217800424
0.0287142787100764
0.053741805137069
0.0769301038077819
0.0565766973772678
0.106616194667073
0.0580371439626144
0.0376196246302351
0.034175108906358
0.0348783714284082
0.0390355061640439
0.0315287505044268
0.0437769931978646
0.0170951722459323
0.0843069583458827
0.0152123960657451
0.129382092824803
0.0707270286985567
0.0587794181010268
0.0309618883421452
0.0381603362535233
0.0248093715029524
0.046483282669131
0.017717505577945
0.0498316823414877
0.0465638794014743
0.0321781938850302
0.0403738895032297
0.0209372401489261
0.0742958861329617
0.0487239262796963
0.0369217894949188
0.0400288416450787
0.0251220510438549
0.0460594611256256
0.00761119783144382
0.07497029069599
0.0739890756448753
0.0417311892574337
0.0349418733157636
0.0284092534031998
0.0327397894933959
0.034781804120361
0.0261118681615701
0.0394185258801947
0.0338396023774049
0.0334892824465679
0.0401897168313032
0.0276834451876371
0.0326836690900066
0.0295919273546033
0.0375833270306803
0.0308704941046096
0.0359233385558229
0.0305276048761892
0.0285724232548553
0.0289374440828233
0.0281541013660602
0.0320478127688172
0.0313614217434183
0.0361900390898038
0.035785957536825
0.0278445796041122
0.0334297605104617
0.0292199921860199
0.033119590145851
0.0298970388143598
0.0339770208576903
0.0282039869644687
0.028604127353811
0.0253137201171264
0.0311586025906456
0.0265317905273591
0.0293197796852067
0.0256660167710728
0.0297079678316069
0.0292842357098656
0.026164556206492
0.0334040582879541
0.0222936313521336
0.116446032516083
0.0406908718498034
0.0455029925858279
0.0196911458028911
0.0317434549782894
0.0237604700142141
0.0232931628541931
0.0861586128999427
0.0483535130830299
0.0322606690482047
0.0217802292550317
0.0220531475670967
0.0502550666937617
0.0293480986478827
0.0228672900571462
0.0350847423524575
0.00754471360779205
0.118164235305988
0.0589854362169115
0.178803907267322
0.0958510971053181
0.0615424058307068
0.0174265205688426
0.067191410875926
0.0601301438496601
0.0231401417329509
0.0329230312796132
0.00656500905393892
0.0939274608687901
0.029163176426562
0.028156958805459
0.0179165123544292
0.0161476279993676
0.0627701999711905
0.0692621739395938
0.0361527599240627
0.0737770830638835
0.0633579235332745
0.047141208676523
0.103989786605138
0.110653086571515
0.065883347145261
0.024264513615005
0.0373221102997795
0.0176827979304221
0.0469575917682423
0.0964170530283593
0.0320194440419302
0.0562457862864735
0.0126919907419238
0.0288242787582744
0.0223377874277437
0.0610038922150939
0.0282381108933042
0.0475242948234587
0.0762480402516005
0.0180634778077841
0.0671591513806685
0.0396185886870663
0.110155360527215
0.0792891547322952
0.0511176231752217
0.0129695798105063
0.0874538690209302
0.0709053127671522
0.0431928892446596
0.0538299855405565
0.0146046221698085
0.0393002185110898
0.053532292291981
0.0210319039056772
0.0669219225279278
0.0467851809843175
0.077131551117187
0.107199755700013
0.122577037468243
0.099233690174376
0.0374009135872848
0.0212853036021734
0.0254144112782125
0.0253249951412354
0.035964142064494
0.00414089836663564
0.0864045626658392
0.0191766307733389
0.0404749023381693
0.079723541588253
0.0320516377149879
0.0272453778150807
0.0266024836954565
0.0141210383968791
0.0383972423418458
0.0577287360816791
0.0941644112876915
0.035365681835919
0.0552705182980595
0.0516377575047049
0.0355368459039642
0.0291223580621852
0.0278718714953442
0.0246086809898766
0.0270553185224015
0.0433984010450258
0.0314583684089693
0.0276132542640104
0.0371954494078552
0.0196284312690285
0.0786961278196652
0.0627221969398593
0.0336383898512677
0.0968767581540844
0.0486226760923322
0.130368857231216
0.0445618228255887
0.0467525681765075
0.0390578557662214
0.0385241824749901
0.0450072937779875
0.0324850819573156
0.065872377353657
0.0764007658038243
0.0399787373819169
0.0538760186505114
0.0365323031800525
0.0543385332975324
0.0421591819887505
0.106444971490123
0.0551182546537134
0.168323416964985
0.088381566991604
0.0919021241615932
0.0556887915076376
0.0463179231260353
0.0654938226691723
0.0557735997110797
0.0531947215063283
0.04542863912207
0.0558410146238028
0.0849769040304396
0.0463821623504266
0.0571625569857825
0.0432741655435427
0.0515472748267173
0.049363173522801
0.0526994755185951
0.0502461807837129
0.0486510728555961
0.0577954874026769
0.0499870815780845
0.0598014145439255
0.161282686979726
0.0634050419330383
0.0720223432121083
0.0526336701856192
0.0731436735743235
0.0523730193324092
0.0598092757104281
0.0856918963926847
0.0706905768653557
0.0638800749476549
0.0625325423176562
0.059013123811449
0.0620805848825019
0.0776113079250024
0.102322438539038
0.0480163444892555
0.0858444198787687
0.0360542331885722
0.141603311757335
0.0915911923724742
0.097789502826816
0.0832278105251818
0.0732994760254424
0.0657462097135322
0.0646571172059506
0.0622414657173699
0.0632073757472618
0.0694150993474662
0.0634000968969846
0.0686743925277705
0.0557365501857319
0.0625870491950613
0.0555800139554921
0.0638280379988335
0.0897849159722602
0.05915526506866
0.0680597459352206
0.0563829593342264
0.0630113912888618
0.0511759490897742
0.0968041791099749
0.0704684199124685
0.0746619294428366
0.0621196279465002
0.0781696146323333
0.0868445933944637
0.0769488702656439
0.0507348295330482
0.0634370829252292
0.0481730221103747
0.0664430006396016
0.045014780817081
0.0764861876553179
0.0868648124077207
0.0672835991735858
0.0588073338564487
0.0581914241821293
0.0553899454154439
0.057132604090868
0.0566323085725575
0.058226508223909
0.0610478093102974
0.0641825216995614
0.0687116369983566
0.0577519008319554
0.0647815900207114
0.0771187567028321
0.0854646088172404
0.0811546042952405
0.0605269517125992
0.0667789067020732
0.053116093966651
0.064548740511841
0.0683130922734198
0.0662210022031675
0.052885249248743
0.0650481333517638
0.0561196522293905
0.068568640779635
0.0990804905209248
0.0629612509314388
0.0805963694264338
0.0571073705122614
0.0585171574543003
0.0571964318737694
0.0576810921799996
0.0531320381766769
0.0556228861047559
0.0581808149641465
0.0515896056402319
0.052431770043986
0.0522582349728487
0.0500014858496553
0.0522474360855026
0.056506359659005
0.0526680506905464
0.0514136368824899
0.0497899418864451
0.0520335341504351
0.0492556488829403
0.0487619785990588
0.0491450731652826
0.0494198511394207
0.0699797258021046
0.0678393430803366
0.0759636933838592
0.0551684167764821
0.0638174831136657
0.0535011658491795
0.0464491539198522
0.0521973916863597
0.0466537448944852
0.0501334496628667
0.0462472573296863
0.0501613205644306
0.0462025357905447
0.0490289581612885
0.047088022404804
0.0537269626925581
0.0436225008646108
0.0463568007037482
0.0463201642332348
0.0504559851339355
0.0427339873163134
0.0529405082476935
0.0465316334680794
0.0600682653846457
0.0473098176076728
0.0548983770559832
0.0498064369606727
0.0463906293334195
0.0471147015135567
0.050425353009506
0.0540112016157131
0.0472274416405834
0.0445674668857878
0.0449898329714568
0.0460969672142243
0.0458968261813051
0.0458543060213787
0.0452430796131276
0.0437718640032623
0.0434449564709671
0.0435128030657538
0.0444326199175979
0.0415379562099831
0.0465947720829131
0.0406525768357301
0.04172544053161
0.0420942890546244
0.0447732042928849
0.0405347512449069
0.0413632830976449
0.0394407888561765
0.0416443027994195
0.0366531681692688
0.0399113603508757
0.0386861827986074
0.038943577958414
0.0386556941914881
0.0426950389905177
0.0388936742821481
0.039910426298071
0.035566793273098
0.0365276614266917
0.0369506044368037
0.0378994756043799
0.0354393168574783
0.0385741615274331
0.037636337695452
0.0388831815401343
0.0373225900396924
0.0384318201229783
0.0353475637272757
0.0378964970337384
0.0359270825970528
0.037860020701775
0.0418598765460796
0.0406180972909804
0.038440221728667
0.039956652886761
0.0408147607403723
0.0399915284053032
0.0409391741292095
0.0422197882481302
0.0412784461691337
0.0405356716448861
0.0399625842043642
0.0422547771040093
0.0447623121410429
0.0430595434128995
0.0403856416642953
0.0400448304695807
0.0393342890242303
0.0433376281541404
0.0403271631834106
0.0399429162624458
0.0408103996172611
0.0427138109238606
0.0409478589777491
0.0412391692424737
0.0406759453275112
0.0423324178505536
0.0408505025257863
0.0418201262329869
0.040409405695266
0.0411425203218933
0.0417936521820998
0.0425087695876401
0.0411278569553309
0.0409470941473755
0.0387026013735616
0.0418599895094034
0.0410862450525423
0.0415556586753038
0.0396764227318951
0.0407505756844301
0.0401774849358965
0.0402071102428656
0.0395160207385323
0.0404835241760353
0.0393376242852737
0.0376446889396978
0.0394900122581601
0.039789522529636
0.0366912669865835
0.0399369853630452
0.0418519135576873
0.0365834970819161
0.0367817233211065
0.0386325832915305
0.0373618688246766
0.0377861139545083
0.0370593948348873
0.0384658390659187
0.0376946824214158
0.0377427758417863
0.0375415040819199
0.038756191155224
0.0349153660295409
0.0377398553262942
0.0376995432778351
0.0354493895226038
0.0355588719937072
0.0374972335521248
0.0367913954233367
0.037678077222646
0.0354299875222854
0.0371754809917231
0.036792921517609
0.0374082456099235
0.036510535142964
0.0375372823172769
0.0376804565460406
0.0381461244278376
0.038433811002619
0.0370145318296195
0.0363357399495211
0.0373567182629453
0.0376069168727852
0.0363669120221464
0.0368079975823893
0.0371540028666483
0.0332174685017705
0.0358424286013798
0.0355487417040698
0.0357082240032123
0.0339336037278196
0.036070114531165
0.0347889273978763
0.0325677764129031
0.0350675187593
0.0375330165021559
0.0358957153616621
0.0398562494445305
0.040705004572969
0.0399251759582249
0.0406517679850561
0.04408669925368
0.0449783430517271
0.047237734350543
0.0517266835236622
0.0555186231571068
0.0564659112850853
0.059558906827708
0.0608323487230467
0.0658740621164574
0.0663715721306958
0.0705587109467491
0.0745638069604948
0.0779042140794
0.0804009444752402
0.0861528061979264
0.0891742663209601
0.0925884160760873
0.0943458802882804
0.101501655146957
0.104272026708867
0.106279789678248
0.111891099831746
0.113140009564326
0.114407372871885
0.119138050983345
0.120457119407261
0.122085400386997
0.121718174148969
0.123032567066533
0.120561124804618
0.121388220908682
0.120187747082852
0.120104098590132
0.117910989152368
0.119348723753385
0.118358210854286
0.117888358716075
0.115551005518838
0.114391589567529
0.114940755501057
0.113686858198311
0.112160661338205
0.111625014447224
0.110032542712249
0.109609604394573
0.109388978181298
0.111221059432882
0.109279795062954
0.113594323831377
0.112916606016514
0.113863492143318
0.113712585485825
0.11640457084247
0.11643933584608
0.118959521818523
0.12060222302915
0.121817806762615
0.124891954457145
0.125803016616871
0.127814457646696
0.129885031875788
0.130257590643634
0.132872830500238
0.133384801476959
0.134024147134746
0.134177798766194
0.135735421071859
0.136117041032503
0.136936116302384
0.137909424951586
0.140792873317657
0.138994151505214
0.139744607366679
0.140117971622503
0.140312534320751
0.142449215277964
0.143775682441961
0.140377522445588
0.141670271363723
0.145306684452858
0.148265113469456
0.149143308258903
0.150747807673556
0.152410353197138
0.154843744773661
0.153832912251604
0.157725177567434
0.161544578383403
0.166075441215079
0.164298047665457
0.170499990153487
0.172532210062952
0.178096796902311
0.178583740415699
0.183393507683891
0.187255402111326
0.189442773433039
0.194998665388625
0.204133671253377
0.206721984843052
0.212929714435556
0.220054556340024
0.224661912041168
0.229142110158186
0.233887005506677
0.237495277285065
0.239606481675683
0.237116035079415
0.239597715384928
0.239038951286928
0.239538526127511
0.237463717874326
0.236070123339126
0.229689563566594
0.229332093384082
0.228662318087851
0.230402443597634
0.222309205042198
0.223669732511472
0.220582539733063
0.222915568935559
0.218916473117792
0.217873440097442
0.216548974200364
0.216474194591824
0.222299437681488
0.219999411253295
0.223438970840656
0.22900167598805
0.225469238637957
0.230125940553329
0.236463965927724
0.237447720604341
0.238497718313974
0.243858057074159
0.247514043794256
0.247144089850927
0.252158481207234
0.253279484868924
0.25571601632173
0.262617757124817
0.265133200445303
0.264626338061693
0.271040379325997
0.274272539194801
0.272322421122604
0.272962642832761
0.273565817705724
0.278213003396107
0.276444561156235
0.276119153600096
0.280016372482667
0.281358738125937
0.279825068387585
0.284106386860387
0.285240688416468
0.284551784561963
0.283489940417789
0.281699812968232
0.282366017405699
0.279896730018713
0.280629684397931
0.277607869534706
0.275892003136059
0.275189502670301
0.268357695386892
0.268548533172985
0.259851181880197
0.25369004471158
0.244555555187477
0.246192161205131
0.235947919634628
0.225678576553785
0.218321046277156
0.205686765856275
0.196907986058044
0.190336965744643
0.180088174127389
0.165885058235182
0.159642320934274
0.151687986677707
0.140451321386267
0.132922040910881
0.124729819103586
0.119027898197486
0.11279793313756
0.106427223405022
0.103714905942733
0.10108118583979
0.0972774378154083
0.0945678048876345
0.0927169574465916
0.0900169613172323
0.0808969086551926
0.0780381588426142
0.0777508172771776
0.0734375953864354
0.0665931775389758
0.0626086721718778
0.0573959632435757
0.0519582010384395
0.0511397965616651
0.0461531682365937
0.0409196796921704
0.0341877780365121
0.0320534792429449
0.0281608711100531
0.0209110017863553
0.018654862542845
0.0141848574630485
0.010499224790713
0.00946553528481532
0.00477023562579039
0.00117044947855292
-0.00175863692568278
-0.00370780176773748
-0.00327933240683064
-0.00567812275383043
-0.00730234404459403
-0.00519471375551473
-0.0106630922899556
-0.00890430087316997
-0.00942780822996525
-0.00751470474720132
-0.00657013774358014
-0.0100519313073227
-0.00679381867081668
-0.00879149419445091
-0.00890052664013505
-0.0068953985560593
-0.00605859241757866
-0.00593854117418892
-0.00632445860970611
-0.00663524915143883
-0.00429231974661395
-0.00660178337996325
-0.00377970392510781
-0.00433481591459595
-0.00500025672263376
-0.00325142878056605
-0.0035449843049883
-0.00265889145167127
-0.00536821098968378
-0.0039430627694651
1.70964708140299E-05
-0.00316548469341243
-0.00192881930717242
0.00216312007846175
0.00142501466132802
0.000714475128021895
-0.000477366907244853
0.00200979313593876
0.00214405662590346
0.00297551280764008
0.00292123008070083
0.00429244486749702
0.0017899436925402
0.00294809182288493
0.000839428207565698
0.00274983573203206
0.00142123615457475
0.00471100462975683
0.00465220065910144
0.00100112254010015
0.00439990554076903
0.00417959311978091
0.00580503905893315
0.00545735444615587
0.00506706971144574
0.0050963759764802
0.00438459798253973
0.00556125918875056
0.00833410524336794
0.0057655116426105
0.00328740685731929
0.00743151120857216
0.00966581596406669
0.00790050077291695
0.00471782606253407
0.00601281021889286
0.00389904769171683
0.00444847736764262
0.00854458089099108
0.00416488289331778
0.0041729118577171
0.00490193823229694
0.00599117657373963
0.00811680424348504
0.00612915825240109
0.00918854131807264
0.0107059380425608
0.00665165417984702
0.00752222338208589
0.00849827572704991
0.00775984338220076
0.00667464938793827
0.0108337933822673
0.00714350166007526
0.00253940925071607
0.0117971237219156
0.00929931227008611
0.00932681248318966
0.0108558975154053
0.0102210147923162
0.00970384408599308
0.00976004282392058
0.00687588641610375
0.013187070161986
0.00593613814442903
0.0090537629922716
0.01174267831592
0.00664076632165072
0.00356254893767643
0.00463025811766456
0.00344373928568416
0.00270537731424611
0.000584419755865408
0.00325331634347041
-0.00112038009673946
0.000652076169391921
0.00302262009007693
0.0031031750125268
-0.00127215731744934
0.00346566705739627
0.0048861455250511
0.00680317052554191
0.00540221479380912
0.00156789153371388
0.00602854735767199
0.00378716585919624
0.00293978806593618
0.00607252986130659
-0.000836208610749745
0.00602367346995259
0.00319872662937681
0.0054261826441154
0.0041758798279002
0.00434138253340156
0.00913672643949893
0.00527602078598918
-0.00474901835287515
0.00126490115433598
0.00142613697594852
-0.00194310692377341
0.00408134540967779
0.00818305818966973
0.00228868415249963
0.00684515609448608
0.00617457736712483
0.00755628789416872
-0.00365287246526625
0.0033169896971749
-0.00539601751846452
-0.00407588388179086
0.00784163508884453
0.00757518878458016
-0.00262119868967012
-0.00187775186151925
-0.00263517462014907
-0.00207901441272247
-0.00133672582718644
0.00136335064249177
0.00128168560242035
0.00575995371697145
-0.000799970874330768
0.000673246589831615
-0.004885599787361
-0.0126336211898787
-0.00252925774215126
8.76115176990613E-05
-0.00984243325896866
-0.00329340315364213
-0.00144873254914317
-0.000647759915675135
-0.00578382467763188
-0.00413074120551531
-0.00657071080978872
-0.00516261331573677
-0.0104903623870037
-0.00195154342164705
-0.00258428576551172
-0.00904406858386331
-0.00196819971167778
0.000203739114227354
-0.00704767908406316
0.00221790205550877
-0.000363352128885186
-0.00431111591574958
-0.00839128238785569
-1.31518216256105E-05
0.00227656376856317
0.00175731601185757
-0.00758357975538403
0.0023385987990646
-0.00161535043966432
-0.00537909058005921
0.00224301794132207
0.0117354469090747
-0.00722220658908124
0.00402660084358437
0.012534475761324
0.00294674829379651
-0.00901180398340448
0.00990965608259269
0.00453631369422561
0.00108316287930149
0.010677319862085
0.0119257477687102
0.00230117174900893
0.0127032208093126
0.00913653720402814
0.00672249296034098
-0.00405334777559579
0.00964304904055222
0.0120372454188961
0.0053455432066785
0.00629919861123194
0.00709205077138853
0.0111859401393895
0.00781927681881087
0.00749839836002189
0.0152313351072855
0.0068714003912348
0.00532815512972121
0.017708790265541
0.0161904327676276
0.00720259400535294
0.00756015660449219
0.00532250362296567
0.00148936136852519
0.00568877182529071
0.0094309167996259
-0.00237940485488417
0.00372364241289437
0.00210941674409885
0.00842490994778314
0.00219928867616108
0.00899933658426247
0.0054336933205604
-0.00242438847100836
0.00663398638617609
0.00527101172468237
-6.52389278432277E-05
0.00560366016807301
0.00655441793728499
0.0119866303303103
0.0118336194396185
0.0138271006437647
0.0144792770116554
0.014778072275081
0.000728824451585501
0.0110083992485267
0.000536290392597405
0.00638959617696713
0.0108325915239303
0.00868513492027344
-0.000531566353011166
0.00155262661943233
-0.00117043544302356
-0.00438153752364959
0.00106589136299515
0.00655675312362579
0.00546202796816614
0.00392555847801497
-0.00645363474488757
0.000767774998150234
-0.00555992188933272
-0.00169266688695132
0.00606307062291949
0.0172901969881051
0.0167558905974881
0.00190037788141077
0.00112454947259831
0.00699822779619696
-0.00686570403956363
0.0119655296169679
0.0100401550881306
0.021100337084741
-0.00808359531453109
0.00849251867772191
-0.00698945739562918
-0.00946422039321729
-0.00123003306967817
0.000940443957447144
0.00357282755301535
-0.0141597331957417
-0.0149386122286661
0.00690217894284165
0.00835717362464278
0.0118854292734515
-1.3014767588104E-05
0.0109974715594003
-0.00403388419427139
-0.0127750484364035
-0.0277980709814391
0.00511046405623034
0.0144430697797716
0.0195713964522647
0.017025099037121
-0.00116067560678727
-0.00842306107242492
0.0181189458011523
0.0157530056772377
0.00125788547221289
0.0334993551049064
0.0043325786307102
-0.00659057042621414
0.016746741002134
0.0110349444630209
-0.000286343837109118
-0.00585574726708641
0.0149930339785617
0.000979192429268758
0.0297516938285741
-0.00775128094985982
-0.0108851185008499
-0.0162260922680734
0.000945873449488189
0.0112881301697418
0.0137321272740819
-0.00140075785207665
0.0169854023787943
0.0369009412840732
4.60017135249996E-06
0.0148698352996411
-0.0154314162783586
-0.00642736276367617
0.00185117253238563
0.010301123189477
0.0130603292027023
0.000224771255064471
0.00902135315664547
-0.027473220981451
-0.0165050465702911
-0.0525173668690293
0.0224648503198854
0.00770727949474924
0.0221202955260541
0.00070873449005984
0.0210393662410148
0.00256439212799257
-0.0241499969862073
0.00881850373834336
-0.0936803807110453
-0.0418860087388633
-0.0171528411564316
0.0399909829220899
-0.337846793327983
-0.150345640757862
0.0016144276553837
-0.0446847946173558
0.0135395055460865
-0.0147172906377604
-0.0247609655984881
-0.0802042913176504
-0.0123776243988632
-0.0913268942845681
-0.0197242805878963
-0.160179111581364
-0.0457525371217452
0.0263778723254923
0.0280561158939533
-0.175196472735665
0.0617767201543242
-0.0837489516306194
-0.105304306487951
0.252769780091944
