3596
4000.36533379555
650.420452594757
1
2
2
0.0969343296933256
0.0979059775676105
0.0929217866260104
0.0946461111484241
0.102690430268834
0.0889037394780354
0.0908147596680734
0.0916840582807187
0.0912709257918663
0.0987281002650187
0.0934121771965502
0.0918778330266077
0.092249438652122
0.0900341156516869
0.0928452347113654
0.0938662438457564
0.0959662305053231
0.0910660593979708
0.0905851718632385
0.0867212921525895
0.0929401633409302
0.0995766104518558
0.0948350419442396
0.0907068985524485
0.0883432670149
0.102680635681172
0.0957338431031425
0.0896555676645452
0.091345161163566
0.100278859995727
0.0940668676389264
0.0926618547526612
0.099333889712522
0.0881284757255455
0.0893291989436867
0.0913996386775909
0.0940192376579453
0.0861347884746424
0.0900209047587536
0.107904210669351
0.0989863869004432
0.090305280707927
0.0924069167204201
0.0905363864383844
0.0900998536136678
0.0870364633052031
0.0981761353298943
0.0903547488056141
0.0887843337533853
0.0913986824766407
0.0930361532258114
0.098837826978962
0.0981605563158217
0.10348032355706
0.108531480524963
0.11131911471736
0.106723946562037
0.0903051495915786
0.0895066261094781
0.0894967070664872
0.112133519121125
0.114357375943737
0.0921088471486598
0.0887306522577639
0.0846778900178466
0.0955666276215806
0.0908749375317654
0.0913919812519352
0.0882315972973846
0.0910526878016809
0.0940303895984668
0.0960487119100222
0.109655405673441
0.0913536512994605
0.105762634692097
0.0921059213837488
0.0850158265564429
0.085419765760903
0.0835997782994467
0.090536147380239
0.113117405084435
0.0886600175009148
0.0857822484454351
0.0750370639379837
0.0965130841743081
0.104593768922304
0.0843254674075588
0.0883919681651534
0.128161452600638
0.0975628234334874
0.0889192444175094
0.0803158752410824
0.0929697633592671
0.0772530810923857
0.0943786610331542
0.0829638034728178
0.082566504678521
0.076934995835678
0.0849992722252505
0.0859746143066748
0.107029619741566
0.0983086103685983
0.150022116594706
0.10415949273314
0.140221324982107
0.113747572734481
0.0799113618876528
0.142897757846668
0.104708842055968
0.0937893657569878
0.0915689926397763
0.0824937763990836
0.0929991691772791
0.0887338298673937
0.0943538654556778
0.109158735172793
0.125339023078843
0.0914974777352851
0.0952956644000785
0.0733875478718964
0.0856497571916879
0.104204553828367
0.147682506151329
0.08340987108417
0.110759372906351
0.0884642958188604
0.0938586867172549
0.10965021500954
0.138287665685933
0.0834222144516655
0.0855061018733747
0.073996715274521
0.0864899242887382
0.0842403708119337
0.145007723395868
0.0999519012141502
0.0886149295553903
0.0874861164279855
0.103723968709844
0.147523107303455
0.108867355244235
0.0784035188601282
0.0744563062547093
0.0914442883310798
0.136254518763245
0.0912529923653585
0.0841224215525275
0.0976872020359134
0.108858122772394
0.0767259894495497
0.0839867363554895
0.0729637553789998
0.102850851053089
0.0850247391820528
0.0793856032624507
0.112469658921633
0.201777807498577
0.0983596135865368
0.15945193312604
0.0974166967005372
0.0966903266519653
0.0907340656985745
0.0811060424873524
0.0803676516083413
0.082164172232335
0.0810903144305096
0.0982587872465461
0.117266814444177
0.08138495804284
0.0912865053751945
0.120489412160678
0.103484283935114
0.0951001524370103
0.131550867143327
0.115843447038082
0.0695901822584158
0.128297902464113
0.0954466658650436
0.081611460056124
0.0911427230482883
0.116769420756016
0.0792960399953567
0.0861991633297119
0.0727777076452281
0.0959520194321302
0.104240575878355
0.0984935881818261
0.0746695901834827
0.0893598069095115
0.0700298330333097
0.108330001797931
0.135372110451699
0.134604407083172
0.0873813464876384
0.0884372145157603
0.0587884039077433
0.110407823584615
0.124206907669037
0.0787456596358645
0.0802951868415713
0.0837614325012341
0.0749180715836986
0.0812990737937544
0.0682815253688877
0.0757739579759474
0.0716185396487889
0.135677225651579
0.111008021560671
0.0815624849957488
0.0791149020741758
0.0886507156991742
0.094718061074061
0.126881571247522
0.130468289690682
0.0837509534337908
0.0946754306297839
0.0774380609751401
0.108746319515646
0.11552004794738
0.0791076477216443
0.0798828222725827
0.079605808022812
0.0789814185269767
0.0800891950400631
0.0806354524399814
0.0782076897280936
0.0825391128735716
0.0792279124827619
0.0830174324805834
0.0810521964095304
0.0952949298647068
0.0872844885235307
0.0823047929976184
0.0766804881161499
0.0848499992558569
0.0892323540169828
0.112846175431783
0.0780583934144897
0.0865636388141757
0.0801839027355983
0.0803808995470942
0.0757985824511584
0.0839766966648154
0.0832617911641139
0.0861734499040735
0.0798465958272721
0.121747441749834
0.100895141100902
0.0794359221940485
0.0887380562438187
0.099674161398557
0.111860492660937
0.0774355557196228
0.0879985022910811
0.0778862476029557
0.0767759769154774
0.0779159000768352
0.115226795206256
0.096546209686864
0.0905676621371207
0.0963926608134877
0.0984301848278168
0.0804497890223675
0.0860508163538905
0.0904364332999998
0.151472286833072
0.117724496885829
0.0928086622072445
0.165662346882353
0.124971262388507
0.0994024658156595
0.0964006339184915
0.0635571854668073
0.192294731851598
0.151378728802367
0.0953440918408075
0.102539436769691
0.0972969395765398
0.0959358950348002
0.0897903639081095
0.108344725540257
0.0957589697113236
0.153019513532353
0.170550429385117
0.151771288930395
0.0905414610577394
0.106722558939253
0.128301096698655
0.0864884739180075
0.0912073580822615
0.0861118748855248
0.0959345335043619
0.10603542406698
0.12381248425424
0.11352385238167
0.108694761438812
0.104538189205139
0.125205614046491
0.103155586777314
0.0895501113259512
0.0958927405530226
0.109618777123375
0.0920509913773414
0.0829564151189694
0.0957982466329748
0.0961203130244442
0.0912487776004799
0.0909781270568666
0.152578821000544
0.12301840456168
0.102436223081906
0.131216927045942
0.102853045728678
0.0927922548809319
0.0929889210836407
0.0923090987357574
0.0904829309679673
0.0862325654750995
0.0921250834305599
0.126210441867382
0.120283552886959
0.0797231580017127
0.0945106884818375
0.0826566963015648
0.0984410315269523
0.0954028481034757
0.0954259131234999
0.0953043695010694
0.101809159384427
0.0959810245392449
0.124677679482043
0.129255973842989
0.106096728378627
0.127644944158484
0.158323102340437
0.0978331927130307
0.109697425644678
0.0941978121399818
0.112985926488609
0.102041259207682
0.102330880567075
0.103356303359133
0.115672454227869
0.12771009974521
0.127471889863308
0.107910281564106
0.144474443391618
0.214455237848182
0.199381946533291
0.131328384991513
0.11852394985252
0.119120543394566
0.148287863495434
0.178254344828481
0.144080588725887
0.157365238843994
0.121768966657453
0.124519281749155
0.129883677266693
0.119901985704888
0.126246662144121
0.127469064508755
0.139099452154336
0.122052947210322
0.146710748807231
0.129207568396621
0.137005744739111
0.147525993641106
0.191409412916019
0.160341702672717
0.144323380460652
0.147859388353632
0.156677731404828
0.165515768277815
0.225423961738093
0.180404554197763
0.215933153812353
0.181542973872434
0.228516737158908
0.179432426193955
0.167590122102672
0.155439203972131
0.172434937517504
0.173440611847144
0.175242519883623
0.169445363160197
0.181497472778464
0.182085330550515
0.188955262212363
0.173591690136382
0.18764752892848
0.18636243626426
0.205801068323287
0.202090513540518
0.198025510129112
0.205562708209168
0.224923807902984
0.281249195348535
0.257540429836659
0.222864602988345
0.211004723999173
0.218272180636698
0.212078682578724
0.225263589729482
0.219310651654623
0.22603114214377
0.235338677453115
0.254080111786253
0.273368642068509
0.25540743957635
0.260102750936799
0.230142828825086
0.268606602814519
0.259351796971301
0.274565383832366
0.28516875312148
0.271011674873361
0.257684771464538
0.288609297319159
0.301293017317791
0.281362943331349
0.309435871405062
0.289684566152957
0.271952298616928
0.282311075375111
0.283004089861599
0.299843641883515
0.292474365128207
0.308402439664631
0.293255889007527
0.307791560817133
0.302704311436879
0.325392028585477
0.330890094537465
0.337406336162919
0.324430300774744
0.347403897242328
0.317444798837486
0.33284140119812
0.337202451206877
0.350070962622424
0.379082036618296
0.384849015627807
0.370890494879679
0.345891453975994
0.346936924012694
0.359790799430577
0.356135651846849
0.375032565898826
0.376224043869685
0.374867810387216
0.370874744046018
0.380618165812479
0.374251149971434
0.403250697430637
0.378525419022833
0.401819643460676
0.406447990214019
0.397012923531923
0.413973961763319
0.433413604701122
0.424249079922202
0.465485397405663
0.479004923387399
0.475551186941071
0.460425871607264
0.452410295672592
0.439367227806111
0.464479500780164
0.449655449967907
0.458073100189482
0.453369673495058
0.495934379627724
0.482161096657088
0.489593912895138
0.462128706994297
0.480190096094561
0.482287329993387
0.513507833931687
0.522286169514217
0.523366690547928
0.503890766251232
0.524002464984478
0.513954093889601
0.542784030797948
0.526224364264982
0.540684757664314
0.558359777508578
0.558622466031018
0.54892937199041
0.564213135743433
0.537768539122593
0.563110030938242
0.554511389389773
0.578460039226448
0.617097282683284
0.586111792586653
0.605978986136124
0.620249941361762
0.573132961678276
0.599873092425785
0.590142805660194
0.646110189480346
0.610638497813164
0.642228279898615
0.657101017576344
0.675963953669421
0.635103800924142
0.696486239456612
0.682999721608336
0.67403872203093
0.673672698561711
0.684835443976568
0.629403380828752
0.670817256644436
0.685189041751891
0.699669088106475
0.670300033167077
0.701271499913665
0.693289596955812
0.696102599439767
0.709481119865786
0.743684607982466
0.691640657183122
0.775663853310664
0.728915407438037
0.741959465147169
0.718009163901547
0.739652199714127
0.732249476641272
0.752779403879622
0.735606866714938
0.766333039412911
0.750030080792719
0.832148073643025
0.790164775323956
0.801074737334391
0.779009285774383
0.828625873420506
0.836834472312861
0.852649132596478
0.807805481865902
0.849474089111713
0.803596387189897
0.860852703203652
0.873815046719562
0.867572269724439
0.846896725718725
0.877176484477502
0.823960194955532
0.880465788283837
0.886944802349708
0.931228309080658
0.884069291926051
0.883765294568927
0.866964733471578
0.889406731745393
0.872596346189399
0.949188241054958
0.889214287884133
0.915989763318122
0.891821983895204
0.908894819461003
0.903368652443544
0.984274401682113
0.926674145997437
0.925321356475721
0.901962284576009
0.93399264066652
0.929056736421643
0.992092387257908
0.981897258715807
1.06748077946881
0.9735449188689
0.990917998046691
0.942029966909525
1.12173993421575
1.03682637707559
0.98447467546309
0.973708967729339
1.04942411574172
0.966702832349619
1.06950478700021
1.10004395690717
1.04217464085109
0.930936801456676
1.07822678819302
1.0749879896784
1.12048683410639
0.993566801166204
1.07695033350277
1.03076607041361
1.18345721352821
1.12428791656572
1.03365197899717
1.08660361634939
1.20466248148671
1.07921771552266
1.11344783809869
1.12441976857625
1.15284316510471
1.07012917544497
1.16776943091854
1.06398268052582
1.11113095295468
1.10315186432496
1.19553038340139
1.17459797798811
1.29885677362946
1.12224392325652
1.06291863185487
1.08358091305229
1.17067215592502
1.19256256055298
1.26052003272481
1.20607710356382
1.31097279225203
1.24357198496043
1.36313946862946
1.15387027232962
1.21095150763437
1.22697437901396
1.35434726685386
1.17351336128342
1.2947877209533
1.24153574775433
1.2342231103813
1.22441506245513
1.29040889286195
1.17250306509595
1.35728121401403
1.32860882635743
1.3005795289536
1.13394075237185
1.30766132710084
1.25051402608985
1.36243109667739
1.29886551302674
1.39061368208103
1.2506725283557
1.2583075086774
1.17637819783112
1.31472182554106
1.2651131363544
1.3116317728181
1.33906817418091
1.51146435682558
1.28157434777887
1.33085052730698
1.22192433388416
1.31826852002822
1.29141738357212
1.47770944853326
1.37096662254022
1.4373911023303
1.41216669204121
1.37768652584738
1.41051493227527
1.53871649981295
1.32222914538071
1.42771682716713
1.31056163416411
1.48912552497287
1.31052216031128
1.45676488934338
1.36032207048812
1.54307693044868
1.43205660199943
1.34310321914318
1.43006736732584
1.47612404275475
1.2505591660555
1.52469377526432
1.32109962970554
1.46462222678919
1.35674753144373
1.52383580661601
1.47191386341704
1.59666639072463
1.57731230404801
1.54740423098148
1.42679870144905
1.47088917856046
1.381819109581
1.48564833906357
1.53807301046394
1.36003114925919
1.61683344260788
1.5521465581464
1.37722842900347
1.72257896563183
1.40083920818826
1.59636798869205
1.35238587286396
1.44179560098629
1.41429825580521
1.57428526230723
1.33856295852381
1.71651569531505
1.59777596075666
1.71342244170903
1.48832441108707
1.69811724241394
1.42047424994727
1.54255252403284
1.47482132025117
1.5065328946749
1.3902729372476
1.48358505213898
1.47022675234692
1.82593987656073
1.53175498666188
1.64961152185963
1.51375370347775
1.79194903061385
1.4884167686616
1.57469819007793
1.37614354042938
1.53362045872531
1.44223526945647
1.5612790247093
1.48144851296071
1.68874369857146
1.51359850817052
1.53166136530013
1.49886658324541
1.48028611802285
1.42743913265183
1.60178210999086
1.54736685840007
1.79005608848186
1.60422321360692
1.65432877152653
1.42088096666261
1.59063553296026
1.45515671564277
1.74033941814112
1.49224520335902
1.80552235033137
1.56141151334018
1.5192833691001
1.47311744093486
1.43124839303893
1.31698109147564
1.65353759348034
1.52779061551205
1.59108457308493
1.52294050125333
1.89865396590722
1.64179999205458
1.67075541867347
1.57644670367566
1.97141967767858
1.63352053116599
1.85637050376069
1.41141808405343
1.55814932640437
1.43273265751386
1.52656639863267
1.33986072974134
1.60862002359911
1.50859156043394
1.52857608670792
1.50162764602906
1.7331443226546
1.46486984908048
1.79988514044692
1.51145557082097
1.54632060982427
1.53393919104912
1.53908841680064
1.47929938957942
1.7359905977599
1.3787999383053
1.72952559129337
1.44413483643444
1.72086863531031
1.44576282792406
1.53362943618365
1.59360196726333
1.63874141842384
1.54700405074952
1.64170830395956
1.50025052303461
1.68468657543293
1.51101707900924
1.62122577178645
1.52001161800751
1.64942733596815
1.54031051597267
1.73034270844667
1.43063038072955
1.65056421141193
1.47493543392928
1.65847083045077
1.48406524328151
1.62257925028556
1.44626725421988
1.4874382209397
1.46379590711387
1.70198918703682
1.52461039500016
1.63490156015098
1.53128792756789
1.48370584551614
1.45362340628392
1.58980362482991
1.35551642700885
1.52846236375804
1.44881470414076
1.9805827702624
1.37368496179428
1.39619298187644
1.46222587235728
1.5009568841732
1.33101883127342
1.53368083824015
1.54807956973101
1.64883590247444
1.44372003237786
1.42169240821293
1.45191297261708
1.52532492631834
1.50972093366311
1.59744176042464
1.40532066561664
1.61602979619575
1.49251218904224
1.4667180009351
1.40757775113906
1.40263292466064
1.38745685784213
1.53632123113946
1.3534199686231
1.50878337982089
1.35947824407054
1.41433091703401
1.35380844817754
1.36015560111899
1.39314607432531
1.55954714063059
1.39216637861226
1.45379270142349
1.36458573170747
1.31060885576613
1.28048050495322
1.55696517351975
1.33686513736379
1.5203383485438
1.35370520560185
1.33334071494775
1.34388313455324
1.45519422132313
1.40020378572305
1.3378009455695
1.24908552591016
1.43486171969636
1.31945062019344
1.31046541534233
1.20379018813573
1.26581656275364
1.25109308665875
1.31953769150886
1.2612878497789
1.3633473047587
1.31006652172478
1.32987926923779
1.2199417101917
1.27156392827171
1.21865115671962
1.27662368404579
1.21627653728275
1.26583626319034
1.22930146664281
1.27573027495916
1.20408961096583
1.2944778380405
1.20288885505855
1.24884470747363
1.23615922280047
1.17629811920194
1.19332734430473
1.23932921210714
1.20141672721965
1.25696554055287
1.14238840040871
1.20288833825749
1.15659914621576
1.19234634066998
1.14124324148294
1.14498282437635
1.10964354405395
1.12153069471647
1.11703944463962
1.12362757455806
1.07952724400501
1.05860221397114
1.08867667775263
1.14186104926019
1.08237308765366
1.11002162399979
1.07986991606924
1.1039132657891
1.03181002094206
1.12669819009413
1.04189076983643
1.07946970293542
1.05501495684203
1.06158155058703
1.04951182728334
1.05903782460879
1.00827073543792
1.06432165349532
1.01688569025597
1.06213768772955
0.993472333902089
1.04964912293152
1.01410268194822
1.03475292336957
0.95216763969396
1.02617201607377
0.995939930301871
0.980558385068458
0.954219198316967
0.968327090965573
0.982027680585012
0.984704161522645
0.950647391041018
0.93633869947116
0.942086531848369
0.947821896254624
0.921391649668067
0.967351443914319
0.940993009557447
0.917044219499026
0.852495482751108
0.932662264911666
0.881522158724894
0.912061743478347
0.871172137258076
0.895121783568465
0.878150976744132
0.876767531321235
0.848691205976235
0.874351438284673
0.849357310441257
0.844140082401609
0.827150494539591
0.861101992905476
0.857890989992243
0.844632901710161
0.825303233369076
0.830361317884129
0.799955191250619
0.833071464380156
0.804971400156185
0.813459136076781
0.794553157173338
0.830442767604241
0.784577511671154
0.809394043202359
0.77863980599277
0.797520133025668
0.760184717028189
0.763569219632211
0.766535585570204
0.782592874948835
0.740994859638695
0.76906444706077
0.736055247627235
0.75054581914588
0.753944370917065
0.75075502023129
0.716441811842806
0.746027603350262
0.712601745284415
0.72352616662071
0.717324243629553
0.703890914371462
0.698414740663531
0.70662268136026
0.698973667740578
0.71371931138086
0.67346851884231
0.689436523064217
0.680353661053178
0.670392497083112
0.668380220008659
0.672014428584781
0.676605020474103
0.693123913380863
0.66334323742345
0.671224211941832
0.643356129986533
0.650383409540874
0.639511966008143
0.647869016376753
0.644059470553237
0.627028683178235
0.619424145905426
0.625673185955239
0.615357261195606
0.635679848699379
0.603779719179415
0.642571973201501
0.60338855502817
0.60739497551384
0.600923855699418
0.600126890931099
0.59074604709568
0.612241906752663
0.5926821093198
0.593118152609741
0.574212432061298
0.574897736754127
0.572555897212874
0.566669708095401
0.564164634208651
0.564813692073144
0.557070128402974
0.558156342081422
0.565099539421991
0.567711537599498
0.538308668887776
0.559652276598511
0.536100387206202
0.555448280990617
0.535575591486122
0.551819470517854
0.524353367756779
0.541792082370897
0.53866695512289
0.538408794239661
0.515096302364906
0.527080611854233
0.509009998741275
0.523135383665739
0.50272518087976
0.522427077451347
0.500533315814811
0.502739016869177
0.488981174015542
0.510620078805315
0.49188205501282
0.502219337121954
0.493901791555461
0.500907800980298
0.479975010773505
0.494486952111496
0.473396667102261
0.487194975400848
0.474560031770397
0.483521744667579
0.471125788488361
0.470168669795566
0.465917071461332
0.478257612642716
0.462257901456629
0.470847504553185
0.468861489531048
0.468315792119486
0.457737201588242
0.466161938545465
0.445949822262158
0.458805224960042
0.442685473486232
0.462050796714457
0.457240902547829
0.456667060938966
0.446542687932985
0.45820532561545
0.446869260552343
0.456630613861002
0.439932755347301
0.449605926532766
0.440917021999174
0.455481604796667
0.441561296447479
0.45351680409854
0.438401136383023
0.455259519591586
0.442260297447971
0.456769560300972
0.446566442440648
0.459482220143969
0.442427809432342
0.45268140836009
0.452460162207969
0.458428725047692
0.446892613860548
0.456670347930689
0.450197252164012
0.458207401582301
0.45732618378815
0.467690838892309
0.466141931643779
0.47295318010942
0.453648931280094
0.466763974125148
0.461014294878799
0.474925271669365
0.459920668010142
0.47557572044375
0.470912323535748
0.487118569753673
0.469440532849925
0.482839859090733
0.471803523167831
0.49024379883161
0.479591978279611
0.493440194462021
0.501637027352366
0.514476899178107
0.492158276857499
0.514887684559728
0.494807640062724
0.519165378086939
0.499669146248752
0.509226894647579
0.514636222757865
0.52815618485915
0.519419989755363
0.541916241799951
0.521527463188519
0.541553264159824
0.539349900916118
0.560585749995089
0.551824914488969
0.572092332720665
0.55513861251146
0.584216278004896
0.573152237903904
0.600045395699537
0.597115921241766
0.597238892662292
0.590094210896485
0.610853778178097
0.602049157955431
0.627693754158566
0.608936570514153
0.634717698748985
0.618178996784509
0.652412937240799
0.636372984307931
0.649117784733479
0.635505009348536
0.64673673414338
0.651049782875847
0.661548727908119
0.646920749812051
0.667761857836858
0.635738078049005
0.662912000564654
0.643494262529482
0.655343763792996
0.664984628158004
0.669116979777653
0.632599691018143
0.651680795222451
0.639577285548343
0.630297030541256
0.63435005364438
0.640535620714258
0.618944164175435
0.64206482120283
0.638174258024503
0.630951155580858
0.618274773361419
0.634466942446893
0.618219103243534
0.643012723879136
0.620979076645045
0.64698847762313
0.625173850512383
0.63423965451211
0.621907383487881
0.626811962677354
0.608636168142465
0.627648048916443
0.61092441140303
0.632035107479526
0.616685678258031
0.619543291147531
0.617103315735845
0.618826189078587
0.620268852754379
0.633590548576625
0.625928061845737
0.617931327277167
0.614006555194159
0.630359166952928
0.601796665940595
0.626663155375585
0.620284142879233
0.622484285179024
0.60564867971466
0.616899580550561
0.594966425583165
0.618657532320012
0.593078525903021
0.601415552623137
0.580589288699762
0.598832845815408
0.589652812734152
0.596193435865856
0.584180016656538
0.593212486636696
0.573185788330822
0.582616230146254
0.56115543531831
0.583664921646001
0.572029649913624
0.559543847073399
0.550699710898079
0.551343572649994
0.5439373645336
0.543036292326192
0.533137376103307
0.539489853993519
0.527426145352946
0.528888818410089
0.518925622159286
0.524735259460608
0.50806669812516
0.517809027226724
0.50056343581231
0.513637951297106
0.499127192471558
0.494469353739135
0.488878658770169
0.498381934468904
0.482356377319359
0.482016684683562
0.487603373781484
0.473154541982348
0.464376162487267
0.47529650023354
0.4615006998241
0.464224696266469
0.446871321628217
0.459591690733567
0.450132417249197
0.457382303356562
0.443923634549654
0.45271572798611
0.43861298279446
0.435342053659071
0.436209130410891
0.442232471117235
0.433131878090582
0.43794968417148
0.426581481227955
0.42582124784293
0.42677338606415
0.426593590573799
0.419548591334978
0.42349158619085
0.422800775257877
0.420066894151249
0.417148851684676
0.412138005406114
0.404706716655443
0.413694613568232
0.403997310627647
0.411099236124277
0.401322246130803
0.4050594972316
0.395070610831315
0.399244521290634
0.388384722146834
0.398043333802979
0.393673493804748
0.397427858329762
0.376238008817369
0.387949579257594
0.385264025885535
0.385053029790606
0.381377973727415
0.385656523444815
0.38450829439986
0.374526040606441
0.371286283070967
0.380008902190156
0.367834466582646
0.370036006795571
0.372448183002933
0.373398065619337
0.364882115846864
0.368269368403918
0.361442437374963
0.364635896980402
0.358349203929813
0.366899756230775
0.361067523228228
0.361950382827115
0.354464776533
0.360369156019954
0.359567353368848
0.360314377649753
0.355026647384098
0.355730540886641
0.354943105034284
0.354625860032784
0.351443055302927
0.34759438615284
0.346639201176705
0.352067631911955
0.341294722405936
0.346347563171938
0.341722134451567
0.348453219151215
0.340205403944982
0.341024479962099
0.339086262235746
0.349310424981303
0.340683863432487
0.343905276294341
0.336103267529128
0.341017153756347
0.340898857320795
0.335161645221842
0.332834260666011
0.340646599811056
0.330921223314106
0.340876137687868
0.328666920906272
0.335709334607508
0.333101733943405
0.330226571881025
0.325642333197621
0.337001211831861
0.329216728728213
0.327101167079709
0.320038929242516
0.328588955456363
0.32537561588621
0.325559987709174
0.320307566874094
0.331724993629949
0.318010427099012
0.331094274241568
0.317117728555274
0.322196913173516
0.318132104611187
0.321991621356471
0.316645206962123
0.321497835980364
0.307774604081136
0.320667194299784
0.316864155882884
0.318873902476038
0.309451637507328
0.319677040930869
0.310928666406393
0.324034614867463
0.313992345964874
0.315961038677635
0.313203474774807
0.312156932322455
0.312547294814945
0.317239907136748
0.310600809551444
0.31235425896099
0.306717845122355
0.3082137794552
0.308056218107774
0.313692854462112
0.307810684145152
0.313903117303366
0.306210082292695
0.303157595727711
0.304873830061437
0.313600445324521
0.303138388898374
0.30275601372489
0.305580029923665
0.314835323384576
0.301825737526451
0.309130057772912
0.301637665059854
0.306394193959494
0.296804502962904
0.305475030455029
0.2995176660106
0.30610464012326
0.298872268795281
0.297125699546372
0.299035598601807
0.300493229611995
0.29631052674624
0.295223280001808
0.288997053071044
0.302419260611697
0.293728694174969
0.298421567021637
0.289858944030404
0.297276751487702
0.290361028156862
0.294107135246108
0.286728618993555
0.291881587037468
0.285640404623895
0.290988576903226
0.280096020561162
0.289141881822818
0.287907059883752
0.286399596750234
0.28477486579475
0.29021711654201
0.281176558101452
0.286384796593233
0.279567127173316
0.284244291702963
0.279777443636686
0.284890116069749
0.278285059436782
0.2804998859436
0.274198402411846
0.280009823283038
0.274419075808299
0.282878652257645
0.270025372523582
0.27721047630822
0.273213066960386
0.277150776618435
0.268243701302475
0.275130757871381
0.26860473244724
0.27077306293024
0.265696322341858
0.272360642314192
0.269506793319926
0.269271748288398
0.266726420852316
0.271335250094793
0.263601217657516
0.271868371426613
0.266659794447964
0.270108365362401
0.265370085746263
0.267091301904141
0.258985956598684
0.260943154729027
0.257288041387045
0.2606917333937
0.256337658306251
0.264910175913477
0.255074667257581
0.254908107726429
0.25562189462285
0.255964138819455
0.252710693204423
0.255875609716407
0.247270482411207
0.248328658261455
0.247038952531718
0.252712272892805
0.245653298938008
0.248233147810146
0.247699623745731
0.251456405363237
0.24028077289594
0.242678141299015
0.237928235933149
0.240035887690795
0.23506192147081
0.244244532405222
0.236921709156927
0.239484835399942
0.232441122665701
0.237293317616616
0.235319592222639
0.235374528051628
0.236079616696489
0.233519104255225
0.227562428653746
0.234363875211753
0.228162724619622
0.23478526400186
0.225431744955347
0.230965303756457
0.227399454222035
0.228436902259786
0.22574929951059
0.230257094302473
0.222338261060094
0.221171680708679
0.224812141508142
0.227596350718828
0.221210825863496
0.224680739371964
0.224910383342804
0.222500551456118
0.219344618298704
0.22513460307231
0.221056360554549
0.218837070279608
0.215027865820745
0.221915186403252
0.219249764092143
0.217930650101145
0.212710058659921
0.213734263860023
0.210872319594459
0.214946560494897
0.21320916385836
0.212391670792516
0.213240728049013
0.212934914844977
0.209269982764615
0.212255255772059
0.210494441158394
0.215348899612814
0.213359107124265
0.214574251803314
0.210715188320392
0.208591250144796
0.206524833801374
0.208359977341592
0.207075812707357
0.207894567361331
0.208060012567812
0.206438045734271
0.204584961170479
0.208571684124601
0.205321502805397
0.20196910047394
0.201608535638148
0.200537805569366
0.202471580048378
0.205271467812256
0.19750865580255
0.200981081042615
0.200387338535894
0.209519987144299
0.199300235447271
0.198211890149911
0.198575901098441
0.198766930414252
0.198361406984426
0.19835127659781
0.199956391695414
0.201214184439564
0.19865599496276
0.199957872956739
0.196152394717367
0.198272870784564
0.196560590631303
0.199353934062855
0.197453843072258
0.202721169756712
0.197398070317133
0.198124102631006
0.198210736810039
0.199989592613262
0.194937441537917
0.196065659739913
0.193037530713614
0.197460000207828
0.192477544907944
0.195010255132753
0.19234581941206
0.197374990154811
0.191198136513129
0.19342922293776
0.192944436284456
0.191250120919214
0.192821761543543
0.198100240615551
0.189382102155454
0.190231596362041
0.192865917724288
0.19323449748958
0.18742923460691
0.18997618035719
0.188103933461834
0.186764725070862
0.184667603072823
0.186651776651484
0.185340922501587
0.189112762224592
0.187878266173366
0.183474473320661
0.181544813490999
0.187036282910037
0.183031250601417
0.184987954476516
0.179777603533641
0.182049964037848
0.181631180084334
0.183000331942343
0.181888685319093
0.18417963341741
0.179706853157748
0.184384648379388
0.183170511242317
0.183834888462471
0.178314478675289
0.183313211967232
0.177785515817646
0.179400812878691
0.178786448004888
0.178008560765426
0.179096897732318
0.181294045895028
0.179959013101255
0.179875079199805
0.17772973332485
0.178846426908921
0.175300145152921
0.177117016278013
0.177316011918282
0.179572477685737
0.178218284181776
0.175399350007
0.178363983944424
0.179616609068368
0.175425225096531
0.177806643333837
0.174877234851344
0.179544124655832
0.17498480135418
0.175066479291988
0.173540765258008
0.174117249657743
0.176646387820998
0.173945865907771
0.172118942126923
0.169051424842695
0.169961366162905
0.172994663435044
0.175228095127182
0.171830513083541
0.172993444900101
0.171528735732881
0.171155630973214
0.171258202284411
0.1678435744035
0.169115065434803
0.166556067415355
0.168236922909057
0.165627386339454
0.165842017114439
0.168377687831192
0.165474464320515
0.161298767740556
0.16306704139787
0.163139984250736
0.161863631602932
0.161231635139082
0.161678622181331
0.163070147099674
0.158745126207844
0.161522009678084
0.164251190573199
0.160228182689473
0.160158859858236
0.157581792966921
0.157780112975979
0.160052351871644
0.158680876550196
0.158304092063559
0.157514150269505
0.155969871994789
0.155215338376266
0.154367606708977
0.157546056454112
0.156664040234794
0.156136207742137
0.153457393729581
0.152695462275731
0.153929789020568
0.154327511180212
0.153198543409302
0.155379363600723
0.154688299655633
0.150142105673788
0.148806878150133
0.151240051204435
0.150755775356326
0.150043311016904
0.1524204495912
0.14856872595265
0.149778468200565
0.149461169488347
0.145651698542621
0.144207575121167
0.145121735495511
0.146320954379302
0.144565585244064
0.145013467477417
0.147699136450403
0.146143985928768
0.140866668789973
0.141868658651998
0.14460902880358
0.142882182494644
0.13912860425847
0.140204192797954
0.141206641116366
0.13986022491637
0.137715512934217
0.138571204659353
0.136559661620881
0.138447715673507
0.139114516585588
0.137340389832443
0.134696073470605
0.134365219718555
0.136216135662498
0.132860055254736
0.136538101835238
0.136154540205206
0.134923881737872
0.131548290670641
0.13474275321609
0.132722436012432
0.129398019573747
0.133146004277046
0.133876896375805
0.132452793542867
0.132898860011024
0.132594575117982
0.131575507588002
0.131966664413134
0.134378370727541
0.132649326289145
0.130126418245917
0.129711240096136
0.130405482243801
0.129016899996788
0.130966224258163
0.130118793825197
0.127554635675239
0.130130963887451
0.131886328253343
0.128222371862594
0.132354145345353
0.130731190436619
0.129648723190137
0.127152886884466
0.1299578416344
0.1251316660635
0.126805974963783
0.12614400192865
0.122304172418197
0.11974318403814
0.117827176827267
0.111303660381134
0.115632557055187
0.117359582445141
0.124171417279621
0.121489186538915
0.112295496805027
0.100210090116521
0.111388306411177
0.112813006866496
0.107662577500116
0.10844166808856
0.114957067631201
0.105153527682094
0.116663520850306
0.108959436690318
0.110776904622694
0.110712119219673
0.113041570800509
0.108640074172667
0.111574532840447
0.114155884863961
0.124917635785968
0.116318295452008
0.125969330782583
0.11483138615412
0.11955856883122
0.104990533684259
0.118640794757062
0.105730469654743
0.114206621866141
0.108171749977991
0.114857623550571
0.103769921100714
0.112106115965983
0.103127748202265
0.116226910388688
0.100992110229088
0.109316156728453
0.0970201806953429
0.10827821071252
0.106633505527767
0.117993467936412
0.108929204865818
0.108457837367587
0.100326256955792
0.105095060178934
0.115838137715731
0.116989339038981
0.112150032538336
0.101194101151144
0.118862563499451
0.110603853215663
0.127565161586005
0.0942098853256466
0.130693363838085
0.100045923161747
0.136730412569636
0.0878821181527376
0.139634666851229
0.0977930652278114
0.13298685936459
0.0998171560518245
0.133434014073977
0.103719004951634
0.123417873115585
0.111073488565837
0.117529687868868
0.116684547430563
0.114255621469652
0.114480618677377
0.113452995466694
0.113513516465145
0.11444832565236
0.111554372279865
0.117275926163396
0.109806521143477
0.115712160719636
0.109268500452767
0.116527684605098
0.109413837922457
0.112226762111707
0.111398907974615
0.111253855315536
0.109025120796722
0.115132735067859
0.108873444137455
0.113846916316996
0.1095736818668
0.111394068678226
0.107560544158893
0.111578327697309
0.108148822487025
0.111328680528141
0.110092084921509
0.113302637782337
0.107961091278204
0.110455239242776
0.108363995258191
0.113724838580498
0.111141882867022
0.113133616703098
0.109155162345985
0.112189717391001
0.109523120300349
0.111693982873439
0.110747628012342
0.114427132435445
0.112679099914963
0.113018358407499
0.107734904168852
0.111853413251315
0.110863598864614
0.112087873661496
0.109921730803002
0.11346831335808
0.11153901922837
0.114571145070184
0.112107330618708
0.111752632837303
0.108847362688061
0.111527370400838
0.11156388580067
0.115793864414061
0.108598826229982
0.113813898763659
0.115321626189584
0.111949038716155
0.109006851124814
0.113084275574169
0.111487950584118
0.110709748195866
0.109121534529874
0.111884104014723
0.109686472931685
0.11134489273028
0.11127578795302
0.1121301313632
0.107988956084444
0.109910878064004
0.111689892937162
0.11259425616106
0.11118088744902
0.113197142550377
0.108360963554131
0.109426301501424
0.111780909959912
0.11472528116785
0.111681751680886
0.111194033362129
0.110505489313992
0.11204621029887
0.109587779487571
0.112107645996211
0.111443070128231
0.112489782283335
0.111825131408811
0.111570194131884
0.111188564978488
0.112409173325304
0.110748948219034
0.114676191320872
0.112270043391702
0.112766869965838
0.113041518619992
0.115201875736509
0.112513777980692
0.115933225017741
0.113015844092256
0.113180408453068
0.114848657937174
0.115685386022014
0.11518732993446
0.114692800575581
0.113888350640044
0.114851051792568
0.112704757909809
0.115070573811861
0.114928199813493
0.118144057694651
0.117984587469333
0.118139040557778
0.113273348047115
0.115521966455319
0.117744445274875
0.116885029206448
0.114615493842362
0.11799623384241
0.118049187661233
0.117193876302486
0.116791611087545
0.117554942428254
0.115029918153824
0.118986123086463
0.118326739493213
0.117111433397624
0.117614200160711
0.119051933209541
0.116664600190781
0.117707552012935
0.118007046709857
0.118054063435388
0.117208852810486
0.116389644097109
0.117448929079072
0.120009467854361
0.118950059937813
0.118894795453453
0.116115961490474
0.11996850800994
0.120155927786326
0.119166738810585
0.121183807766459
0.120708563026383
0.119156836778869
0.120211076472944
0.117643109504083
0.117040389469286
0.119452180480681
0.122358552065147
0.119700218517702
0.121420302360644
0.122095707376244
0.122848654726638
0.122556287952853
0.123863469528996
0.123592779313744
0.122284626342769
0.122599390485115
0.121857962453237
0.123385429519349
0.124573264771037
0.120979143635694
0.121842292615905
0.121840172067017
0.123566341652844
0.123089488093043
0.124661438697943
0.123279060498524
0.123890409333265
0.124864304649211
0.124558491136518
0.122685828681155
0.123284086151211
0.122934074209425
0.122583057235767
0.123631110799
0.123896988599862
0.122647287466236
0.119571227391137
0.12044013259373
0.122468893162956
0.122346166983338
0.122637696911424
0.123434172700785
0.121604810508537
0.120739485936882
0.12099494727125
0.120570724103749
0.117126529602104
0.119819461482416
0.120425887254783
0.120139027262862
0.119066357510536
0.11861889504266
0.122160631924168
0.11936150340976
0.117737157376018
0.117155790153264
0.116296183876611
0.117142192774865
0.119177918649787
0.118855116682763
0.118342449239037
0.117044154302391
0.11725415238343
0.118736594967211
0.119295834610736
0.118265662652568
0.116289587329928
0.11679408125281
0.118284457776724
0.11703503242599
0.117124798614248
0.118623659040692
0.115748399089859
0.116482159071187
0.117703824096389
0.118903817629044
0.117000543368021
0.117279702254352
0.116531710216323
0.114178286829146
0.117052501610096
0.117328368183029
0.11579202620957
0.117800680249922
0.116486194131821
0.115818882941022
0.116060155005326
0.11740999124024
0.115262271786516
0.116486718137322
0.116293608419273
0.11580218959104
0.114642707264536
0.11574139747042
0.116039984746551
0.114353864438672
0.11705741959763
0.115437541794352
0.113293891736365
0.11394269870141
0.114245538271509
0.112736685633098
0.11476627133919
0.114268985658567
0.113458994630098
0.114450861048948
0.110893670040965
0.112985143624636
0.113745052354202
0.112394137356798
0.112063914286215
0.113191880621964
0.112398496272146
0.112063392603375
0.114215941090424
0.11486385092995
0.114519619886113
0.11374961543091
0.112081908505403
0.113765401623001
0.113378723240966
0.112346248130516
0.109705963815139
0.110330166368703
0.113453605751458
0.112747974205089
0.112005290292538
0.112092441746251
0.111959035916453
0.111041532164711
0.112824038226176
0.113440084938401
0.109474977201577
0.10849134310396
0.109996325099947
0.110042721617979
0.107992631696079
0.109966877457043
0.108980273855919
0.109865953730247
0.107540357925139
0.111232478891355
0.11043257512963
0.107863255609975
0.109128161676492
0.109303730141219
0.106711889107243
0.10731103191886
0.107918088001043
0.109016884998825
0.105081624207612
0.105234122291342
0.10541480158321
0.104767966912093
0.104108793124824
0.104979902249178
0.10154356174945
0.105081869977523
0.102883656267598
0.101839421021252
0.104598558190896
0.101076580430347
0.0990946271338205
0.1032557847197
0.100460642856927
0.0997245847965785
0.101466699648449
0.10177057461423
0.104116143048165
0.101055207040386
0.0974577099076173
0.0973651601108665
0.0963876147289511
0.0983741674778439
0.0948983774700838
0.096168045895901
0.0953881629778135
0.0955748105506587
0.0966775117324053
0.0945173014633065
0.0947883266862956
0.0934531645816521
0.093152125697602
0.0942871682417192
0.0926889956487134
0.0920810618072187
0.0901213807918749
0.0924597949158073
0.0901028713221632
0.0896964483871801
0.0928281172650472
0.0916553926451469
0.0907349396832162
0.0874280287403644
0.103217084808653
0.105253731946104
0.0924067061641623
0.0945714269248465
0.0958822291698126
0.0953358972940469
0.090698767700445
0.0932524815809969
0.0887125706046949
0.0883272579388801
0.0905458917685152
0.0916580822084891
0.0889026700909679
0.0870832436854056
0.0881420874089602
0.0909696925467857
0.0891127528157107
0.0907908652353877
0.0904049956001191
0.0882882264375988
0.0874873200248873
0.088013844424807
0.0880910299626308
0.0880466009373062
0.0882715243222501
0.0891464433078895
0.0892605284484619
0.0974109774521973
0.0949426452594504
0.0911910370136951
0.086681285834344
0.0867755303020926
0.0858600009291742
0.0873687423422501
0.0861849546981996
0.0862444755264401
0.0864693229047563
0.087075210686118
0.0847548801989152
0.0865982211143384
0.0877663199193025
0.0877659241925064
0.0863691602897213
0.0870305773836321
0.0835002052268798
0.0869978769149458
0.0831722291177029
0.0849169302424185
0.0842852405087616
0.0863777976498654
0.0851385499196073
0.0900130982562528
0.0800898208241513
0.0968094979642507
0.104407792087276
0.0920791567256648
0.0853278346171115
0.0842105043170163
0.0835514610754976
0.0834093306175104
0.0835332376659382
0.0843266290001767
0.0838205199949251
0.0828778926825235
0.0837087087014419
0.0829311110507351
0.083267789796855
0.0839653724203943
0.0831002559604999
0.0825948685075095
0.0810047194719191
0.0832933284685959
0.0830107089077237
0.0796487301377071
0.0897815896677809
0.101527169121917
0.0863897906925317
0.0883484130930838
0.0825434140689838
0.0834059596262387
0.110685150917856
0.0908277848648723
0.0852768360720098
0.0838495045610847
0.0835875123823766
0.0775754293486215
0.0852834208733177
0.0776225048865961
0.0840738205541416
0.0868057692325849
0.0859542685838522
0.0875903917194327
0.082443499461379
0.0805037401673307
0.0798855686863457
0.0804752865226082
0.0796116699710617
0.0806908653412023
0.0806786138923377
0.0785864775048062
0.0806264671321671
0.0773372895062596
0.0808720158484556
0.0774668755715877
0.0872041703808924
0.0853319615412417
0.0818500250469874
0.0783905020210676
0.0813053276778955
0.0747446831553799
0.0919300072394881
0.0974519570701211
0.0795236370517353
0.0796215544378858
0.0777976003944052
0.0812272701681327
0.0807400960021475
0.0810431116362254
0.0771051090677459
0.080040805887928
0.0761351663200552
0.0812599479838077
0.0780449747797555
0.0779267479984679
0.0737947355765651
0.0814715558129115
0.0758850653513384
0.0790035402952137
0.0786534738393414
0.0803224493242216
0.0799009485376033
0.0805734453916979
0.10461500097223
0.102380572060636
0.0995029200943499
0.0928552235945571
0.084442645145464
0.0758528727035041
0.0799532229438219
0.0768037422908316
0.0788297672168048
0.0813620358041865
0.0806899301377631
0.0787824873140281
0.0827185542396106
0.0779304791093195
0.0773626204542389
0.0788198837080859
0.0788709276291764
0.0765696062014977
0.0766622232612217
0.0783670667971915
0.0767590956612153
0.0783642567647128
0.0730071251250694
0.091070749825312
0.0846207742664123
0.0842214059753956
0.0692424726490206
0.127083424124581
0.0976206506140533
0.0918984798196715
0.0798651922755516
0.079478660589043
0.0760778555625904
0.0749977923226506
0.0775344546684974
0.0879618506643586
0.0778308484915061
0.0799698822755134
0.0752726621094251
0.0822107360688225
0.0794876349643
0.0748694392400467
0.0970858519304044
0.117755725274772
0.0896537873651757
0.0866726883606923
0.0666576273664751
0.101979157106551
0.107659974319273
0.0821939365097967
0.0845127062227332
0.0813842699257845
0.0801868155108852
0.0777356848987535
0.0783060097100685
0.0790213313391407
0.0870368484054019
0.0783638190899632
0.0782547895273294
0.0795749189157857
0.07873485739425
0.0841270959059961
0.081279641672895
0.0972727309683272
0.0930346309156826
0.0815427349232593
0.0902358315837098
0.0847647089409316
0.0811552632977802
0.0798544475060274
0.0826537719934955
0.0797053741960628
0.0953957844867148
0.0954062112507438
0.0900751093532608
0.103589227832474
0.0978317527593511
0.0835138200745514
0.090273163924154
0.0936388877481547
0.0996736156362001
0.0699571663907857
0.115464295709404
0.106454384340267
0.114787372594989
0.106975210133066
0.0886160272284146
0.0877868336112261
0.0859531885078177
0.0828269836763258
0.0842756864938403
0.115789722889803
0.0794055186070577
0.0954580646963634
0.0730401888967636
0.113665718240275
0.0964001125789679
0.0997636497501358
0.0870693507955807
0.0897402303393237
0.0845465122175642
0.119220586995171
0.0866514784970991
0.0979282829231463
0.12353081025781
0.124400595752036
0.131797976883724
0.0935421384494288
0.0980725890172335
0.133832957547496
0.0955940700379805
0.101990445984514
0.085379375019912
0.101723726452336
0.080237863913512
0.114750570934161
0.134824781694518
0.100000587233849
0.0988496020335077
0.10152743239555
0.0984589903028967
0.13485476464605
0.107545061800384
0.106810220256697
0.0996315657891254
0.109383809585329
0.089667889179683
0.179808961196597
0.102829871052423
0.146310938625697
0.125121064703647
0.140626936270217
0.12422376704557
0.1253735855069
0.107541349197916
0.138609222061153
0.135537640525132
0.123104031233005
0.0994634606147764
0.1556963555748
0.134388381243471
0.123540591712023
0.126099330277906
0.120749585120761
0.121798453888909
0.177055533523721
0.195708774276835
0.172939159997548
0.132939393798361
0.140863571830065
0.166636881400648
0.139391248101571
0.138688352396866
0.134024074165173
0.134745558486334
0.138456531561267
0.137350699715121
0.158321436803498
0.137932278278879
0.156135389630504
0.137994609686169
0.157487830746427
0.172845668397815
0.235573979683988
0.192649989942286
0.170703379315565
0.205543540137246
0.182199454224618
0.179492271740095
0.157242063161624
0.163389323428047
0.174483346288733
0.169960383914331
0.166698891301527
0.161854443843032
0.210210988483879
0.17564437333368
0.211659713384174
0.193935019658075
0.186637117935811
0.180059370841783
0.202258074977668
0.405801371184912
0.207664610805147
0.228782807856823
0.184174295012692
0.246386504589008
0.270361539083078
0.22207244377471
0.201847551637348
0.202989732716817
0.197413415169181
0.214511347570765
0.218529575363401
0.229809243156473
0.24129016976591
0.228200180177831
0.21701990809674
0.276823847900914
0.325408698907601
0.330926935089673
0.264859284179158
0.257586250748932
0.277772832615758
0.280021041631986
0.252562430636371
0.280298180589448
0.24723137762586
0.303447560022806
0.325458783858324
0.3005642250424
0.288483534698052
0.29440135512265
0.336309899833383
0.286575449846324
0.400536384187932
0.333786576179963
0.347355175137865
0.303469699253768
0.332698553604843
0.317603697624632
0.336375280105687
0.376786833303345
0.362873144314611
0.351259694055266
0.35472128319496
0.354186760106714
0.359160639130375
0.358774676358153
0.371436442262177
0.360423191547925
0.421179548259234
0.417955655273489
0.635672287174032
0.406742511694779
0.416332539463026
0.3739912335156
0.398687916403188
0.432386433715048
0.418675995736823
0.464075318023663
0.423822365319064
0.39435843653946
0.392004824815282
0.398040768614282
0.394105993941927
0.387873192368507
0.404555173619728
0.373329692331139
0.455291511369721
0.375599598805562
0.496426398270606
0.441602945732043
0.422678823933996
0.379851318316504
0.40137032353409
0.375952468565619
0.398994400287823
0.365806758178622
0.406507375252153
0.40048160856863
0.382233874177102
0.374332927596538
0.363430471374559
0.40849330025746
0.397442583047264
0.35899209159831
0.362778848492075
0.350247972058387
0.363670188748618
0.320506320392054
0.376865099174042
0.39122502811997
0.347891361213759
0.341908552140548
0.33151114202053
0.327660443882554
0.326498258865733
0.314957320639536
0.333547091340382
0.316685691406199
0.318226321374336
0.31847127106459
0.309276994809052
0.307960311336213
0.303469917100515
0.310715195096817
0.298213326499301
0.302575405576922
0.299246815443865
0.291843051001225
0.290849963433259
0.285117338531052
0.292350081283949
0.284549571698865
0.296465144188175
0.289105561672063
0.278413452694531
0.283835659320975
0.276300388596478
0.275811336611459
0.272241873001704
0.274078979959262
0.269928353622066
0.263368597331287
0.266148212479127
0.264904712577445
0.264154426135443
0.26272235392141
0.26047242114711
0.255890432727531
0.256349926115556
0.258370350196597
0.261820014886233
0.242691276513885
0.348163911819917
0.272053611872157
0.266701219227993
0.240793631116211
0.254083273452863
0.240557565360919
0.23790642153592
0.30765946062683
0.271374006008828
0.247879011993032
0.237571655814144
0.228672137856339
0.26286831853393
0.23784300085493
0.232540237259486
0.241044222793469
0.210573735030157
0.321248253550095
0.274752686592066
0.395490682509733
0.311956168152817
0.262483634104611
0.214462124283006
0.263865954786579
0.263752644244713
0.222802148124379
0.226969210783504
0.202674216790088
0.29078935914775
0.229308191671693
0.223952399515982
0.211381753157741
0.20507543093453
0.252803429516882
0.254225906153884
0.223631659545186
0.269271711626079
0.253185748649144
0.238190041272685
0.275759196996734
0.306977166038043
0.255097146522663
0.209758412789935
0.218721654570269
0.200970277022713
0.222551540531099
0.283349468299169
0.215874754078987
0.238913313591048
0.187815327872661
0.2144384130502
0.202262119960224
0.243877813489043
0.20895690249787
0.231234120038965
0.259467854203858
0.198420289982775
0.243010885949915
0.217272457913512
0.288388779504841
0.265637027046076
0.233043985255311
0.194740411306106
0.271974593750987
0.254785433501136
0.228350104638929
0.238137364528578
0.194916360930085
0.220731584524264
0.235673706088384
0.203598219537914
0.245964210168216
0.235271535492949
0.256866764124063
0.301577679170573
0.31527348774195
0.287980012543673
0.233762240877164
0.213097554714657
0.212782944577301
0.222631912426922
0.232771792937908
0.2032391520199
0.285338180340832
0.220747125309214
0.238905646018098
0.289108394912794
0.238413211274419
0.235985547294626
0.236811600950074
0.231991491313533
0.254658451905319
0.283904525205766
0.319892331568622
0.267140465418823
0.28946802134903
0.290121204165353
0.271778371308637
0.275763789971279
0.275457813350348
0.283205609114298
0.283542082224119
0.312429385185677
0.297631904193113
0.304390848616113
0.313062561482372
0.306441892698871
0.370125405036114
0.365603031889208
0.334291527841335
0.401689377906779
0.371623603322435
0.46456380512904
0.38451199838516
0.393851740263067
0.390173390387201
0.4017067812261
0.410271682540312
0.398874772852179
0.4414814858024
0.477323444839457
0.430750876406764
0.454527578073252
0.439187430883272
0.465403177355894
0.456972280445053
0.532233537497043
0.471425235658735
0.600969300222887
0.524940534213578
0.534923575149934
0.489290369075766
0.488316935359631
0.509261183865761
0.498582579439351
0.497480880753279
0.493873350092268
0.502824807660839
0.544285452747008
0.498629375254195
0.510164746250987
0.491695411823387
0.513303878002721
0.504364800603754
0.514525047370247
0.51515325035946
0.512377157111852
0.523694154745546
0.521301414372297
0.520847453239875
0.654816658915625
0.543782828284664
0.554435962243985
0.529588044481594
0.565629901953788
0.548074124095861
0.552650336397325
0.589571121139311
0.580380561869757
0.556723161385428
0.57417891759325
0.56373150564451
0.5803457156514
0.581531245927462
0.62449907474736
0.564022399020552
0.608679527011846
0.548748175938853
0.667566727051831
0.639479527205894
0.631466535560216
0.60668537859626
0.596406914747657
0.59420435268136
0.595199354424174
0.593080520452657
0.604924649789235
0.60565277582435
0.598581323474235
0.600803378697665
0.599237172874192
0.59769041278506
0.59760231330745
0.59016922312592
0.609809493444172
0.589482671930373
0.58865613639819
0.577333485289159
0.578050099850756
0.561888099514743
0.622530091341785
0.59276740662739
0.586636322786689
0.57054528527985
0.581031690486045
0.599551328777907
0.583350993713409
0.551394587553649
0.569962169056061
0.560920634395478
0.577257276917482
0.556336069284546
0.590239821758263
0.615015620275477
0.591127795311788
0.57931005471167
0.579706829919226
0.588070555667609
0.59911947304428
0.598369351240649
0.603817956232463
0.610157833895216
0.613742257250937
0.628997113563806
0.614501562459488
0.628204850942322
0.637196240962726
0.656106061297081
0.654630615844652
0.623889060718945
0.643682901892558
0.631435865845768
0.649575443708695
0.652612283553223
0.646473497066765
0.629269137409361
0.65770545310138
0.63677695030523
0.654180862834489
0.688784345810795
0.653928993776102
0.660874701496766
0.631870166536552
0.634822607038263
0.63896854127422
0.635681550522871
0.623770320720539
0.630380811058255
0.629732370653129
0.614994228042079
0.627676871720837
0.622024201713564
0.62113347168872
0.608894401591517
0.614647519594283
0.615581448523504
0.601599910585021
0.6119518412131
0.613850186453214
0.606499669909113
0.603744813407703
0.602985359365018
0.602587548089094
0.626661519970597
0.632115968391269
0.639194496875842
0.606684386020072
0.613779166997129
0.612986102884476
0.60231741766092
0.607596211317319
0.592497800202839
0.601940787396819
0.600524171251262
0.602857575303259
0.589083707672436
0.591857304562577
0.590854336757618
0.59294661959796
0.581978431645936
0.586467365668798
0.577405101788544
0.583325757086085
0.574565612511432
0.575742457618291
0.570479940974135
0.583903720769484
0.566418921758329
0.571830478237375
0.561501617443801
0.559939374404923
0.553697136707666
0.561278044695064
0.55800456945752
0.556044700438284
0.555309216881043
0.548061269993867
0.542734411331327
0.551370726667456
0.549513307035846
0.545032532200196
0.545778978814834
0.543833114565228
0.535676865989589
0.533271580143165
0.534662090207125
0.533842246747071
0.525266614917373
0.523620452115996
0.522475538125408
0.517823371928364
0.50794200574213
0.505342775446417
0.500160639714462
0.506958884762754
0.492747959823747
0.498505931215522
0.493458184110312
0.487993892374749
0.484174718145287
0.486017409265208
0.477795768392374
0.48057960525556
0.470421370925357
0.473604099229478
0.470906714712862
0.47124332945372
0.464134979626671
0.472461240172991
0.466540279010599
0.470346363084574
0.465434920366698
0.469817390642068
0.470268630374347
0.472895830602466
0.470053808238017
0.47110796104676
0.472520009755936
0.475438906368902
0.475819655440313
0.481592203526201
0.484985694887923
0.484159819312288
0.485163500167854
0.490219859971766
0.488009734327732
0.493855211267095
0.491800670296345
0.494169952486859
0.495810050634048
0.496988530055473
0.493092640676945
0.496269645080723
0.4941069879786
0.497284473284774
0.495243200249575
0.49522668060033
0.491092809333123
0.494895975773621
0.487846873082319
0.49816536274982
0.491875460269738
0.495854588744704
0.494258790742231
0.49044196412392
0.49321446206502
0.492847390989762
0.490960813101029
0.49239737613935
0.488435014733897
0.485856714208838
0.485670897132243
0.489849005426972
0.483132478745203
0.484341954061505
0.480476339839062
0.48323429209431
0.483296354013344
0.480426371160303
0.4743094326912
0.474714600259708
0.471147913035622
0.471996367082451
0.467683380695663
0.466821653403383
0.462789234371426
0.458077131407125
0.45869576847471
0.451403990847495
0.446363329347917
0.447397535837844
0.441177342699168
0.439028974570912
0.436049325545999
0.431284537137227
0.426046035715047
0.428612078699658
0.424212109927982
0.424635822166881
0.420574179857169
0.420810466026039
0.422455613075248
0.418212642048372
0.417075670699411
0.419788371788877
0.418652096506923
0.419994366221906
0.416461973133848
0.420872640672255
0.420216493309643
0.420118690322125
0.420300883290062
0.420888161065726
0.41958150747245
0.417630255476608
0.416157604306801
0.410972402444848
0.408813265328094
0.401009190601011
0.397167874978803
0.392688135901995
0.382732338168499
0.382010137467757
0.373759333944532
0.369523972924485
0.364361662977876
0.359504090994898
0.35407467648214
0.353519519323011
0.348016795890295
0.345599946521265
0.34483129103681
0.347222931173987
0.349818526318293
0.354106842740188
0.359371749620044
0.366257132966341
0.37221819133717
0.379789537537608
0.387605646721266
0.401656093647295
0.40969494633914
0.427602476247226
0.444286724323546
0.462367275843137
0.475895998323333
0.497035886180413
0.512646868344325
0.539151367411168
0.564112735560976
0.586784222243661
0.616618741749007
0.645221734139044
0.672189504226445
0.702675294275416
0.735553546952158
0.757892013882922
0.788302337138729
0.820716782198172
0.850925595332679
0.88466865756829
0.909176918551039
0.938119439427205
0.953573657113783
0.98561882272536
0.98753730159674
1.00864300315216
1.01604512978011
1.0315113914693
1.04138390046971
1.03722932164721
1.04142041771724
1.03841515413738
1.01581415976182
1.02746378841585
1.01489687843954
1.00148907536368
0.99470689533333
0.987849636302233
0.976148221705514
0.964263438269807
0.949783460022329
0.931112300017671
0.930069126222066
0.93119088066711
0.92191248825207
0.92186385625267
0.921214975140121
0.91801401449808
0.927538730940951
0.924849549665972
0.942799397391722
0.943133812813699
0.936773682955788
0.954050835056814
0.968715721560718
0.971157339244533
0.980299606040872
0.995132512622147
1.0024808439759
1.00542764055814
1.021706731947
1.03140025285621
1.03375386727261
1.0437013936333
1.0396491611422
1.06243367080391
1.06561275490039
1.05760998124471
1.08913244889632
1.08595683365451
1.07764577984601
1.08413398613279
1.10272603605252
1.0865136087585
1.08894168971476
1.10230228044917
1.10657674927515
1.12537562677067
1.12200459708479
1.12089405739903
1.12472477881884
1.11845827967749
1.14194065630194
1.13032034198932
1.14377720640361
1.15707656358528
1.16619147717863
1.14389559811685
1.17231408501891
1.15862664414918
1.17957829852044
1.22030717446267
1.21303731576674
1.24277199237144
1.27230400887095
1.3062057280072
1.30606886918741
1.37811026095294
1.40381480288086
1.44642071351855
1.49804634140321
1.54195854607501
1.52552117952359
1.53552339069914
1.57361034900153
1.6374496309408
1.65668870852828
1.6868379896437
1.61046543273249
1.58080977454477
1.70125611958778
1.68453256009946
1.64653320706758
1.62204357551659
1.58336158807968
1.52582314369306
1.65299066763753
1.61451872202821
1.51863613127111
1.52170466328503
1.50797213023092
1.56052328251048
1.63881863150025
1.55961858252275
1.60775560871184
1.62509932907239
1.59747085285885
1.64222183617325
1.61272650030749
1.69865749377007
1.71770650209904
1.66971505941424
1.71077990378837
1.7107054354993
1.80576113898888
1.85562713057029
1.81036959295376
1.8444865113135
1.96121069885883
1.82767484412068
1.99484191644327
2.14008114394121
2.18601249052853
1.83799640093811
2.07062350477708
2.1719349548218
2.07098267712114
2.11872306889645
2.10644094732749
2.32008335910376
2.55756782621489
2.04758930832227
2.06106741340398
2.29563327546734
2.5684941532265
2.06690807460231
2.62687158997627
2.32833527915129
2.6855106858983
2.22626927264126
2.47654006331181
2.15080986988104
3.27274172924705
2.32461746199036
2.37957991788705
5
2.67869943391411
2.20012633950672
5
5
2.37867747915872
2.21148794760206
2.27398835550132
2.43194181571523
2.36816505692883
3.05135550551801
3.40428180411289
2.18058686053732
2.86846975432953
2.46288302236439
2.68683375996331
2.35365788587553
3.03390795843954
1.98470749107647
2.28907454339271
2.31390487633394
2.13321410155295
2.44417347525228
2.45488825721639
2.32014628683085
2.16117667372017
1.97664748580998
1.90641918011834
1.90004371859992
1.81123103241168
2.23999705714104
2.20878255508132
1.79911793557359
2.02335957806696
1.8589036714034
1.8025727463493
1.80731130973668
1.79355470180782
1.73419933439859
1.76291475804961
1.68047087434476
1.61908403493536
1.60286320011235
1.5113002959607
1.42730500111485
1.44576984776976
1.28373900107683
1.26113935857399
1.23504758486602
1.18764615948307
1.13432756822402
1.0921795398109
1.01938701013307
0.968204200157056
0.946749958199277
0.920186754161714
0.871103998501628
0.848419758755221
0.817987272251866
0.779695662774786
0.743591331022185
0.727379666919776
0.697649834245357
0.677049309086511
0.662767215375833
0.657582034911884
0.648912642949654
0.635454760259939
0.614247895795651
0.610957642435486
0.601337415938563
0.591217218318034
0.590141532195901
0.593002412901948
0.584842950280896
0.589111121753781
0.587089412550095
0.601049243256759
0.599990650581708
0.60353361811408
0.612912487274231
0.616759318066285
0.625134393591687
0.636450359691154
0.637057377177785
0.650313849849085
0.664846929101218
0.672018263328681
0.678682092906937
0.688773547350454
0.693801324120117
0.690895655527658
0.693876346251206
0.69097263016142
0.693938070031495
0.691257476949318
0.682891206741074
0.698852509792073
0.707270675457192
0.697712245522951
0.696434218578785
0.708567103218434
0.704943573127393
0.703069381236639
0.708529098464336
0.706983911244365
0.686710073617689
0.696085825295669
0.691458513035114
0.701050046835904
0.689991972451927
0.684806483803225
0.67963132905586
0.664042854449051
0.653410907037899
0.647113846330691
0.633695186411216
0.627764849503329
0.634710678880219
0.644759268484571
0.636550232499029
0.629608764312615
0.628575560464923
0.633034380371496
0.621233839642836
0.627236191030753
0.632953745704745
0.626075451685969
0.632370700234149
0.63532879264378
0.637124802630075
0.646064691530747
0.647152797834546
0.666776464291169
0.670610160249262
0.675188148927305
0.673019650142975
0.678173279638535
0.65206135196269
0.670727974858934
0.659552435889403
0.638073927218669
0.63492103036581
0.626012578137601
0.617356694017031
0.607539372524376
0.586031620279316
0.580894275715639
0.573179066006091
0.577117974768306
0.576166046092869
0.579051006528376
0.569957944496213
0.564758141352294
0.576495079049752
0.587585207849984
0.575390374221688
0.594766687015938
0.593107781604318
0.588938752964472
0.59499132488319
0.597974016590249
0.597219356341511
0.596855240594968
0.595150184386834
0.61365263004881
0.609750794823145
0.625486385598126
0.615038084319394
0.626433926756376
0.626743469087675
0.625576663100778
0.616226303798032
0.601033645848274
0.612823949767726
0.64345182973901
0.64616991990925
0.62280032603805
0.623081947221746
0.631980090206929
0.624785257826006
0.635334657225784
0.630908736093508
0.632265883237805
0.59858868482447
0.622460496460112
0.636475154314529
0.626165683436415
0.62199819419213
0.629753079264591
0.61734721696342
0.608266590368164
0.603549639080664
0.60652481508248
0.598985017912364
0.585443433180805
0.591146579920508
0.600658475458492
0.593762478448458
0.573026113432414
0.567296355050517
0.585121114364973
0.540448694945354
0.545438244387425
0.557462291397006
0.548322991972996
0.526976189091063
0.544548714414896
0.54396097111228
0.541337547797276
0.537887172401547
0.546802831611703
0.528219638197761
0.538897303446644
0.545302345072427
0.534926957721672
0.534828120803619
0.550388713754532
0.527808171890638
0.548305011990535
0.539426394292448
0.544046983304602
0.553840148875794
0.541205755899993
0.525620575916293
0.568230760736482
0.559968053998562
0.556265529312253
0.580729959062319
0.565035797172374
0.563598634073375
0.600016764575734
0.586884560629466
0.595554497763221
0.582096655226404
0.603726060289019
0.617985663903021
0.626015379892241
0.621627159484765
0.618258726088833
0.632209278563595
0.671068236814451
0.685136207772983
0.674829524962795
0.651355049694874
0.684391614002162
0.70267011395215
0.740537861726713
0.758657109707409
0.766598566425738
0.764995868194724
0.76411736369678
0.750309587925822
0.792149496824313
0.793985042610136
0.802982903041591
0.839797588596649
0.824941700240003
0.81358591057115
0.838101020469428
0.829721306459688
0.792578000642719
0.823888277368908
0.832081231678083
0.741580316013803
0.779157036913852
0.852809928285501
0.866340497745983
0.778248291314938
0.815191103737379
0.867563060819065
0.88448684848755
0.896860138415617
0.863090544781438
0.929092015898047
0.962496289397695
0.85225399509733
0.843394579238977
0.799667007196019
0.813406817108167
0.865681240440012
0.928753867328035
0.930746440041223
0.860985662576286
0.857074169287591
0.863887397671844
0.826168465443525
0.892388563222078
0.898600259205178
0.861399847781257
0.806352156641765
0.832126043048792
0.858777722258278
0.815519254488382
0.769803536250232
0.786124579469432
0.77353001872996
0.809756613350628
0.831786437979497
0.833942155458649
0.817330143705596
0.853068496205824
0.858198819528816
0.828346286856571
0.827433213628389
0.735837335797284
0.742884626110558
0.845235030499602
0.824830614690432
0.799792270720485
0.773367255223151
0.827379137071434
0.922318427856875
0.810864572041952
0.783551815926906
0.809144159503833
0.812594487602769
0.763997802867045
0.794077740404009
0.806020710273575
0.862564169009713
0.972691785117936
0.857587730723182
0.917748926029577
0.93247229534971
0.88880313527239
0.968782976837327
0.912099400181125
0.846919063955254
1.00888892857465
1.08932376353507
0.95315186821119
0.929057932021326
0.977705130341341
0.922621300555085
0.966059661838015
1.2327905868981
1.04060011536785
0.988548538318965
1.11138306052342
1.16561889212954
1.37385926685258
1.33258422035086
1.03129765074931
0.937943714632651
0.935039946899956
0.92039536412785
0.964321761423415
1.07351980590122
1.10158110997065
1.0038035322258
1.11572949869383
2.22048466939939
1.04995455587473
1.02904852402861
1.02860233412541
0.805562503086244
0.998404446020092
1.12465294022454
0.918766069312156
0.901743117554335
1.25159678160829
1.3297929135064
1.11335351490841
1.06396125177489
1.25526877192844
1.32747848479124
0.910062913782752
1.05576245556003
1.17701251576022
1.35998671934903
0.976234501700371
0.723626524591993
0.878625483974597
1.18326721598263
0.624936952735244
1.24677528926813
2.01612668727848
5
0.362608265376505
0.665206625395542
5
5
3.9911350001513
1.03203610478348
0.858680653882262
1.06597500095912
1.7207305559283
1.04651503983995
1.27693399331841
1.11860653811713
5
5
0.652339644949294
5
5
1.36136674391769
0.994086816237938
5
