3596
4000.36533379555
650.420452594757
1
2
2
0.062187942171299
0.0517968310239575
0.0617868676565088
0.0541270238064333
0.0676985175857577
0.0476904850522124
0.0635805288107283
0.0560489854544531
0.0596367198393802
0.0560002647044856
0.0651906705077859
0.056832832001353
0.0662684551731771
0.0464540010362271
0.0594147011330249
0.0538808453166583
0.0603371463199099
0.0515872622316193
0.0552539900871493
0.0531826433024697
0.0643936598828571
0.0543119377011571
0.0635406116460267
0.0589474038513812
0.0648346120837369
0.0573330388093591
0.0618314748837294
0.0516138633515483
0.0644507198339001
0.0569155325575559
0.0613599032693609
0.0547250491383715
0.0703889648598391
0.0497823678519341
0.0652988954313044
0.0531574129513124
0.0659866239566749
0.0528099477855872
0.055348194866835
0.0626052786623835
0.0598337570893436
0.052779074151751
0.0705401413884246
0.0545861736730957
0.0647601602308592
0.0539245680918537
0.0711416625892946
0.0516408632210011
0.0617950462005001
0.056922506282659
0.064676098884561
0.0569286237350547
0.0692914766058345
0.0635797703454247
0.0775358108101363
0.0731242206891471
0.0778434955979657
0.054412678911489
0.0636856527049065
0.0498642106221929
0.0806727897068823
0.0724463989650819
0.0678301263345941
0.0446405746245491
0.064078894140197
0.0539457257651555
0.0690097426206334
0.0528578347740618
0.065524553599436
0.0518214457856033
0.0669130886467231
0.0617832953204114
0.0845435294795159
0.0613231519146576
0.0765725463526643
0.0547688760301065
0.0636800560941912
0.0511205718467072
0.0568943476224486
0.0553285852805945
0.0829365915422695
0.0571728225076438
0.0642100858323458
0.0437465918764865
0.0772561658184346
0.0642261609446364
0.0609862784583782
0.0557061306826931
0.0938775001679879
0.0661539989525911
0.0672953720680316
0.0438093313467677
0.0658475222653845
0.0423876980931608
0.0639688863361554
0.0497834344141813
0.0575614592475877
0.0491688061790311
0.0595577984713553
0.0543279063317677
0.0697255123150862
0.0782038511187046
0.0968157966155207
0.0651296848000303
0.105427832864078
0.0716592054371212
0.0693553072219799
0.100609637030266
0.0891443114773079
0.0580738614046586
0.0701193404702428
0.0481610610894023
0.0657360111885533
0.0496105798258297
0.0652116316813306
0.0744766675667749
0.0939331336486081
0.0618676866218525
0.0663327541924956
0.0489336118020191
0.0581091935902232
0.0697631830229649
0.108335521437134
0.0539886530260132
0.0768432226139917
0.0573172566335794
0.0681224920437646
0.0833705709180241
0.0987297224747762
0.0579231802113769
0.054519857918931
0.0488316990117884
0.0549921885892081
0.0584359508019789
0.095588334736249
0.0697419167366207
0.064077011925262
0.0420128880109333
0.0858203971785054
0.110082433649301
0.0850138270915715
0.0526918530544949
0.0497163914856686
0.061250032199656
0.114215482269868
0.06260643651675
0.0597120267021464
0.0709613217613272
0.0753442442227907
0.0489065831695069
0.0587233625303043
0.0473411374970191
0.0747689041147922
0.0527279466167686
0.0401272343094566
0.0876807710044725
0.132368769033676
0.0945518877614309
0.125046680513986
0.0738404529595612
0.0668199908476296
0.0624731449720967
0.0587546750688374
0.0512032294847387
0.0639888000405069
0.0465423636731006
0.0855325802992343
0.0794589028430113
0.0656794474423861
0.0615624365168168
0.0975674057182089
0.0594260066120948
0.06472902877322
0.106314259535773
0.0907539072319282
0.0415191276152108
0.0945921214109686
0.0721449202300956
0.0526387453407121
0.0622470748620554
0.0880973047544432
0.0568372459997083
0.0600387100024089
0.0473227539988916
0.0670763231790274
0.0737050151819903
0.0662170629175646
0.0511641374965576
0.0631301360685764
0.0432616227332569
0.071827690489516
0.101737170793894
0.105854348275466
0.067860509579764
0.0597848688479322
0.0310662698944077
0.0983059798162265
0.0882390062049424
0.0656174132711932
0.0513805407736353
0.0611167453781103
0.0429373312620301
0.0565587256288612
0.0490048385961769
0.0473378984735787
0.0389087505324782
0.100664036665645
0.0778465638049784
0.0538298172694419
0.0513537787190154
0.0584319960760052
0.0475169796956472
0.102521409396766
0.0863562424601736
0.0689801485254631
0.0570072777302987
0.0562999346387819
0.0794005029996411
0.0868748332209948
0.0545440052466198
0.0569767018018147
0.0485255614294194
0.0544426650105923
0.0427173116138638
0.0603067710125551
0.0524971027560787
0.0605014815493324
0.0526196714891035
0.0601846777700066
0.0537803069239604
0.0671146582962757
0.0538832304087058
0.0635324038189487
0.0503409372004349
0.054577948975715
0.0579767002161875
0.0804667128922957
0.0551050649088268
0.0602313221061059
0.0547326408956668
0.0487546027578367
0.043723057512466
0.0544749510714203
0.0552760932668522
0.0526135319141619
0.0529923136671086
0.0893997360943572
0.070543010637843
0.0648298212510338
0.0461026911873855
0.0781948933592918
0.0720134408237971
0.0573988890041965
0.0540909149001946
0.0585900128657356
0.0406064332153338
0.0592981246183146
0.0813271147145681
0.06895590144627
0.0482841966132253
0.0717378003098785
0.054670810076533
0.0640477004203923
0.0429746268271648
0.0711105693195468
0.119828807580948
0.0841016514011073
0.0518200297342133
0.133934793383236
0.0865460404395365
0.0783131860057385
0.0513850829353693
0.0319226579771128
0.138170461027452
0.138704145775418
0.0581447048734176
0.0714048457600664
0.0709910139234077
0.0602369160508326
0.0569043780307858
0.069876059989599
0.0706553539454767
0.109385025456714
0.119048521885831
0.106238435488091
0.0552123772513307
0.0962488428068173
0.0894832464467765
0.0673201678997895
0.0558860313651956
0.0608395406238838
0.054956452383636
0.0844836799845114
0.0701600340147851
0.0863083996450008
0.0569168298601444
0.0806194945093782
0.0794772020260548
0.0775127718320559
0.0492081907480498
0.07696903770236
0.0638606527992553
0.0664624358598029
0.050950228924224
0.0597751169774337
0.0632358235862721
0.0627909665180431
0.0476373928158177
0.128225236296348
0.0823250273039344
0.07444271682459
0.0778335048986896
0.0717806811899971
0.0501030324898592
0.0637644923476728
0.0528923085811618
0.059797653034142
0.0479781133630535
0.0560246187493709
0.077941525828992
0.0721274199602071
0.0475973464946284
0.0549199133106362
0.0410836992863655
0.0620267796484563
0.0515847268763895
0.0565212405979262
0.0489688249144408
0.0600891722029006
0.038966166266429
0.0874147391395302
0.0835062068902237
0.0509049951832872
0.0878198310989342
0.106230270845288
0.0553229489572405
0.0658891662190679
0.0480350806993095
0.0664084093461207
0.060684269669617
0.0579071656778576
0.0530561270469269
0.0681152225373497
0.0758250647702327
0.0808740605599922
0.0531547403472552
0.081390236098492
0.132470025762809
0.134307251022409
0.078240743979629
0.0752777329025175
0.0412947924231457
0.111568817203837
0.0908638034135639
0.103344156733555
0.090870056256688
0.075850520980499
0.0638282705332791
0.0699309015838028
0.0592610068188229
0.0654053710142543
0.0602740061064018
0.0695700426388381
0.0582216981197695
0.0724209390650068
0.0680626085369799
0.0652913619271829
0.0694080588966236
0.115959041752173
0.0793030239518208
0.0718842035778433
0.0703391881505018
0.0685609551316422
0.0905303691334476
0.113697637720553
0.122032279128439
0.12611731691434
0.0995774185789444
0.138930429812163
0.0914032862630922
0.0909834760501866
0.0659352174700626
0.0906753571316509
0.0783137835638824
0.0893695817986222
0.0781473027726464
0.0896432214372271
0.0859535580814889
0.094456838586441
0.077930106960534
0.090250547417943
0.0754245276806206
0.119124553735808
0.0932380599790525
0.105627784781852
0.0808288568753562
0.110455905406354
0.136985000658192
0.160088617920146
0.101773560429262
0.11832676334267
0.0943183304149919
0.103831296913609
0.0932301140893307
0.105885084609945
0.099458191513888
0.115312710153689
0.131834333048163
0.147188811599603
0.122723200211792
0.127671053775559
0.092885375640343
0.143527397618274
0.106216511591967
0.13706387293448
0.13421987032879
0.138943214166025
0.105478000821879
0.162227602322854
0.137835236314908
0.15551711547584
0.143051024077895
0.14098896025239
0.117976929507197
0.135280488603628
0.129259537206548
0.141257464527833
0.145493853167541
0.142910081474822
0.138628266728183
0.150690373981318
0.134182803148368
0.150303900195356
0.15583859058034
0.153279196355932
0.135981534904651
0.166552684418111
0.141175227166095
0.164143982855634
0.141795605683642
0.182365028229234
0.171740388490622
0.210730652118904
0.174515851246848
0.170769575570335
0.14725729508039
0.179796769076491
0.167464570306597
0.173344379199232
0.157703557431414
0.185714374550103
0.17196218462907
0.179090498682946
0.176623482721056
0.192022224763579
0.169809726739455
0.1993281611623
0.178871603557457
0.199826659507327
0.179229859884977
0.210815041199312
0.183492475750095
0.242533279212772
0.231007160762853
0.242845474119126
0.230401844073238
0.224490840250421
0.207119387036478
0.23382839093961
0.203888794341477
0.227566175569608
0.216256299561147
0.238346961913444
0.213394316534623
0.244895621575211
0.221764138378305
0.231174746282092
0.228519163654844
0.248307852438805
0.243104297692576
0.26060680874247
0.228807606653079
0.254793757155305
0.238099939757792
0.255689621039953
0.252939588680582
0.272961938329707
0.263319264512248
0.281462179542895
0.269520854211071
0.275960964456268
0.25662422805995
0.277050926731909
0.256486208820793
0.279573875586738
0.260991907797694
0.31596735440462
0.288519122061713
0.318583310464813
0.273945255046465
0.310312171054866
0.272568291891088
0.311061728395174
0.290274600497814
0.315760422999643
0.314782662354813
0.33660474168962
0.319429946452776
0.344637003899213
0.302230223822468
0.338999870451651
0.324900532249284
0.354137582631215
0.319707237790178
0.350937423429532
0.345604555441495
0.36548593394911
0.325639033204424
0.369580430178158
0.332578942005353
0.359795142155708
0.343839116411274
0.375746573651941
0.340722504637569
0.403592625293294
0.374012352174752
0.38544354541509
0.353265002109076
0.404314252009686
0.362464065807575
0.406120074877277
0.373323725830955
0.419414396279734
0.37052614392813
0.420737355408415
0.383952707637578
0.428599177245192
0.392066300218431
0.424230106667876
0.410860319535255
0.433871717103148
0.409909531820494
0.432135270052535
0.412002540100271
0.458697222166605
0.438538785180425
0.451347565468176
0.439823382544386
0.465231248584299
0.422347622674841
0.464180466080431
0.424035300423665
0.472875721035686
0.439517695528139
0.50006630482742
0.45297937405324
0.493307111875732
0.44127289110996
0.498864267213908
0.456441835801676
0.485302752859309
0.450822734013006
0.488359725924497
0.48088954995396
0.506730315545509
0.496297463912078
0.49816306493876
0.472571495918807
0.496203323952293
0.496450163062131
0.516539994998376
0.515388851094503
0.546719702761321
0.525446239935862
0.534738819721604
0.531996466441057
0.554407608678937
0.508915670765424
0.529587041478525
0.521683654348657
0.579527541959145
0.555204407839889
0.587890111948507
0.545050841213104
0.569728166606915
0.544307073369045
0.579805025555293
0.539507630603421
0.580527830376622
0.547274560164617
0.612077157088543
0.542094638412548
0.597547830334006
0.576918553423608
0.599967062527816
0.565169826088759
0.567170051212868
0.575429397888979
0.622326338953937
0.579920841304237
0.646788867592015
0.594652291069489
0.6127916374829
0.563609677564081
0.631403346691618
0.606521317491684
0.623349810793844
0.591342056864572
0.642934828336406
0.602605476141202
0.624848078601218
0.607502062202309
0.678485338005502
0.599749783221314
0.666469522682766
0.614187407692081
0.660607948628586
0.64034722640107
0.662989253867552
0.612478620179716
0.682351309752272
0.633494313248564
0.69917074900726
0.626881866985811
0.651200311426967
0.620444383637894
0.703279259306149
0.641356658419523
0.696526029594025
0.601312410281783
0.709875827965861
0.648692051198645
0.695210528790185
0.656847371398553
0.72763578521548
0.646402936653307
0.708052308216752
0.638785493621796
0.687606192289911
0.698479357681398
0.692362649779775
0.638753534559038
0.711803854461131
0.675286858830785
0.727504032273484
0.684505523796943
0.745836648579098
0.688146781841203
0.699103899509004
0.689039396112434
0.741224769464318
0.696773091691506
0.735206941088455
0.709054467810966
0.736132522481764
0.70316849570121
0.769837034926424
0.683505370755139
0.749636001298994
0.708867553137273
0.7551862033419
0.735532465860255
0.779793314109606
0.700316521512669
0.767956640784399
0.707537507119735
0.794168740388623
0.691072044429603
0.770298391334788
0.72870061481998
0.781272191692955
0.733055343671826
0.783912384724463
0.714348993799379
0.791034675832141
0.682311841490996
0.778473366664767
0.714074204401861
0.747477912307291
0.741260350274787
0.771388274608832
0.729936345222388
0.781110059195119
0.731866394399249
0.787945095796874
0.727352713948083
0.826642190087868
0.737664550812227
0.792767937488186
0.732632983105889
0.767040435855104
0.726413241509414
0.830681535358477
0.73872746320517
0.760039420113884
0.739910720839147
0.775256083035469
0.742934383923307
0.776036899636892
0.749638440988842
0.785464348745556
0.752136732539357
0.783449568632474
0.724946079510004
0.764773036049362
0.739945497421579
0.818446459894421
0.749099976446614
0.801155347669676
0.746743792129706
0.79558239684863
0.790576320242873
0.830406999665178
0.740482509132798
0.789665594439196
0.742506967967073
0.749231962123755
0.757380077816327
0.779104767425417
0.750345889348317
0.771425373785081
0.741736150283064
0.808666593211385
0.745928127224496
0.819630694008441
0.758486760565442
0.783106191567858
0.73775775162766
0.796864302726203
0.749730873565147
0.820630286200135
0.748080274061992
0.790413198268685
0.752551362632657
0.805017166991605
0.762499769164985
0.80163593239513
0.73443589362446
0.764806133299802
0.757250970386183
0.78139386056661
0.754422529126044
0.777497469228289
0.73671127137821
0.788366593147129
0.732088913847135
0.756707150180024
0.737738217892088
0.788211223762576
0.73174640800277
0.760885646414257
0.736790475821052
0.765661475816048
0.71710655508914
0.753546519376624
0.754424587088455
0.765947042996968
0.749675143767285
0.778843310127441
0.735077868011375
0.758214259368732
0.744303504570761
0.764568324417157
0.769692443624055
0.748827561210923
0.715296743862582
0.768726624969676
0.719206744532564
0.724494699491442
0.716800340585131
0.769870834778709
0.731447270667448
0.760482764433096
0.733529677600043
0.728327241403156
0.724002376822028
0.754496237146466
0.700377322135983
0.756644191974356
0.717510701852152
0.763022140536902
0.703635713523273
0.755991783494164
0.745146799676953
0.728120934813788
0.700845638464791
0.740075731778133
0.697910455162669
0.724747614033798
0.693039328798183
0.732034075348469
0.679831852092835
0.735272072345307
0.681007119408679
0.740666172475745
0.651983132537268
0.705686580029316
0.674164010672076
0.714630448743127
0.665207981189417
0.721257727414344
0.659620112692987
0.659173257461312
0.678019790437912
0.699123594414832
0.685524828089401
0.698642754587487
0.64980527535928
0.697943476141333
0.661597784839531
0.706418720277214
0.671480036655447
0.720936147352847
0.671058469691606
0.699859500249752
0.632503965288935
0.676517360168985
0.654264124844552
0.672816319754297
0.645560339775442
0.672875328178931
0.628519899084176
0.650779840087492
0.623448871741311
0.663270585144394
0.642612366123437
0.653514249298424
0.624893167158011
0.662576981974738
0.638679646293555
0.645365883532948
0.620614915696991
0.653037721222498
0.629215648159408
0.651012406220034
0.596524688903284
0.612327308744305
0.613263509618597
0.637150479073937
0.607279501114025
0.632688317484428
0.603482810902269
0.621739895552548
0.589037965568288
0.62690169405993
0.585238907453281
0.615882003103203
0.582221550627441
0.601398718287584
0.578069282090795
0.590277262773373
0.576921416968538
0.599352868249993
0.556000377911077
0.605122107433846
0.563670173624968
0.597365802635221
0.565763491068642
0.578212899757299
0.547007118486002
0.579249466838996
0.558104710718791
0.570281560770437
0.548706886969031
0.567742802399144
0.54368284054225
0.566808321553878
0.541882321653756
0.552665706696786
0.537392998393983
0.554418449338521
0.518729116469976
0.548667499368737
0.522746163331157
0.534812252196415
0.523353867282204
0.536802903132852
0.51394570248085
0.522067452674545
0.511847836432535
0.530141576451104
0.504271999767891
0.51975154187618
0.496321733197921
0.496300181199147
0.494954336116915
0.52067394997446
0.506329746675336
0.500661571542026
0.488257746533579
0.493924857950693
0.485239112378797
0.478652761381038
0.471105473718188
0.480890138246255
0.470241837385869
0.483728914229965
0.466757094139246
0.468077637809546
0.45439616475675
0.478605396238476
0.449910530405385
0.48329300858616
0.460121703746116
0.45994112182908
0.449805137298959
0.458950599955847
0.445826149007715
0.447569223571549
0.437887531898522
0.453032493521099
0.428915776772643
0.442426786227457
0.431480545475765
0.430756585260736
0.422552646855196
0.423239016147674
0.416618134318209
0.434154172927687
0.411642616394125
0.417218499270076
0.406369853923442
0.422315475282998
0.404131042379923
0.41613676543193
0.394823535280836
0.40394784095882
0.392488802643784
0.404425161929503
0.392808681556002
0.39879683991322
0.376854924652559
0.391205526648695
0.374495173129366
0.380160211319404
0.377248365603911
0.381096813481424
0.372093923827898
0.375432062578307
0.359972297506669
0.373105949738098
0.355229755406772
0.370242475112844
0.347709291677625
0.364839066349133
0.359403674992022
0.362238861316991
0.351678195917276
0.365029551495992
0.347691678434518
0.352998594415665
0.34322915423953
0.35917821941391
0.334064702184158
0.343512273501534
0.333796170470929
0.342306808497028
0.326708327228985
0.338041119659902
0.330727109287732
0.334130273730816
0.318752616972959
0.332123855357684
0.331638482074376
0.330123911764349
0.318671887622524
0.326784782972804
0.311989870331522
0.319166553857162
0.313925505708379
0.317000359795558
0.300624491283517
0.314345443627719
0.307750818607824
0.304590834126121
0.297490699011631
0.302468357687653
0.290327573770538
0.303181857644733
0.292132662413822
0.301129233477051
0.293068654948731
0.296484060955188
0.28637680631067
0.28995180677152
0.279489845973352
0.283233847675273
0.282521528211757
0.285368798540184
0.268141087085619
0.284524438188556
0.276612578121573
0.274296880057359
0.273841671040773
0.277870329402725
0.262542777297294
0.267130292404479
0.259399861182095
0.267244934106434
0.260182373216429
0.267446624462247
0.259073765560187
0.259431069925747
0.259261678827184
0.265182030006627
0.253171555911664
0.249422337839847
0.245248982375154
0.256166042924734
0.244678446082006
0.253454655754001
0.246205414520126
0.248844999096156
0.236591808368884
0.246335438191726
0.237058154105755
0.243634441540909
0.233468971484508
0.239011560229372
0.232293940502789
0.239956110076937
0.2297621021247
0.235938249171744
0.227299567147549
0.226975715801062
0.222811280721642
0.23530466657774
0.217790376286187
0.228905288716797
0.214212853835561
0.226760614930182
0.219939565762902
0.225594949315439
0.213225172904703
0.219664468328072
0.208979509454788
0.216417534165484
0.213177753748544
0.222772318449938
0.208778751980293
0.213617565698024
0.209475943539973
0.210170239308457
0.198029403777074
0.203964287847089
0.201958798890667
0.209440673003391
0.202305318649502
0.199962576439225
0.192724007529349
0.202060467895655
0.194940611168753
0.19584075214142
0.193652970111931
0.196315261906943
0.194213209721399
0.197663614007352
0.185004511608558
0.192717012876041
0.193061178565801
0.192251790948325
0.185920177829554
0.200187007350424
0.184641813738364
0.187879766835865
0.180652248691687
0.194118014882823
0.19216606263756
0.188110516166217
0.18048915014386
0.192267741671717
0.181646162042475
0.185256496752918
0.177975167242602
0.184366202938903
0.17842336896371
0.183338208208083
0.178715242365542
0.188764337026202
0.18391899286238
0.18828439690211
0.181852840264441
0.190915343542694
0.183603520023495
0.187491374448995
0.17896514303559
0.18572318716438
0.181808757709365
0.188620228071591
0.183628995604239
0.189952998562853
0.185434034025322
0.189588013464258
0.187493894601064
0.191350219000617
0.186672519150346
0.194799152881279
0.189466143091139
0.198978625799068
0.188260965466862
0.197494859605513
0.195504140342447
0.199339770273611
0.195363159983574
0.202734073905902
0.202053187133662
0.202881565636364
0.193990075847679
0.204378289742894
0.200344532623555
0.207721255193154
0.201713139387309
0.215303283824528
0.202640158915508
0.212598696415069
0.207249558321191
0.216507846841778
0.211614301890011
0.218197182230651
0.21369661743427
0.217929393551687
0.220117064195388
0.228961360194245
0.217715110966706
0.219545800146866
0.226233970306776
0.233973885111465
0.228843100828419
0.241992832526684
0.232345762590031
0.2444057185906
0.239868340042117
0.252136512365947
0.23963046095547
0.246654238498006
0.252494108933457
0.251340412717547
0.250736362455822
0.256828292644658
0.255676876458673
0.262640152007768
0.249823372668361
0.266804401367458
0.263673233402993
0.266001872727397
0.26457992972778
0.266775757271048
0.264978828411238
0.269199319738088
0.273754532135817
0.273082941754399
0.260174324351639
0.276293112653533
0.259838315561587
0.272326142321516
0.270288005981303
0.274385475012887
0.260722378939025
0.273557728620515
0.27037681159604
0.267694757344531
0.26025505483018
0.265502116000455
0.260328347655492
0.265156703142627
0.260987220738937
0.265677869200539
0.26390560611019
0.267440488066668
0.264915292157148
0.267496442838448
0.256478013700013
0.263412738169803
0.259146401524097
0.266068881310333
0.261144374872215
0.262991013608027
0.267596946301617
0.271945705759106
0.260473486535864
0.273899791311934
0.2642705193218
0.269666156931937
0.261442397970397
0.264016254042968
0.263966130858268
0.265118130177864
0.267253661669845
0.274431077653606
0.263456417493014
0.267076064333125
0.259789105024058
0.270081644969443
0.266330620796916
0.267520390611989
0.264208843737505
0.273194966857489
0.261606413607892
0.270075232354222
0.264204038847835
0.268320771668545
0.258357641823214
0.264663572863342
0.25568298808658
0.262884908255179
0.260238583548532
0.261585412545313
0.250800863649442
0.260542093403614
0.248631095146229
0.257162874687268
0.25145085385653
0.24833468247397
0.24402628195202
0.251260436404886
0.242289461223983
0.241285427853355
0.236702403520963
0.238214843937677
0.2308294202951
0.241713591260883
0.233057684770143
0.229149276093634
0.223164304722973
0.223659813182028
0.215933561910082
0.224964493802376
0.220205592555921
0.220351852399622
0.207550824352922
0.210422440036754
0.207432603726457
0.209976674753218
0.206769949748568
0.208478416764383
0.202139713255521
0.201886183098787
0.198938652950304
0.196215688335021
0.19303538175906
0.194068937374561
0.193856771578925
0.192048515308138
0.188862728462318
0.190060643231057
0.179983276134357
0.182411607817901
0.181606491934739
0.186476445723685
0.184203427627316
0.18257602120063
0.174462508988365
0.178245857921366
0.171712406802592
0.174611360062922
0.175509130862244
0.179047001389584
0.17042487438652
0.167314064818883
0.171202516198025
0.172469292466758
0.168472303586148
0.165187681925209
0.162718310740752
0.166515292161348
0.167417158789206
0.165121261619291
0.158391591346956
0.166049456231222
0.158854657141024
0.16214274210645
0.157120434217013
0.160874542413898
0.155396159433122
0.159663121252854
0.156157203670585
0.153690727426187
0.149043598423584
0.156604429793282
0.153035446121859
0.153264737074971
0.147977366879984
0.153219041029783
0.151702060315131
0.151880600255721
0.147534563246045
0.147459992839997
0.142667238719997
0.147031389792623
0.142373262742675
0.146639438472237
0.141745996884651
0.145388951960581
0.145040203973048
0.144653958831996
0.138401133643847
0.141052958383143
0.13972303175932
0.142432637781571
0.138033020011366
0.140165251180384
0.13729053599518
0.137385831961883
0.135293750483951
0.133734271418392
0.136474892953238
0.137322881564744
0.135861135445321
0.134373329643079
0.130839383933331
0.138279037340711
0.135572364518507
0.136198469505097
0.132167103302495
0.136300325484379
0.134516086438225
0.133071816425092
0.130538930493539
0.129809636073809
0.128222753956976
0.132182443526364
0.131722158839616
0.135352171891691
0.129333476558885
0.131122070344129
0.129306173292802
0.130012814727802
0.128738843553717
0.131438828144674
0.12717289887798
0.131018547224411
0.128787043927652
0.13191556904676
0.120856714801165
0.127835431549574
0.124722506625915
0.126015866156914
0.122997864660223
0.12914523349557
0.124660142600354
0.129280688123372
0.122596010835737
0.124612187920869
0.121609295033919
0.122215095483636
0.121008188104781
0.125093317511295
0.118050557452068
0.126333129209404
0.119243719363992
0.120782728382331
0.120375564026313
0.12005570790513
0.117098889584528
0.120911233862196
0.119869454001776
0.121165694567807
0.117733636248155
0.120579056980864
0.117639414670275
0.121607709438126
0.118831870774585
0.121870339849807
0.11612119283737
0.116537757014606
0.118657560206753
0.117915457664462
0.114012809153586
0.120659749664945
0.116849838188763
0.119108476395627
0.114200525502644
0.117832550708982
0.118294072383955
0.116781282675992
0.116609813388509
0.12173346235477
0.114549669694366
0.120141181402084
0.118051751162844
0.118078070508849
0.116675147352978
0.117495273636433
0.114571139090875
0.113702646534625
0.111526854212526
0.112096682467758
0.113384826990666
0.113255146609994
0.112625047369958
0.11659736121646
0.108593161499991
0.116267556687395
0.111196999767251
0.1124540791098
0.109992849349441
0.113791149086453
0.111422725081156
0.11212241514827
0.106273195601565
0.108770620140264
0.10659260421493
0.108327115426467
0.104461020608026
0.106078327118991
0.104355716389777
0.103955210340483
0.10566050845668
0.10427876730112
0.101965110165219
0.10738551407937
0.103371230638433
0.103721219564404
0.0994435314479623
0.104270605871286
0.102231159668224
0.102789795050749
0.100546244100181
0.10187293444248
0.102479479028018
0.103022304287398
0.0961209542948461
0.0999393091788226
0.10136013545076
0.100084346701827
0.098728839118178
0.0988428121002438
0.0972270471167091
0.0966266349337887
0.0962777966621396
0.102088710591122
0.0998298644778049
0.0987483802455712
0.0944766538814051
0.098725492396819
0.0962648344828971
0.0972044433603021
0.097337788483641
0.101806554469094
0.0964477436865578
0.0970977025017686
0.0954982717257044
0.0973858494894671
0.0971199897838062
0.095613851426401
0.0921254958633938
0.0959667823871894
0.0917152070817057
0.0908648348383874
0.0903810952378477
0.0911512095982703
0.0894013663707128
0.0890349080809333
0.0871079932823156
0.0896176135120483
0.0860061396636107
0.0898438710753183
0.0880846424359784
0.0883684048976468
0.0862864539757222
0.0885883129139007
0.0841222943134002
0.0861932613325882
0.0822351681321068
0.0816926559388733
0.0816244320478028
0.0826199709914853
0.0830691190026084
0.0838860034997102
0.0797791374626935
0.0821454817132101
0.0827364168272762
0.0821155798139907
0.0819684884700969
0.0808194066457419
0.0769537349416631
0.0806130266373843
0.0779421862396094
0.0788390544836123
0.0791214571207202
0.0792323840071198
0.0793913914947738
0.079305255531161
0.0763950474010122
0.0768069423187565
0.0766977196543678
0.0753571858222138
0.0760222593556997
0.0799522014551142
0.0762440645681307
0.0800173408589134
0.0801426519429985
0.0780089570446244
0.0756575398815516
0.0784385297282999
0.07696567982807
0.0748490235569472
0.0755665782832847
0.0767232916895835
0.0746055721115781
0.0747577394413408
0.0746385441919873
0.0741845376169719
0.0717555681725826
0.0730836489107287
0.0760462683853255
0.0736693290843985
0.070457903995342
0.0729434651262481
0.0712194719940246
0.072843146144076
0.0736520892641937
0.0732842045703683
0.0722570861529191
0.0727016805328855
0.0721120684713775
0.0698667940162834
0.067641155924065
0.0690508315800572
0.0715925927259409
0.0689690612641281
0.0692106924589221
0.0699707764400476
0.0677629499882532
0.0693517178802146
0.066057797647234
0.0685372037517204
0.066535078530523
0.0650707570754001
0.0661308504236706
0.0685672352758531
0.0643905364542595
0.0649311856928364
0.0649469130578503
0.0670115428438538
0.0666446337529662
0.0665015646849619
0.066261677461011
0.0660152568797651
0.063079462901027
0.06719785761397
0.06669612391955
0.0684812505225783
0.0678007587725401
0.0643633697014503
0.0647742195035543
0.0654825459509766
0.064639590922256
0.0651690646376016
0.0672682421633025
0.0667821580322864
0.0625524347470302
0.0651103395552121
0.0672047777810511
0.0663947916499049
0.0635808405882671
0.0630758985380235
0.0640191469631693
0.0656357236323772
0.0623234357874954
0.066278921425221
0.0660090961243013
0.0647806053838928
0.0624377035238228
0.0661829102814536
0.0638741893898583
0.0632304367477402
0.0635599260875638
0.0629519714313322
0.0625686620045858
0.0624010596524119
0.0632113999210711
0.0652778065239431
0.0621798851842917
0.0629423775756795
0.0647749063450715
0.0618554843584177
0.0598005594708689
0.0614830064688636
0.0590826295078577
0.0626332292378979
0.06181543479871
0.0592768435177679
0.057233347602232
0.0606347484307266
0.0619430795990774
0.0610984024081548
0.0609506651754129
0.0585234192445107
0.0569476591160324
0.0580417052541791
0.0580766173827955
0.058257880522118
0.0573118560906326
0.0595740179218168
0.0582636932119054
0.0593076001262212
0.0565785624812685
0.0584756612473716
0.0587469135243923
0.0574947943141997
0.0577380182638681
0.0539536477944083
0.0563356509659573
0.0574887380454557
0.0579487162397185
0.0582750695932867
0.0566890252797167
0.0579270253620514
0.0567025615660769
0.0569184851133597
0.0548133235960075
0.0558545035117671
0.0578001202873319
0.0576509004722048
0.0579512926590628
0.0604927527528463
0.0583850071462766
0.0573693210900901
0.0570339093293902
0.0574355878139958
0.0561790184175559
0.0538535256063699
0.0562213422554466
0.0553382399268351
0.0562222161118488
0.056318311574714
0.055756386721648
0.0534919264892353
0.0564298439793187
0.0565442350313861
0.055257603638479
0.0553615872397958
0.0564523767923127
0.0556206581651757
0.0548053441465813
0.0551818407130022
0.0547144314005577
0.0525163967472845
0.0528069773248242
0.0526493265840034
0.0496194236854394
0.05168988435305
0.0527045289717703
0.0512701397108579
0.0499000730192025
0.0516187838872768
0.052239423065938
0.0491894989401319
0.0487333997280612
0.0491988599820998
0.0503762818709532
0.0482040698852829
0.0513966860197601
0.0504578916927201
0.0446845694421025
0.0471740001235676
0.0495679851924282
0.0475262364529785
0.0487584328610638
0.0497458835601279
0.0475486652183406
0.0468821096670222
0.0475562846368786
0.0467979549412278
0.0470036776422054
0.0492168615539511
0.049900477904098
0.0478126921977568
0.0464559292579299
0.0473977104451228
0.0481704200746205
0.0473340420655703
0.0499241428717497
0.0485920961537123
0.0462483011396825
0.0458152304818472
0.044358156122284
0.0471884681235525
0.0476389267461164
0.0464275946020231
0.0480906370557407
0.0456307425584846
0.0457554357380293
0.0459797770706298
0.0449335416899023
0.0418780615967835
0.0464363234354627
0.0462507689681123
0.044553023838238
0.0460287357328475
0.046935476577179
0.0428738021502845
0.0430995072597625
0.0444436133683667
0.0451779587136662
0.0447532190564079
0.0426865569998939
0.044002383794323
0.0419958215000525
0.041153795363646
0.0414146219417189
0.04166734120889
0.0416516468232635
0.041413959583453
0.0424915672504202
0.0419643031734061
0.0401260955288375
0.0408557169427592
0.0408466194362647
0.0400483759120504
0.0409906961611099
0.0407814215701736
0.0407101153563432
0.0401344818842431
0.0411266018397289
0.0395039009728401
0.0400261796222011
0.0392858828179284
0.0402857027560581
0.0407455553874496
0.0394998352047483
0.037886302949982
0.0394022422594921
0.0412331219994713
0.0420385097903289
0.0409245197582746
0.0387894582342461
0.0383086622044743
0.0399289893377347
0.0374586917295805
0.0392935473890636
0.0395688700556265
0.038570536001421
0.0377119432175573
0.0398044658963919
0.0396714849933042
0.0405071434643756
0.0402572284161772
0.0388841602917968
0.0376150890223386
0.0395051716256569
0.0350295096651658
0.0359903683725747
0.037859700264365
0.0337085793843278
0.0276928255341608
0.0298388275381954
0.0293816734658648
0.0297641683697003
0.0349515471427223
0.0356065374029382
0.0303389138257664
0.0258890462608152
0.0224737055749978
0.0293343930864269
0.030366363528967
0.0242344560291914
0.0231850484959346
0.0293444142118776
0.0214759516731441
0.0260542160530135
0.0259685748875414
0.0263246057032337
0.0236651344022119
0.0273782503665703
0.0249492961614963
0.0272429101964967
0.0310067452854339
0.0372411741592681
0.0359550908773645
0.0384126366788654
0.0307285587019698
0.0316036097296752
0.0260632754939633
0.0310479011125721
0.0243505113409634
0.030330427512228
0.0266135557273687
0.0277573730107682
0.0245451190425468
0.0295718591667809
0.0247770263740683
0.0281451014330644
0.0213183760316952
0.0288468180732342
0.0231496376201901
0.0314309682619022
0.0292744430209169
0.0371805317866855
0.0248279767738671
0.0277721120403637
0.0202523591446089
0.0311010602758623
0.02933426035236
0.0401427524332688
0.0213701399045543
0.027774877346681
0.0315063330524316
0.0441564357436641
0.0282835394737164
0.0313614513632316
0.033807177908499
0.0421534220218673
0.0344461819991647
0.0282646155116307
0.0407721093706014
0.0362354581294042
0.0361831715071556
0.0353470601802942
0.0421625735372663
0.0314411088233993
0.039921285941362
0.0348418647764245
0.0387467939707802
0.0355472362691406
0.0338216788754353
0.0350968661137474
0.0342794608569741
0.036137505329061
0.0340766623547759
0.0367956294058614
0.0350761581406277
0.0328318569016748
0.035351068613555
0.0333285492609802
0.0329048266794517
0.0348997819086915
0.0363908529542578
0.032348900136122
0.030839581460139
0.0338912477649051
0.0340085576543063
0.0319038432505453
0.0323929208415999
0.0326501115489845
0.0302944196938997
0.0316784358315542
0.0336275654959622
0.0324040237514039
0.0332346342537113
0.0340567977899602
0.0319959795019782
0.0325231933759838
0.0326620189549973
0.0329634951458331
0.033859299107473
0.0342224239793555
0.03334872045209
0.03436752489627
0.0321200009050109
0.0323237823501045
0.033074616493037
0.0331037921438808
0.0323652599547152
0.0343956117147076
0.0338297821839904
0.032821792212454
0.032182885927718
0.0322596223357593
0.030781014094416
0.0338406155002967
0.0332424681173622
0.0335473476135192
0.0329891997913162
0.0344057421689937
0.0335801550169465
0.0323427156781387
0.0320690634738885
0.0359572686553198
0.0344506407781751
0.0316844780714421
0.0352379791875212
0.0352073059919223
0.031909083180855
0.0333899886550249
0.032533529329466
0.0326401226707629
0.0308949348449586
0.0328793532756799
0.0343684509194886
0.0323165525762206
0.0313770962317731
0.0347509902026766
0.0327729763029663
0.0300947469692178
0.0314357218420512
0.0337417596043759
0.0326735093738864
0.0312520890068959
0.0309547023352539
0.0308942158694939
0.0310003366044153
0.0329311971449194
0.0321952127704905
0.034197343606034
0.0314680497553125
0.0330924045716677
0.0319610070532082
0.0306013098736502
0.031221046358652
0.0321323607497279
0.0297242764235948
0.0334950206223208
0.0309474893396109
0.0305712958718924
0.0286414797549908
0.0326547927625074
0.0343601158554835
0.0329406702929835
0.0325793770918861
0.0302942720566167
0.0307835045072356
0.0327327954664883
0.0345882536629116
0.0341061471044097
0.0323642759524182
0.035096339546238
0.0320742675894932
0.033865306322217
0.0344896084617207
0.0345391094206369
0.0332232763297109
0.0335196288212301
0.0345618325210094
0.0328297760453567
0.0340378905342756
0.0354963920663808
0.0352653851223979
0.0333932198148943
0.0326372771808882
0.0334668352946383
0.0327276278690631
0.0327022373388613
0.033875119132468
0.0344178358318669
0.0318496655004869
0.034191529031714
0.0327665274466425
0.0334548929324777
0.0344351576283907
0.0344836938909151
0.0330267423427275
0.034025116538928
0.0334120738732559
0.0346987304403939
0.0316718088962592
0.0333957266569089
0.0318757422468924
0.0335050486778519
0.0316937006515434
0.0321280446479687
0.0344073024907169
0.0356205480258643
0.033506228253662
0.034086829431152
0.0333520946112952
0.0320393437774113
0.0326519304578121
0.0337076277292898
0.0314770751203823
0.0343573442994586
0.0326936631859344
0.0328093988980119
0.0303367069754996
0.0334251007329904
0.0335938390380701
0.0327112135961051
0.0322402889335425
0.0340906718301256
0.0338511124930672
0.0345826248732202
0.0337003877139256
0.0352606891791801
0.0342312336606855
0.0342482451171674
0.0333071635622871
0.0361901329793899
0.0341164745505531
0.0346517629961551
0.0348302426408739
0.0356315914513582
0.0344311456476392
0.0347237717918035
0.0337865787074787
0.0337423071549773
0.035157067458588
0.0348643462630097
0.0332176136089783
0.0340385268125429
0.0325892575943128
0.0342820687264392
0.032064610966589
0.0332072770652432
0.0331891542194084
0.0343428411505261
0.0318837635490634
0.0332879396791475
0.0330459337453844
0.0329452428244931
0.0325724902737545
0.0342994617792436
0.0316006880202362
0.0327802621042882
0.0319491627663433
0.033511897923033
0.0330890945178162
0.0320699874548993
0.032899678708624
0.0329912388843188
0.0310618513974966
0.0312610948013713
0.0320021062603322
0.032165215217863
0.0304485350745429
0.0328694832880259
0.0317091221153639
0.0321590267957031
0.0307046104249096
0.0323023946267561
0.0315850471713082
0.0334323739155206
0.0304637500065231
0.0308778397632005
0.0316681707611353
0.0299143435114687
0.0300155581421261
0.030324570638965
0.030745122501265
0.0325841979642069
0.0314669550624453
0.0346888576262155
0.0297434239395546
0.0318247126476887
0.0326299435412303
0.033371241638193
0.0307409351560006
0.0301372641767001
0.0299800405527209
0.0299313375134474
0.0314889882963904
0.0318565471157099
0.0300414522811643
0.0330777623775506
0.0315915058566471
0.0307088409055683
0.0315326848875487
0.0305723234097688
0.0290727556640771
0.0324571112733521
0.0310444364076402
0.0325707266652224
0.0307109311093523
0.0317513462688558
0.0298075635780125
0.0316803886261317
0.0308280532298557
0.0332064827622946
0.0294409569253088
0.0314426613956085
0.0279167480866007
0.0305223957313811
0.0301961672581268
0.0308659059307578
0.0293309195104079
0.0313735123431125
0.0286320477088941
0.0288963713451506
0.0315191565208363
0.0289764052093512
0.0296238784315308
0.032141046871086
0.0293861892545627
0.029203140093206
0.0300295874543627
0.0306472597137808
0.0336120252277137
0.0309975051279495
0.0294092877454975
0.0309298075085908
0.0281060140903374
0.0315705702483509
0.0285888255236329
0.0297460405241362
0.029328555891003
0.0306580754537929
0.0283345418700237
0.0302152166052833
0.030968615784854
0.0313814710813679
0.0290926547232653
0.0306814291201451
0.0285258781488854
0.0285995486831236
0.0271245759540306
0.0308154357147713
0.0280160272275935
0.0287361346644014
0.0294852610300591
0.0322976279705911
0.0276445083554717
0.029955065850884
0.0302221088903901
0.0296002638318323
0.0280415137171279
0.0290363980536879
0.0277506017563168
0.0297012643330969
0.0301944907095883
0.0298147192946444
0.0267038228577149
0.0310357305043695
0.0273713303071481
0.0306249224658155
0.0279540913111224
0.030083920967899
0.0275584866227485
0.0299642637847389
0.0278933604869469
0.0293970374533174
0.0266354430952452
0.0283042078768685
0.02623535615492
0.0300341145560966
0.0266087330254987
0.029425866396613
0.0295703940189357
0.0292238144637556
0.0346041015609335
0.0284779531303906
0.0273877108799643
0.0279054724186962
0.0264463281082737
0.0267583553092257
0.0272056664875939
0.0250523406583351
0.0259999819151943
0.0253976658445191
0.0285346341979415
0.0276314191981731
0.0247665655872814
0.0262578322360573
0.0259772840187428
0.0251321998786406
0.0248945007598905
0.0245997861208306
0.0247573210868696
0.0261153004272286
0.0257634148109854
0.024416921928151
0.0281253380821589
0.0263946612853888
0.0271743771662415
0.0219150204021367
0.0343014464826336
0.0365742917804446
0.026370446167111
0.0286745028898733
0.0289753687589135
0.0304426380503439
0.0267818716258205
0.0295611039068605
0.0245371851892685
0.0248479412975342
0.0258553855247654
0.0282843139555201
0.0240903225915067
0.0246241653196695
0.0261790970596836
0.0279387860419315
0.0249242878496388
0.0256384529269042
0.0238932243072256
0.0264880131082304
0.0244162016293034
0.0266719143531487
0.024028762977775
0.0254000382541024
0.0259090329977542
0.0245744329783436
0.0232763528391209
0.0346917208273561
0.029749174174787
0.0291795466687868
0.0237730878563129
0.0290483034553847
0.0249620680180114
0.0260643752304957
0.0243728315193639
0.0242904034924344
0.0228463692454571
0.0273111922537218
0.0242964396500886
0.024759057394615
0.0240618263808923
0.0268001585177262
0.0237791342076718
0.024852016522687
0.021413209359879
0.0259515478347153
0.021517731077304
0.0269277815315274
0.0208368479627012
0.0275285236630425
0.0213357288373181
0.0320291343695291
0.0187375920360766
0.0327815079653332
0.0423016914821901
0.0287908234100696
0.0263765688491925
0.0239698696138085
0.0236640648372609
0.0240546213398396
0.0226611666153283
0.0228304279419595
0.0247948576555414
0.0234693600770338
0.022805870422757
0.0219048771194142
0.0232832212875632
0.0227997787666056
0.0240846569584391
0.0222468681154552
0.0254462817870863
0.0228788588314904
0.0265703437999419
0.0215778033495837
0.0304727388992019
0.0386738038974454
0.0255913381627362
0.0287987589252443
0.0254482729131874
0.0175404461874501
0.0529861962534944
0.0282498420891171
0.0297491202520568
0.0215930849282559
0.0245847893346721
0.0188812634770923
0.0256828828153304
0.0190252769393956
0.0251179655595411
0.0306317146780921
0.0244431061820685
0.0306175544733237
0.0206042972303947
0.0239111873647827
0.0226642909685146
0.0252303372517239
0.019325990008445
0.0250069395894961
0.0222796021863146
0.0213283009090856
0.0227164103789149
0.021148622444475
0.0249030809324557
0.0195167323420231
0.0271764573775438
0.0268700984735711
0.0237202265318687
0.0216676500624628
0.0265103130960084
0.0174389640497447
0.0317766803556122
0.0434986164191811
0.0203201959273659
0.0263361475676668
0.0191079229373539
0.026718112698206
0.023328024946313
0.0280081622820111
0.0213653115357556
0.025246579713694
0.0189045022554462
0.0273778105898085
0.0198539240009781
0.0223042679586714
0.0192749775888578
0.0252485068726489
0.0191611940367038
0.0222935633844082
0.023033106581832
0.022284046030927
0.0253245369329048
0.021984595782763
0.043639190762979
0.0433059930296176
0.0408295526070159
0.0367475853199682
0.0293048578891127
0.0227142252186012
0.0225336047992898
0.024150347413142
0.0211823653936408
0.0277667118924963
0.0225155064025918
0.0252503495987275
0.0240097436176348
0.0256513759119545
0.0198666014940399
0.0242051803165143
0.0187542046501325
0.0256806756142346
0.0207657049436917
0.0259761471740189
0.0175544977573358
0.0284181166753078
0.0128144926541846
0.0368923028582105
0.0228476646038308
0.0362589374439707
0.00481679398977401
0.073413810519072
0.0411016138709741
0.0351992698575864
0.0280026573014208
0.0220012528239636
0.0247167335026042
0.0198038395700602
0.0234544281257776
0.0301149109234532
0.0250353610008777
0.0255302140378019
0.021762294249394
0.0257119906625863
0.0246799270027444
0.0207471715841705
0.0345949989059978
0.0624749620963443
0.0286543694124339
0.0353801677282966
0.0116357983011419
0.0374710031597417
0.0560723841695278
0.0242908452250088
0.0314362354271468
0.0245754787643991
0.0264247711801271
0.0210288906865007
0.0239012864010514
0.0222433863220066
0.0329980721869934
0.0258695311805567
0.0230802500401108
0.0268846464685785
0.0197124877762911
0.02873266797271
0.0228794735481414
0.0398231420497177
0.0376493188290317
0.0239318315355684
0.033005146842895
0.0258964386772842
0.0237173912944116
0.0251749627488571
0.0268401816292641
0.0232943716456796
0.0374934303343106
0.04198895292712
0.0261929224108602
0.0437306055211032
0.0372027746591729
0.0233313128468126
0.0321752418429041
0.0303455317462825
0.0454839354703039
0.0126325953459141
0.0462332607899227
0.0549178604629877
0.0416918699969259
0.0556229462104997
0.0210657712215072
0.0365025489642359
0.0180222289385293
0.0321210722383942
0.0136590755656687
0.057852056461016
0.0128280178314333
0.0412270942513054
0.00975759739891527
0.0529650535202659
0.0322446243726912
0.0369734465808107
0.0259142381617764
0.0305122461752602
0.0216206096453564
0.0543361707777528
0.0284997494870983
0.0261720330892719
0.0593285504686524
0.0520521201743949
0.0659566359635388
0.0331198299871086
0.0230353782159334
0.0783598948904831
0.0276925486143638
0.0404120018230256
0.0190614702193523
0.0371777980254665
0.0159293775223617
0.0371998060724755
0.0671500983768396
0.0343752521311188
0.0306172712148803
0.0369143516525073
0.0227403934696629
0.0657140230065721
0.034988599323905
0.0384201251914238
0.0234964946816595
0.0423373021192757
0.0117867713001329
0.110354900487342
0.0304336496328214
0.0626320486961546
0.0552419521621438
0.0567233580142445
0.0508357152201127
0.0460725890816269
0.0316538662545236
0.0520955496668645
0.0571512427627868
0.043512198429947
0.0208508267771855
0.0640936074612507
0.0610920351278326
0.0339298769923263
0.0494636122680336
0.0314132093483776
0.0349833092202023
0.0759283965211302
0.102418412006817
0.0778050126517079
0.0475063140150033
0.0452066155790713
0.0769429166946511
0.0395006452685404
0.0455924512112371
0.0402400721110496
0.0420167044497839
0.0405090997401474
0.036002058694364
0.0572422231349053
0.0381590390279023
0.0520228884654384
0.0359207869037781
0.0483371840828068
0.0649625077193009
0.104961573006194
0.0948253904085226
0.051993164988629
0.103636680123707
0.0690722945837954
0.0701401007897095
0.0464674936306782
0.0494252187452823
0.061700066929146
0.054482735836986
0.053674459114681
0.0444810280704131
0.0897682029772436
0.0586491621890256
0.0775117246883905
0.0830341016470895
0.0579600786093453
0.0665774173793902
0.0356819961679849
0.281834882021962
0.0711305823343582
0.105242962994281
0.0565769892655977
0.100102566368483
0.143807473316426
0.0850934611449051
0.0711542634767385
0.0757633288384871
0.0640660648663623
0.0816530520968479
0.0838616786285901
0.0906902234334797
0.0986046020066522
0.0881424436630642
0.0684024463043235
0.11138580221225
0.149184748474828
0.16377734072458
0.119419859532214
0.102529505146806
0.119380427423971
0.121402091985393
0.0944294860767634
0.117533324217615
0.0900624396686838
0.119154601569691
0.160781521325328
0.120350166167721
0.123256858865885
0.11194688357447
0.165168944699259
0.0955485633858648
0.218008831009001
0.144653930316738
0.156143323663126
0.125421881156483
0.141631355890722
0.131140741829211
0.129822493633279
0.177548566886473
0.154536401709392
0.147827926425357
0.146754698512848
0.149222801800602
0.150921280579513
0.150987270891966
0.160640623103013
0.142838608618132
0.202877896568521
0.147496582095946
0.372295002619086
0.183598776942296
0.181370020892354
0.162444009477664
0.162787243354038
0.202954486515551
0.172123131259128
0.22243746040269
0.194702006155966
0.164524564168884
0.167784069792724
0.161228103722643
0.169830221330036
0.153987553455469
0.174474033988072
0.142169148230499
0.212612511992172
0.141884565073991
0.222749594661777
0.212931326508084
0.184639175481264
0.166978135815945
0.169886319998079
0.157695784201882
0.170692241404945
0.154379165534261
0.171858530043663
0.186430708978427
0.15994632086744
0.168616843160073
0.147491606259688
0.200745601523689
0.183358788744229
0.164169822902233
0.168637686942857
0.154017470678725
0.169885110261332
0.139843926701331
0.174067217320853
0.205756732678899
0.166896684867445
0.17078773581411
0.154571324221692
0.160090511312053
0.162880486721176
0.160498228193108
0.162599883588772
0.162379180905657
0.15500717900135
0.167475941603768
0.155143698081001
0.161090334458693
0.152010419722665
0.165874656583695
0.158143239674053
0.165028315054054
0.160336420412447
0.159636512461332
0.156949390931416
0.157094369596164
0.162705302376457
0.158287340592601
0.166754480427447
0.169954524614771
0.156825289437925
0.165722880514491
0.162175757859362
0.158566435321799
0.158570871971869
0.161809654024658
0.15732647109168
0.151094076783656
0.155233714965716
0.158974879613546
0.153647445806997
0.151559615222002
0.152761575389957
0.152670839306783
0.154174636212671
0.150010581409172
0.162467790351677
0.129613298955891
0.222743663332252
0.170749897323562
0.158861387269262
0.14430811888161
0.14087536148609
0.147961041423076
0.125982521754116
0.185072014455892
0.160258497294177
0.145437110421723
0.136144063667222
0.125243435865514
0.145149924165467
0.132485726382805
0.122984074745049
0.140396710913185
0.101776525079283
0.187814001390674
0.156261380482173
0.230772137183996
0.21113527642216
0.1574413713113
0.114208543739938
0.141541323774052
0.16646605544915
0.110118804915848
0.127480624390354
0.0963732976559749
0.169506473769467
0.121981537616343
0.112302260247881
0.107821412910198
0.0986483652106979
0.130221399182916
0.145017486199858
0.113560706125779
0.138360446392278
0.145099038030542
0.117418780632118
0.154637226428535
0.19116793008925
0.148580707398326
0.10308421513311
0.110334654833935
0.0980264982600364
0.108246447437972
0.168788807376111
0.107796888639895
0.12456420210402
0.0907840484519256
0.0954813289276443
0.0941257008484308
0.12054471691283
0.106428889329691
0.0965247705627018
0.146992380748325
0.0855051128717081
0.125172676632701
0.0971201688307049
0.156124875326262
0.147048222203273
0.117357704952577
0.0804266021067816
0.134536775543127
0.137462767238735
0.103322382642636
0.115703229619969
0.0796092907278401
0.0928688948167032
0.117772437695683
0.0820391398512247
0.116154184376574
0.107593885071519
0.122909516141799
0.161056405944433
0.165555670898201
0.154854161156841
0.104161549652454
0.0850765997382505
0.088909783844635
0.0865959657835551
0.0989471650683178
0.0686371206185479
0.128100481333825
0.0943090573106217
0.0924616943630584
0.145009847094287
0.100331275607269
0.0962320598056201
0.0954486970247429
0.0860476164400072
0.103577520165174
0.130672128021215
0.152982796326434
0.114037331118416
0.117573747335465
0.126740121622618
0.105199089302976
0.111566235013328
0.104129840187707
0.109366314509634
0.104614100218802
0.130224358635138
0.117418606735046
0.116482569134028
0.123312401788661
0.117042268816921
0.154866567513785
0.171402808709958
0.124229844170795
0.183158694893637
0.149776050563195
0.217520149778108
0.160092940750663
0.15441578372549
0.154901514392826
0.153484159233828
0.159761161096058
0.148681690634181
0.167672176884657
0.203189234310585
0.161886719762106
0.175113105275837
0.160283521554248
0.177420211360879
0.162849820489147
0.222537069222226
0.178733380629054
0.256589644073272
0.226497075405148
0.217602731861847
0.199303411709681
0.180036168772346
0.196036992423813
0.186995376804231
0.188198849991479
0.185163513303109
0.185048865246844
0.218368019323836
0.186141137057925
0.19345022502976
0.184946191469144
0.194710116939593
0.193132695005988
0.195198997177755
0.193934201693798
0.197666999518524
0.203093498298491
0.204040684506656
0.188727645051758
0.284924482722147
0.22275820910982
0.218668323468799
0.209375764826806
0.225755850681725
0.212866276000652
0.217339810210706
0.241478912131057
0.234232091349301
0.227246497609024
0.230184885540094
0.224492901821346
0.230531881347136
0.238983370042567
0.271979624684993
0.223929806129404
0.247996422940007
0.214273996275247
0.276426736961036
0.280593730875426
0.265320882505926
0.264408431089088
0.250257477119422
0.244690612941719
0.242636811028843
0.242545265990955
0.242054059697135
0.248505039317035
0.241752692708487
0.247976709373513
0.237831913083965
0.242732231583997
0.241233012660438
0.237210610462806
0.267955377007019
0.241768079818701
0.242112138813447
0.235380721614494
0.242596044502654
0.23357113809331
0.265237435034663
0.254358459917603
0.252203387467214
0.246261905782223
0.249506580994088
0.257507112325669
0.258483579416401
0.235244607456616
0.240354620680854
0.231015080328405
0.240701959141818
0.232673843800521
0.246413476814297
0.265507278092031
0.249369777266545
0.24731380202855
0.241761352501622
0.243600007782165
0.244821486188942
0.244928810597738
0.24488022809561
0.250230316844806
0.253803748349007
0.257491123695928
0.247675514079341
0.250739895821116
0.262606189481226
0.265454768289858
0.267445565538102
0.251609558933644
0.248890598302472
0.244699393337167
0.243664185806526
0.253563454897971
0.245680319051088
0.231670038084608
0.236269013563971
0.232775423857817
0.236480723697761
0.26762177872407
0.236551963535175
0.24139677831764
0.228097554330928
0.224919201336288
0.222983540567862
0.220020083847412
0.217228526373202
0.214494916841485
0.217222152303085
0.210801130174328
0.212347035758882
0.20840925321613
0.209043709570884
0.20493990605845
0.211634628820116
0.208259960617124
0.207128327732599
0.206046680542305
0.202756298624654
0.203447775876767
0.204368302343621
0.206885615885089
0.201315066649725
0.219852713375004
0.221868658756549
0.223744290852627
0.210483291119837
0.212624453353933
0.213190099876834
0.199745732774947
0.208056585077277
0.201731878112885
0.205445237119457
0.200661752547022
0.204500611994281
0.198786891989133
0.202933848702285
0.197620696547592
0.204251466970951
0.196967515473869
0.198942571705459
0.198324644589863
0.203056732298558
0.198342471016944
0.205097478330204
0.20100347299729
0.211519484584452
0.202258379406004
0.203187033968753
0.204402197854752
0.201901679343822
0.204581572912152
0.202862001245642
0.204886396378724
0.202000726459858
0.200246113942227
0.200739501385854
0.200369537362873
0.20092128681642
0.1967515608049
0.199557748513389
0.197809784171916
0.199965404423055
0.197331686520961
0.194520220913551
0.190733488395085
0.194659282580521
0.18867834872767
0.18787277673142
0.184263170621701
0.185573838707023
0.182644053800937
0.179413132731977
0.179254964583906
0.178223331935896
0.171034709452535
0.1744671198256
0.173337204904295
0.172365763858449
0.174043843388762
0.173671771735834
0.169041250795985
0.170118938334462
0.165177035610394
0.166399612503388
0.166611419745591
0.166959197796425
0.166854470472736
0.165743584967129
0.166726319490269
0.16740653887363
0.166400004310232
0.169708919735498
0.167022942199717
0.169603414478692
0.170345227690157
0.171976380715559
0.17551846202411
0.176352932252255
0.175200441918128
0.177134163692833
0.175896120509441
0.177935513684611
0.179518472958296
0.180497210098607
0.180177321036676
0.181120456071451
0.181219922642604
0.181914931821104
0.186265262224022
0.182831679837383
0.17912747094228
0.181313316140886
0.181651539127187
0.181111268212442
0.180928359914597
0.182307425345742
0.179698959893272
0.180952378554495
0.179635499976613
0.178741958126664
0.178671098172908
0.180119429358876
0.178571379694556
0.175984913205566
0.17380030202547
0.177499867424956
0.177041427491402
0.17569231815742
0.174541911902219
0.17408179723719
0.171581881420379
0.171773649522864
0.170503949470667
0.169702924630897
0.16881411752537
0.169973860810585
0.167791881395621
0.169063846475859
0.167783473957473
0.166067876072452
0.165170007679421
0.166724445658744
0.166573969611467
0.166256324125826
0.164281663645076
0.164660137142076
0.164858716566461
0.163674831197617
0.162536014014647
0.163105166914419
0.161747427784631
0.162357390704864
0.160467357370383
0.161139731703577
0.158520050650887
0.159806416225831
0.156913934558955
0.155181645583679
0.153973307907123
0.155366922285688
0.154457034994416
0.151885084129031
0.151219593174472
0.149958469480459
0.149166269827519
0.150117369136874
0.146971962649385
0.146566336364633
0.145251577747365
0.146373392779755
0.145280948094475
0.146393444928037
0.146665595415396
0.146123288089519
0.144872981505324
0.144412212969745
0.144860742912316
0.144531248783521
0.142221193602628
0.140122398075341
0.138532887709453
0.138370446273615
0.136622464058935
0.135368355595182
0.134888670803545
0.134428471234399
0.131743166159987
0.132186911882866
0.131009877961741
0.131733952785999
0.135572790052293
0.138808910299618
0.14038649521533
0.146466799405126
0.152236440430551
0.153929919537047
0.159281153626079
0.168140809363059
0.17388577329459
0.181270615593502
0.191298294957703
0.200809867033744
0.208625093889235
0.217425072162199
0.224772194000746
0.234504177460897
0.240388680821589
0.250447497844505
0.257155224930773
0.262785917820886
0.271092433719505
0.278943029970769
0.28452965699423
0.293759632514389
0.297688369897172
0.304417006534986
0.307509172235689
0.315814969520101
0.318269120844076
0.325636836913684
0.329202730323828
0.334474754277361
0.336255994196444
0.336682563901458
0.339055964212086
0.340847958538387
0.341909267034292
0.340550350765444
0.340392051560954
0.345941938126933
0.343307707015232
0.346537906991477
0.345065041756589
0.345968734103545
0.345053679954687
0.350133824623944
0.351632354483632
0.350298938951757
0.35175289182746
0.356144908945104
0.356183447437608
0.358745694395075
0.362218872847202
0.366537457842682
0.371285141398763
0.372943578022211
0.375909426671004
0.377096025520449
0.384893523982374
0.391976705677003
0.396064847902687
0.402505847522841
0.407082282207313
0.412444083263015
0.418228312135605
0.422400994546168
0.427932059630717
0.435166745176218
0.44518536635738
0.449011138471203
0.449011601123086
0.453384750892301
0.453452682519712
0.457502306467513
0.461130465805031
0.456249867006026
0.461200468172235
0.461783804800138
0.457025424096301
0.453607557185417
0.451992619248325
0.45057261931607
0.447515610027682
0.452553320725108
0.453929408695338
0.458065415962726
0.4628425076176
0.472993837116893
0.473971776338967
0.482619591608659
0.493599492257697
0.497976695898142
0.511586822655135
0.521547463002998
0.528494701073976
0.539834943090603
0.547216542023506
0.561750537104823
0.571458144271174
0.577558783242409
0.584313219888327
0.591821875458832
0.600569336182833
0.612787695532998
0.621202192535756
0.631699088189215
0.641751160798318
0.658812308878228
0.676064826876918
0.68424597907756
0.693868428275009
0.707505130421113
0.717549771119739
0.731298966288314
0.741169518208557
0.74854700677255
0.756140932228538
0.764086789183197
0.768531043660483
0.780061235249921
0.795012532312823
0.790512599486942
0.790115509269292
0.788430443545155
0.79822958809451
0.800655504706238
0.787788515679641
0.786033008529053
0.78079500257062
0.775158029870648
0.777898538360582
0.772707242506722
0.768551201831151
0.763443520712421
0.755498060409888
0.758799519659052
0.754326224613925
0.752764888469171
0.766535716826435
0.761066490822715
0.764426314121531
0.778531153368659
0.790215062492423
0.792446941381668
0.80986220325948
0.811084540926385
0.823473419183789
0.827845392463286
0.807410585458668
0.823762415962014
0.840800845054843
0.846724928387737
0.845290900096712
0.863520296696549
0.863587864650379
0.853358571046341
0.852500214426621
0.852129662362463
0.852942735001697
0.864924315003446
0.869073590899858
0.841461511217342
0.848955440902086
0.854901770135114
0.844754818206086
0.854084946787927
0.855855028007289
0.848969013120489
0.823874092133288
0.820683686523884
0.824753613617131
0.828017874556479
0.812426796655733
0.790594662859624
0.790555237972765
0.776670663719026
0.764575243546937
0.764261709058225
0.754538419376985
0.729996177006187
0.709594353850914
0.693086274830105
0.66423771945571
0.64082832436021
0.618713723900047
0.59376483955423
0.574028153594797
0.54115826450744
0.520373910388681
0.487780638623642
0.465988724577543
0.449572004173997
0.428338244301414
0.413526226109513
0.39981984733635
0.385545297788414
0.378374994048373
0.374092939903267
0.369810380903904
0.368658874165546
0.359753961753782
0.355696298038051
0.352653512685735
0.346197730778649
0.338477568802785
0.334170658805338
0.332981738969294
0.324415253584362
0.317471233492347
0.308819438455874
0.304223057097883
0.294603880211477
0.285620016482513
0.275564753258741
0.265870930710302
0.260669958740103
0.247353337510149
0.233819395252844
0.224047684618357
0.214438207661614
0.205094815372514
0.191530612926406
0.182248944222868
0.174946482271675
0.161824880376907
0.151076374685385
0.145947073578502
0.139478238714489
0.130683790981443
0.123107039706541
0.119873306880787
0.113034580913692
0.10583328997432
0.104819000217257
0.101512381864152
0.0986555479624163
0.0973035491562242
0.092952212378931
0.090721870690459
0.0927519600022489
0.0903159905385873
0.090433730505228
0.085914972811429
0.0869438074689529
0.0868177243013592
0.0857143979592998
0.0881267467280279
0.0886977826878656
0.0895764186296985
0.0894966296013266
0.0890648031974122
0.0927504481979318
0.0921522238271006
0.091507624283487
0.0960356862611417
0.0964130580486973
0.0962484175440724
0.0954065611316801
0.0927366532382949
0.0929234803572881
0.0940071625012848
0.0921091137493345
0.0928038806324158
0.0872355434046132
0.0885461899715833
0.0877460922580454
0.0867054730482141
0.0850218281161713
0.0833798311362986
0.0853911164146279
0.0845144108666288
0.0843259494918613
0.0877829211763632
0.0909873819360343
0.0903155152234225
0.0913257289396968
0.0929702746910221
0.0924958831755662
0.0966762028732817
0.0977413235816121
0.0967669911837745
0.0965306616444474
0.0982790040807325
0.102475170799042
0.102797423047557
0.101963032485688
0.105824707663715
0.106359340698506
0.105252180042661
0.111864723737402
0.104495572788817
0.104142590121628
0.109073791023574
0.108246984855488
0.10992676742321
0.113388618940264
0.114612583181612
0.116201624270519
0.116170544808456
0.119218023633119
0.121360145319721
0.126572571608266
0.128375145220173
0.133949042945707
0.131956110228196
0.135560312343171
0.146827256875444
0.145060514100756
0.151760374837843
0.156708712584981
0.160989816547436
0.160090938097985
0.165879775514686
0.163654699774805
0.169856599221199
0.16416635958799
0.160805631654096
0.159173008321522
0.15228529900504
0.145899385578231
0.141067877412043
0.137460550646439
0.137238793802528
0.133569687708213
0.135461353897785
0.132770127566724
0.134929588140532
0.14098560862419
0.13505744699729
0.135633501881202
0.144649878800896
0.139283571603465
0.138064481563234
0.133267865655872
0.131635716791512
0.135261903882889
0.129260398113272
0.126475273687302
0.127648678582365
0.12037388438099
0.121401547189123
0.120240773674316
0.117498386635393
0.11861244188887
0.115038127438938
0.111010475845811
0.116173450961964
0.111576417752381
0.114484898932534
0.114349503419503
0.107164129003835
0.108920968712902
0.109770990087576
0.105458785886568
0.107641911183449
0.103966218695644
0.103995845815604
0.0985718161514845
0.104470618951344
0.0971562676383683
0.0971256099782864
0.101323416395601
0.105516032461863
0.0977476113035276
0.0932272068552488
0.096525969542409
0.0896331314555375
0.0900150934686584
0.0938106040889709
0.0885355416219523
0.0903267613588616
0.0862043686695682
0.086090585539863
0.0819257549015115
0.0798536078989405
0.0850017336267672
0.0927303863168261
0.0820147098095509
0.0855723903382919
0.0904369783073163
0.0819378709621439
0.0782824278055913
0.0899590889810673
0.0857189251062439
0.0841501865167845
0.0839782175921029
0.0841297690524525
0.0811517568623313
0.0849759699143906
0.0913835045782259
0.0915392576971265
0.0863255857654774
0.0951566243133533
0.0899886644054712
0.0873496787009482
0.089217256969606
0.0978109378760892
0.102763869893459
0.100509852813823
0.0960010412382336
0.100569687210714
0.0974532053025902
0.104803222971264
0.103487519697726
0.114598592533865
0.101650246737732
0.104693218186468
0.111803615148767
0.114744044806577
0.112345033277416
0.12305311444503
0.122310097703871
0.12214222372329
0.134140748902761
0.13727212929471
0.136734593411782
0.141509458460832
0.141629351182284
0.145839642096496
0.1549035513287
0.177495981413505
0.168149134023879
0.16479060092236
0.183133733179126
0.184889869178708
0.187954449608759
0.181467665219216
0.192152857759158
0.200014827583397
0.193887158217081
0.198394960637999
0.205374985730324
0.203099532612372
0.192351352812282
0.181620980254721
0.188014497595195
0.195000890400403
0.176693164722605
0.170178054516336
0.175866461248009
0.176307584867812
0.181614246365014
0.176849306651752
0.166726812881322
0.172497911938804
0.177388920830869
0.165654181358605
0.157843080123687
0.171221598255456
0.16008547788345
0.15186821230743
0.158769036673605
0.170762712404322
0.169591855496931
0.160928502283386
0.160320205207106
0.161506363582228
0.148405760620562
0.158910520317701
0.149552353807435
0.135402773475221
0.135128807812606
0.152515380633491
0.145734156206657
0.138371131543745
0.14504599274095
0.142365026623689
0.145150518771073
0.146355280521512
0.14499335501189
0.146212273305249
0.155452876847357
0.157646586581444
0.149725530890191
0.147506068821707
0.163709104949672
0.161890869823447
0.160036522151158
0.143958247520733
0.153184447470484
0.149831923394373
0.138694187468129
0.15695231568488
0.149913854455426
0.181537524447601
0.14459406863511
0.151481373966085
0.140130723172305
0.140873852931493
0.161817295598873
0.162125128231891
0.153711345560211
0.148035246715756
0.153351771054089
0.147444367071033
0.155569355348295
0.180288028917146
0.158127942700435
0.182951815405535
0.188660026438018
0.182207737040595
0.190590057244298
0.175955875403896
0.222113235382012
0.24680990752929
0.217380111086479
0.177032313593342
0.185073400106714
0.182272082769773
0.218495360719588
0.253457775136254
0.241039511380187
0.195614443531551
0.210076790499743
0.219551251793223
0.207163102854806
0.231801193922714
0.220798819876954
0.208952804701302
0.243960279713357
0.254322239802015
0.19915589367366
0.209727622968512
0.209596774593675
0.181729105785462
0.214018132157634
0.21995185854641
0.186739112844426
0.184956339981792
0.197343628158226
0.181212843787381
0.210067804120068
0.170562023741234
0.187858581964454
0.218809021998435
0.255793358996518
0.230978524674313
0.173045251786389
0.145704169349705
0.212445438897442
0.230579797262908
0.176070169345883
0.222995101916131
0.149233556339521
0.250133371900015
0.202446039826316
0.203656086931935
0.237946715096052
0.0956689550553626
0.280769565595774
0.154078766730139
0.164009222422493
0.10101431978076
0.135397717497428
-0.0410083302427669
0.113957900055314
0.225795512403539
0.1989262308622
0.133902053363431
0.235166495532185
0.207298053123772
0.173810197969831
0.257111777095317
0.199126260499298
0.19971983766503
0.0916312661931162
0.192656649670748
0.343209473980408
0.0658691861314558
0.106025853220563
0.44264596869247
0.284107039144357
0.0339516705413394
0.511172394585418
