3596
4000.36533379555
650.420452594757
1
2
2
0.0327039356641434
0.0317049759434494
0.0374125006769169
0.0281676450367883
0.0346439227310837
0.0274333936207275
0.037351334866729
0.0258860269914457
0.0316671720080386
0.0219919262067927
0.0363805216748177
0.0250513248873772
0.027728118388141
0.0269415910065456
0.0371505857038203
0.0269923130490173
0.0306068355295296
0.0300168268655788
0.0360503035918181
0.0232385623946769
0.0361360198815203
0.0269300884924005
0.0350012855872412
0.0206359666495036
0.0272974831257553
0.0283667941539361
0.0318535173145602
0.0255295986399368
0.0288273075643806
0.0239837291117105
0.033921059015497
0.0271994502355288
0.0356874549578958
0.0277901768254337
0.032355988038014
0.022044822785703
0.0316013452734113
0.0317818752130843
0.0378577157934479
0.0196601863126305
0.0319259897758415
0.0337771012753585
0.028222768949908
0.0251490764648003
0.0337548979684113
0.0289757229664085
0.0381071420670488
0.0319856925961819
0.0352177544378065
0.0305952221438096
0.0400497052506302
0.0312868589805629
0.03817994485248
0.0316387375827163
0.0279597153741597
0.0290386106282203
0.0435414801318662
0.0252069094450003
0.0258928997442881
0.0264724100911155
0.0333401646640211
0.0348806614402716
0.0361361242896011
0.021574301851171
0.0300065639437421
0.0221470073132937
0.0393837810752084
0.0245811522120947
0.0312111012585604
0.0212675167930125
0.0280209724436634
0.0253115730166552
0.0348017502641879
0.0295838250812618
0.03131849179137
0.0237864930944896
0.0351827642559036
0.0235482073343301
0.0269217308158528
0.0265460963208675
0.0340316506132534
0.0302797207288535
0.0321672285955468
0.026299394362835
0.0292041415151547
0.0244676087481659
0.0347737187100614
0.0145821075669354
0.0429289617210123
0.0292480802121435
0.0277985975162997
0.0202519830845804
0.0252963779484166
0.0246985241793151
0.0263283621794028
0.0198140932126548
0.0325100407077218
0.0221815387178817
0.038276296578303
0.0355007427963221
0.0208234331498827
0.0124037561190721
0.0275687437647594
0.0370639011145189
0.045829159705562
0.0342843486334383
0.0170691040114711
0.0317595234667649
0.04674562862085
0.0292330465954569
0.0378588569165196
0.0222977677758211
0.0289185921373837
0.0223548646120634
0.0249966885108044
0.0202514497090017
0.0441190968790923
0.0283632837093143
0.0261825033317614
0.023782481293381
0.0204914660647422
0.0231252890110835
0.0526329601208422
0.0300150752823723
0.0330423558435503
0.0247498370613153
0.0177916890485242
0.0210646561918802
0.0445974594859875
0.0231369235760543
0.0239226135810519
0.0282910624860669
0.0153176541543966
0.0131135645924124
0.0401326586744263
0.0341985790781456
0.0188946204613606
0.0123861703023513
0.0209207636046619
0.0465486507680114
0.0458526913639903
0.028251827494354
0.0174173105964365
0.00407338251693639
0.0477783538488496
0.0329306349792171
0.0217403042744693
0.0306342835375149
0.0365201395220194
0.0280609185860535
0.0248682862002212
0.0225325597673378
0.0437998188314708
0.0232623438539784
0.00455824534695479
0.0120139230011637
0.0454186909949367
0.0306562447112817
0.0288039213559761
0.038291591454223
0.022652183042277
0.0414449569166428
0.0214206462116547
0.025450903916323
0.0178583048734001
0.0191160440241103
0.0191970804359476
0.0352511539455616
0.0262047390507972
0.0200125483262245
0.0350913348984545
0.016866949276474
0.018786236793737
0.0392022897064665
0.0397207777332939
0.00982479267819149
0.0466727714625938
0.0369646435941537
0.0135159591570324
0.0317990222390039
0.0474073678344193
0.0333331300269889
0.0247475652189275
0.0279814596608766
0.0161258197564674
0.0327341082109106
0.030591904902728
0.0231329304916781
0.0228602381401588
0.0170403082573394
0.0106458697967077
0.0392521451659489
0.0384586085489688
0.0268642244822836
0.0201189875053786
0.021821133569674
0.0178412414554397
0.057926491310232
0.0327329638342321
0.020835061483766
0.0240577155231327
0.0221700624765715
0.0217714556938035
0.0237371833708878
0.0172429240258314
0.0120357132061475
0.029924002734137
0.0532106333585101
0.0279365554292574
0.0267053383859404
0.0124587939464811
0.0202756501942178
0.030299914279489
0.0518728857213203
0.0321213155514409
0.0262019017512959
0.0230927090299504
0.017471589665192
0.0411542203801275
0.0307655314310935
0.0216967766525358
0.0296493324244983
0.0278924356678443
0.026864600989776
0.0286651097810167
0.0261619510083777
0.0301860842174805
0.02599450941238
0.0226979111885296
0.0241277884660289
0.0325163389796199
0.029974416712437
0.0338464595697777
0.0255174337276392
0.0173483791779178
0.024479924684806
0.0378691007973954
0.0392791289845835
0.0270398689039669
0.027916805101259
0.0212546134801265
0.0320640413530848
0.0269038461067394
0.0315755146843429
0.0155588770890656
0.0202656884373676
0.0200455697344503
0.042729663796151
0.0205205862691067
0.0237731883338529
0.0183882486805782
0.0368319046266214
0.0281053259516979
0.0242843002067807
0.0279039525489007
0.0250905298723139
0.0209161432603042
0.0306364352345601
0.031337518464198
0.0275125298191959
0.0348228574521605
0.0292729011718928
0.0240824142072936
0.0159493585778757
0.0111122939206651
0.0389706952698923
0.0350391585457629
0.00881064240255922
0.0459835530841539
0.0429828832645846
0.0288751141113983
0.0192507337768019
0.0120086064554856
0.0579713983145488
0.0586511502261503
0.0276986388503787
0.0310772728668989
0.0320377019376478
0.0296341369520321
0.0233135883506214
0.0269833216611923
0.0297438340890418
0.0117813893560838
0.0574973900022177
0.0446162815700686
0.0284500436939053
0.017707266221757
0.050323659750781
0.0350978728134551
0.031564522773644
0.0167850539032655
0.024999878096124
0.0277020595890249
0.0352469551828581
0.0376322347943684
0.0258370431358191
0.0305800119391229
0.0494065253702326
0.0366177201923922
0.0195556501840705
0.0353993142226155
0.0316748277873923
0.0410179240624674
0.025593534652789
0.031205421998289
0.0283704219977313
0.0207082851304668
0.0186474228689699
0.051943657887504
0.042899608751338
0.0285554984863451
0.0414403456284063
0.044196983589462
0.0257799736961339
0.0297767990828694
0.0312101463007797
0.0395020759504057
0.0204386392098581
0.0212102300089405
0.0332903312940131
0.0464622504026669
0.0307911604983942
0.0345232659183688
0.0342853523014695
0.0348440366124506
0.0355480560889703
0.0338593105775466
0.0316689226478573
0.0346225839945664
0.0283003158605537
0.0444003493994046
0.0388963340976416
0.0234863639597648
0.0373990784979345
0.0605040063498775
0.042136430043835
0.039899831022538
0.0429164079196813
0.0347393795623453
0.0406034340838664
0.0425600855629733
0.0326446310046807
0.0328153660001004
0.0472687964728664
0.0457597787029832
0.0363958825794788
0.0187633992441125
0.0701078240689426
0.0654307304526854
0.0557513911441076
0.0366128139502492
0.030742457377851
0.0369081324929234
0.0629562379685337
0.052086986962196
0.0523144965015601
0.0586969027185933
0.0447522398738521
0.0554356815853593
0.0466379143316338
0.0526717831759441
0.0549598227607613
0.0587396845435924
0.0475330788865098
0.0617482979947954
0.0598716641591164
0.0548881926045986
0.0522767708873464
0.0706952831082738
0.0724475363102102
0.0639100697475409
0.0640856699216497
0.0603839616816231
0.0530478653795732
0.0843152015157108
0.0839737092701437
0.0753174284048515
0.0880828420358945
0.0798606029147083
0.0867363302804967
0.0764721726159887
0.086593969687811
0.0745454426272608
0.0868219905332224
0.0792126706065485
0.0838258391764259
0.0789778531491915
0.0865511741469488
0.0890232357395393
0.0926713732889512
0.0785327552662674
0.0902513267345624
0.0929859132531572
0.103861423206246
0.0890529888463784
0.0954498944769217
0.0854096074590925
0.122216869280253
0.126996110931122
0.122888615728602
0.108963024545829
0.108549855094967
0.108983343613443
0.111682178777935
0.112768187245194
0.112422503145838
0.115728479743956
0.121117038911524
0.123431390432088
0.137180290527338
0.1291911737569
0.127825620642572
0.12412824680631
0.133559754168401
0.140495027079888
0.148783777329159
0.142589855242772
0.136606448344126
0.147347725222191
0.158369302032835
0.15783377147098
0.15390695946947
0.155613575248936
0.149427461658326
0.160850801364699
0.158508702289008
0.164766900720968
0.173743909160647
0.169961556883177
0.168772796703732
0.172478999422018
0.169725101416832
0.181916660637815
0.183083130554778
0.187312603096518
0.183337110680295
0.189079324746803
0.193132409623921
0.180761223625033
0.194643160867216
0.201597125776023
0.215711918381419
0.222429778794204
0.216862733408826
0.212027373254645
0.207181348722653
0.209719621829091
0.228457640428629
0.227613090561783
0.225996472798008
0.221379056646244
0.229908004070346
0.232631289895908
0.233524235704878
0.237603585261102
0.240998125122507
0.240599514720282
0.245006744786458
0.243943879075469
0.252415772127128
0.244813210709596
0.248672281914742
0.263594790194021
0.281460282070399
0.293511484021558
0.285838294652502
0.289773587781777
0.283238637865301
0.284219912206124
0.291001674469273
0.292880059763296
0.314586358039757
0.288133417347089
0.291819265352011
0.310312063694206
0.307315363616292
0.313984570244646
0.32574789666893
0.318985413829808
0.319147143116715
0.318701208802364
0.328513220938423
0.316304194518845
0.346733799380558
0.346686309367057
0.34969109784996
0.339652077076563
0.346544021680088
0.350220099248191
0.367879356684363
0.35455525393195
0.374994749907236
0.358027241011475
0.382413328642157
0.375781756925201
0.37871060725047
0.364907270258935
0.387877292077048
0.410307599160517
0.402267961277695
0.399197957126923
0.408880430217679
0.405731084612597
0.418981400126677
0.416922628630383
0.446097951788449
0.42636337595253
0.417904454012328
0.407659442197055
0.426021485373105
0.438088406573013
0.4538511364168
0.442754582023159
0.45835818724413
0.441765758015328
0.466195073796805
0.462819789861633
0.465292626057322
0.472069392009372
0.486916082313693
0.459990118599543
0.483416558501245
0.482975435737847
0.510193829281173
0.497794879057476
0.498225221060565
0.497519387869429
0.525981599369248
0.497863270340876
0.540264817422101
0.513163853727007
0.533555720968534
0.529122591772036
0.54554230679172
0.514490758133428
0.566230489272582
0.532184103105243
0.545859292783338
0.539790107283301
0.554717127548197
0.540337896987115
0.572322500605197
0.563126605373254
0.582438405341079
0.562802385710444
0.591090520362989
0.580930778790448
0.60982471258975
0.585898384397163
0.600884561667048
0.588658244882473
0.60929467752132
0.593556078718793
0.630183045379104
0.602340063697605
0.646983976120906
0.623803025203667
0.629121704331547
0.617998839856432
0.67614469559841
0.63304579208265
0.654010986100118
0.624192781510705
0.652709584719152
0.65811024427241
0.675220743280577
0.663043849947538
0.691716861044259
0.656962265296565
0.68095361518702
0.667917897929546
0.726504407838249
0.680630419062832
0.701106738061507
0.690260019173829
0.732726085016713
0.678974465121118
0.701738303775618
0.734669411932594
0.744538062645737
0.703088808155751
0.750011321744109
0.717521411631567
0.7376822771909
0.719304246598677
0.767719182267972
0.720043238996677
0.742572804871962
0.735875889967055
0.777582834845431
0.735891019682466
0.824127708392154
0.77080571815268
0.805833621401406
0.784088250998985
0.812154265988136
0.761506798180722
0.840401520602048
0.802123955395951
0.809110015766335
0.754941811454231
0.839459935454657
0.776073550102208
0.821613489168505
0.79910929976027
0.832494427154343
0.778261566744994
0.836344577551783
0.792705491882796
0.823568503278187
0.835525802482015
0.869197986610305
0.823599005450574
0.839109513198147
0.84660099871322
0.833336885247263
0.818278760262844
0.912582679656616
0.857761397458526
0.889086730109589
0.832355455641003
0.904395927558647
0.85772241884244
0.91008148963415
0.848211103987712
0.942636425069754
0.910521323988372
0.909400624871127
0.848674608763632
0.931101113729219
0.90694229908225
0.953057955400847
0.883083560153733
0.917245396484529
0.893368234362534
0.928015782865909
0.907837750721119
0.922903921443212
0.89750168441779
0.892596371639997
0.933523511586038
0.914333918195824
0.870636207412152
0.966502109200871
0.925741821688425
1.02118589320574
0.934184433143137
0.94824980552527
0.917048285492704
0.962869091354607
0.916660220934218
0.958968543110916
0.987422395293955
1.02364872027144
0.949318687571151
0.977557094602862
0.946140206661294
1.00595706492477
0.958089889117321
0.991716900088997
0.933447991177394
0.95437728108544
0.970858863166228
0.964983225642707
0.961755727407277
1.02747824188076
0.965361793161203
1.03801635682396
0.978026292237987
1.03992696230275
0.977659723409823
1.03504072518442
1.01644318427749
1.04338948206108
0.938700047316814
1.00416778589527
0.944398372480686
1.05592030624474
0.986406242928086
0.994361141084382
1.00041800630654
1.09266334462172
1.01847248846221
1.06723739979397
0.937480384053521
1.1070664024059
1.01955485429428
1.01081990401339
1.02747071343956
1.05193052936582
1.01518095883721
1.05606804529028
1.00970343024486
1.07308138598986
0.986256312099264
1.02895853411201
0.995066140257846
1.0549611161831
0.997505777179556
1.05451299443909
1.00130380126064
1.06213751749612
1.04417581862884
1.00721426155987
0.994539503950185
1.07601584204087
1.01838979437197
1.05219732122152
1.03593632652623
1.03858414144276
1.01670554367604
1.05674889275525
0.989569223288069
1.07287798228532
1.01654742315784
1.05448523059727
1.02079570734899
1.04361183413317
1.01566744341194
1.10098488639222
1.00481184642024
1.09942330903434
0.985444340848005
1.10755194127799
1.04472113654646
1.07722891194476
1.0342639958014
1.06442422115149
1.03851713315734
1.07112425674683
0.97916631886286
1.03230919787379
1.02287617142909
1.1064616773118
1.00464821469233
1.1258266900542
1.02025690171065
1.0810942284178
1.0810979790907
1.0655645956664
0.993597888260147
1.1115493606335
1.00616025742348
1.06025835774115
0.964829191942274
1.0367008793995
1.01480849344365
1.07111057316322
1.04621147260805
1.0826178144622
0.986173251458521
1.05579364314433
1.00263458083554
1.06587866629857
0.984493256220359
1.05296598541702
1.0026188056845
1.07546589456148
1.03323048285178
1.04526427637145
1.01951646539671
1.0669771667491
0.994363772442047
1.07233272529895
1.04896429345711
1.09350302087059
1.00329792158457
1.02503427994233
1.03774447023421
1.03313189712252
0.986033609720624
1.02217507236665
1.03013157507936
1.0484250625007
0.997428419539033
1.08923005302736
0.966663216177091
1.00179479432804
1.01712874025597
1.05315680587486
0.975693761015316
1.03296275653073
1.00000337583702
0.997158544876018
1.02456019658562
1.03258378552996
0.998295252170481
1.01566247849068
1.00876299632966
1.00976556103572
0.986924047139201
1.08539935679048
1.00479884467718
1.0067414570075
0.977028011310123
1.00468545275721
0.965904478913829
0.998575415528132
0.961293742432974
1.02576396163503
0.952727031082082
1.01587882997089
0.949920732014816
0.98872903748298
0.93765540749485
0.976049730504292
0.941051474709373
0.977112559127435
0.953102682997417
0.980931588719282
0.927346944389032
0.996466324822768
0.924526336776897
0.953651977399446
0.914159467952388
0.962147709946572
0.938324844327152
0.96483572671979
0.964272167533207
0.97172339006473
0.883708282664193
0.920281547319866
0.901189665008633
0.941177005561428
0.911894891757863
0.92376197059277
0.900342545299433
0.927559152898115
0.906220681559691
0.94463216795924
0.912212482277192
0.917467225547873
0.854679567052516
0.906656353993225
0.891043510429023
0.894475347611253
0.897154806051982
0.900237468368514
0.856421776180093
0.906678682501663
0.879379699404802
0.89651773739863
0.869424343399506
0.884762773350146
0.850009775370989
0.901748211326212
0.83528781056806
0.885633266721346
0.854802862648652
0.85519235118389
0.84870615509412
0.869084745870719
0.798000001346796
0.849416967815649
0.830767641371128
0.848614981777964
0.807502397949587
0.837726509562768
0.800573306595283
0.835552596694074
0.814638853823802
0.838179918186635
0.784151779203532
0.810169005845013
0.801195447748411
0.805079220509665
0.775360470292092
0.806325537644096
0.790156862701379
0.788043676898105
0.762022007965814
0.807065534915566
0.780422502747814
0.771627748915482
0.757840216880452
0.772756629751376
0.778179424557015
0.768390671040295
0.763927685758474
0.752004768997577
0.729377315080223
0.772085995954168
0.74083392803934
0.767231142152442
0.735792812700926
0.732293797359972
0.716568623429263
0.737812729499495
0.704284166768122
0.729094504688906
0.693931699106013
0.721991319356717
0.69757106443507
0.717428918125127
0.700947034347674
0.712958546884671
0.708647048306679
0.70991664303805
0.678679964458926
0.701571979982596
0.671862497694263
0.676899388028739
0.666003923058925
0.68723933674172
0.663619428617344
0.660922874848635
0.648826221376873
0.653857213437007
0.63780529767481
0.661179531021139
0.642285373643019
0.656575421214315
0.631083642379496
0.64441804042331
0.618359529939205
0.637897467494723
0.625987832203471
0.630754865739512
0.60245478159484
0.640372409874854
0.607576842288125
0.626497939370013
0.598555483665262
0.610273524650357
0.59291372866618
0.600705934730461
0.580012564644002
0.601426000057352
0.568835268291069
0.596276061088688
0.577111116394403
0.584843901729066
0.564333160766707
0.563851644053317
0.560789923704442
0.568891532145759
0.551455413313326
0.556464550110104
0.544571051448512
0.55627305293118
0.547727235893094
0.549651925464787
0.533691068173479
0.545876849397434
0.53264073179124
0.53842831960626
0.527983317590362
0.526269953829284
0.524848303074989
0.521292236152635
0.511260891681907
0.524491466714148
0.528118045674105
0.518310094812582
0.49968301505398
0.499582585786623
0.494013733086761
0.506705728618876
0.491866589616884
0.504409006407864
0.484585005451771
0.494345854446514
0.474739387623737
0.488798436603611
0.47641854136375
0.482126224892643
0.472452241640979
0.47377429959712
0.463586349468966
0.463603393137546
0.461782387986217
0.464346099671152
0.448272419378591
0.467705910213852
0.454745592131776
0.456019842228095
0.432473294027972
0.45153048989835
0.443782110069542
0.443787652954974
0.442460057090268
0.440260849366134
0.425325070644572
0.437803264752693
0.424060746056042
0.436984296784012
0.419491423369454
0.431694613534984
0.412871960959243
0.428775991787246
0.414238691412838
0.425479116119588
0.410201237943863
0.411222997103351
0.400851467175675
0.408194660854099
0.392074810607246
0.407505635291783
0.390811576868309
0.398914540733303
0.396565315463448
0.39479057481622
0.385816242496227
0.387532125006045
0.379192579843178
0.389849509641644
0.378661083904247
0.37459478401396
0.370432394966281
0.376176636496079
0.358188825710413
0.371827227687252
0.363713506180657
0.370225822862276
0.355754025462473
0.363559645573176
0.3525422109187
0.359665471170651
0.348461010111915
0.349542181844233
0.350009184105073
0.355990915108762
0.338264202910493
0.353830206223798
0.340247957764239
0.33802473286572
0.327765869031333
0.333368429960827
0.324370102305268
0.331138323354294
0.319350739675197
0.328855983493914
0.320385504324534
0.32753916265342
0.317702784006024
0.323318861172048
0.320598006163089
0.321208387097196
0.310773215532055
0.320488368801842
0.311522230144194
0.317690880960243
0.307149085482566
0.300564292039855
0.299918164804473
0.301384086346623
0.296885903907048
0.295500944244967
0.287926306096783
0.295392701398833
0.285713066842058
0.29769432180162
0.287773117339641
0.284881384821928
0.285034028361483
0.28491735224049
0.280019681788102
0.285679480992786
0.27719304567267
0.28800646503661
0.277777978144731
0.278490243828417
0.276537263140172
0.279465550959367
0.270711897579758
0.279912576333039
0.270351196752588
0.27804953013138
0.262808040483883
0.271562973068239
0.26982008954546
0.273267272426687
0.263273935423816
0.267119158862055
0.262677222020195
0.268377013566901
0.259607941972026
0.267819522988113
0.262809311574375
0.265173205514746
0.261273758239777
0.263455681757653
0.255548135760633
0.263873885392682
0.261646127474376
0.265426199910763
0.257795415452679
0.273770312776009
0.268255871049663
0.275467152799798
0.267693497581014
0.271874715546375
0.271985239877327
0.27732608168058
0.274513938740576
0.275900395248716
0.272747351877868
0.276904166985589
0.269767559370909
0.283177830399874
0.275415107063053
0.284728570870609
0.280676355719915
0.294346764205892
0.281166316240269
0.295539554898433
0.284524190814118
0.297845007518081
0.293333580629202
0.295107066354459
0.296252251142265
0.30422993625907
0.296293440179139
0.307057089402449
0.29938286383019
0.308661278796588
0.301095138118491
0.31827284713802
0.305436493167265
0.311828753505435
0.317271397276176
0.323647422116078
0.310812754132622
0.325948172863947
0.316814380902184
0.328150914140462
0.323820942710959
0.330045576466049
0.328057043108342
0.337618336630477
0.339682629880898
0.345652674662808
0.342496396563829
0.348009997405857
0.346067189127427
0.361040509265792
0.355902457472561
0.361796241651493
0.355533170396973
0.371659606713701
0.362970524392877
0.373012840693913
0.360867660281737
0.372366509171163
0.370641408076684
0.374172702605195
0.376364576091544
0.37222326858898
0.374412095568784
0.389180107286755
0.367773188195897
0.386484540948294
0.373732268245719
0.380145188886143
0.37289785530253
0.385428601792709
0.37089249508254
0.373061870322836
0.378925533335687
0.375195154172505
0.37281670070023
0.372708439284895
0.368302153729996
0.377671560142042
0.367049461835799
0.370629977015267
0.366266362808532
0.371626656738717
0.368945406955477
0.376194577210551
0.362356930070211
0.374668596342542
0.366102717204345
0.380229873946442
0.366959709930513
0.371631823037308
0.359139483358475
0.369567835064094
0.36036120810795
0.370722601531649
0.356797148041191
0.364146272684475
0.369600693246563
0.373114390762718
0.364567533507397
0.373645673105098
0.360479968455314
0.375634114086368
0.363681034648612
0.369311336093491
0.354770084193406
0.36745380837693
0.361627788239241
0.374879728511195
0.362772083471009
0.375616706974373
0.369578595747939
0.369014150615727
0.363982916157921
0.361879405392301
0.354224688739496
0.365282534673862
0.3539389422479
0.36478474554104
0.352712290983288
0.364962376884088
0.352315972854322
0.356993693928572
0.344598471599157
0.349506982875429
0.33724604808206
0.349962746522487
0.336751578081151
0.346686235210259
0.337095434114379
0.34069172021687
0.332193354477184
0.33618553409405
0.322876238047917
0.322997446127306
0.317296835485059
0.320168797330726
0.310498502328273
0.317577318123346
0.312464865688565
0.313891022615127
0.304189758150332
0.306747660519506
0.286952903657542
0.296023836656664
0.288074763149211
0.294075502016825
0.288292147782571
0.289041808244116
0.282433300906563
0.281863553740299
0.275068942451863
0.273610778488197
0.269187498136865
0.27764416129553
0.269909561258959
0.268886395683471
0.258887136898876
0.263567570531627
0.255668219897089
0.261335873768522
0.254895666829123
0.254542021332644
0.250823463695135
0.254188643964058
0.244050047384518
0.247491353580902
0.244003119043984
0.245415248250207
0.237841508537609
0.24692135738538
0.234418779253295
0.239825516454841
0.233749729133289
0.237428600773571
0.235091337112972
0.235176822374035
0.228038649876908
0.228613983594301
0.226815856921974
0.226638911496215
0.221449647169876
0.224482942135137
0.219191576356207
0.222497173286697
0.213939621223759
0.220005383893971
0.21125281999505
0.222389555823057
0.210912760980604
0.219157064755332
0.212483153502948
0.210280969002514
0.206473522328106
0.21548317308714
0.207793687955531
0.209553004916055
0.206458572631104
0.211882713641865
0.204877544926023
0.205139084088998
0.203053536445394
0.204970200622469
0.195263912588805
0.199643146437545
0.19537224565817
0.203073545402941
0.194987439239253
0.200751123918987
0.196246049614087
0.195679661886573
0.189441733305534
0.19433648075302
0.184776304958318
0.193184642499835
0.184912654372074
0.189797246298895
0.189686740915461
0.193122328390839
0.188734234498841
0.185931204701861
0.185260355002996
0.187219185533959
0.180794157209048
0.190966780810779
0.178208502007551
0.187849930393096
0.185765056176446
0.181796904752259
0.180368648019725
0.18254447266339
0.174397754318617
0.180705490836219
0.177384518384825
0.18204600678682
0.176756774551064
0.178753052084014
0.175547884337783
0.177347785357506
0.178425032081706
0.174340357649621
0.168105598216163
0.177110502136641
0.170393999322686
0.17543351881719
0.169877505241425
0.169623637850332
0.165524737994175
0.173832326179409
0.168184922158228
0.175407653590083
0.167071809143291
0.173703494584371
0.167634155094736
0.168936033463795
0.166855502136139
0.168044298050089
0.16401439608928
0.168184028903095
0.160089650510716
0.165199306127393
0.158239056846448
0.166532269938607
0.161087466677868
0.164723061780351
0.159867107062902
0.169033285311912
0.165082788888622
0.169063570509744
0.158842888974366
0.164664916237038
0.159706068951049
0.162500628859144
0.159214949460546
0.160854761088198
0.153301407809606
0.160833404323697
0.160285912503925
0.162248126412489
0.154638599606208
0.161790443837582
0.15527482345866
0.159438222768685
0.153587320301417
0.158068513673866
0.158241100977108
0.161328634389141
0.15515496515214
0.158567328018942
0.155000539591365
0.155401691028553
0.150734851842178
0.153855847290154
0.147816936394762
0.155788529974499
0.150046671642599
0.156382446151667
0.151440259696832
0.158225598191837
0.149993263878154
0.153710760531473
0.144289360741019
0.156294806499116
0.147333570369446
0.153429488487197
0.14804917117895
0.153861847828991
0.145021977009058
0.149857644262617
0.146407355072646
0.150401204628668
0.141424902318494
0.148817484517819
0.142903888628173
0.148501838756939
0.139562937479742
0.146902972128189
0.140367604354207
0.14163174667405
0.139861336919805
0.142194932426505
0.141687765661339
0.144519335934016
0.138026879947323
0.142459106786896
0.136954059727524
0.141086116573312
0.137656797116518
0.142426388876558
0.137307541518582
0.138438146729291
0.135726084869291
0.139442584994931
0.132211041401873
0.135275813562778
0.130572488831008
0.13759235309903
0.134489210591816
0.136012680873113
0.129697063451087
0.135652578090229
0.127411645695458
0.131290987139115
0.127981200628493
0.135731283172787
0.124662367868991
0.131175560969381
0.125824631226856
0.131939046155491
0.125661686294388
0.130903546911697
0.119147666256762
0.126451309446001
0.123800947037985
0.127424462870425
0.120909123564081
0.124082800775
0.122364174600489
0.123754444487328
0.118246926079946
0.123396501602477
0.119735001070724
0.120612609775273
0.116097016591562
0.12009076497827
0.115627988331693
0.118058935801381
0.111853041199164
0.115859592906789
0.111255575853958
0.11772697207742
0.108785879207501
0.116017892007839
0.113292762972833
0.114739270212422
0.110460264495048
0.11688997448435
0.107324500743358
0.113048370055393
0.106604573221851
0.110580297326136
0.103370009181131
0.110690511181889
0.109504710588607
0.111373341038531
0.104945041586327
0.111428542409595
0.102424100294544
0.104416274524901
0.101350159147901
0.107396684900186
0.10055265929673
0.108398234897034
0.104242872513337
0.105382129672689
0.100418796380643
0.105245409251564
0.100102228278223
0.103816071302968
0.0993908144971181
0.100781877672904
0.0938416066868502
0.100277716585331
0.0967055631872644
0.100288722874038
0.0983072291975699
0.098469343965124
0.09451681267307
0.099205156695716
0.0950160363212956
0.0972566329555497
0.0899046408805258
0.0977176631738564
0.0920568425134578
0.0975179013598002
0.0941738469776534
0.0955751022647073
0.0941455564285243
0.0967738825398514
0.0902618871825879
0.0964615496464031
0.0906894334743419
0.095696585663939
0.0885289979246065
0.0928072460137191
0.0897007366849979
0.0940509029468932
0.0891074449078231
0.0921034847969918
0.08875752601704
0.0886530173449513
0.0852801210279661
0.0885076859513424
0.0865225824841047
0.0880718006668378
0.0832906420249665
0.089265402784604
0.0845609015814182
0.0883358740121208
0.0841993465886991
0.0865276973624154
0.0826600881699868
0.0913316767101445
0.0857468743689843
0.0873344049760645
0.0837145490465596
0.0863667713213317
0.0837039658746228
0.0859330402446981
0.0824044875543489
0.0879402926330777
0.0816078679713005
0.0883526654040002
0.0827752440221443
0.0852289376498196
0.0850672874108019
0.0903234477441165
0.0822620790213002
0.0857223366828087
0.0814750863101502
0.0833114407775788
0.0805864907096366
0.0846708585485972
0.0799695032986086
0.0842454566326033
0.0791531811446176
0.0846529409151581
0.0806181922269081
0.0841341303569164
0.0785614577459066
0.0834560945794923
0.0765542881222976
0.0808469978262337
0.0781686590576261
0.0817865442138871
0.0780253469831976
0.0810642123960777
0.0776218705726132
0.0821025258900909
0.0780933191313626
0.081290015942739
0.0757010367364455
0.0830559613233423
0.0752701056297592
0.0802817315923377
0.075443361289093
0.0804231130484581
0.0779170583992701
0.0797214787178502
0.073443422806414
0.0761757255429781
0.0782139907362365
0.0803937619169059
0.0744142689740764
0.079103493366207
0.0753900483180228
0.0763915124100919
0.0716758748800819
0.0757087009722536
0.0743570777871688
0.0785131735297843
0.075082598807726
0.0783673674491226
0.0711384488904816
0.0762731259964729
0.0680369040848191
0.0771830696732374
0.0729246743036753
0.0770431261377112
0.0712437214713806
0.0769412482061269
0.0708965477058872
0.0734315643497544
0.0706461200164105
0.0742448108855095
0.0693519678976447
0.0746505481532588
0.0682067746969029
0.0730383983026251
0.0667321866043405
0.0733674513134826
0.0712438154666042
0.0721320983852588
0.0679220162938678
0.0714888867871438
0.0693001755999413
0.071195834196413
0.0667127706747517
0.072000834645954
0.0703341672545604
0.0696991818226016
0.0666944013523676
0.0713056391345963
0.0688160145931437
0.070553199079091
0.0660423664018202
0.0717468948654619
0.0655668853210019
0.0720522201848221
0.0647949211461816
0.0677495155342508
0.0666946645745213
0.0699516432213357
0.0641159337810412
0.0682313827588624
0.0628251709559037
0.0675015703488746
0.0649053752125862
0.0675315995561408
0.0622398535749531
0.06675087765506
0.0614746707872933
0.0660984370908896
0.0609115402494603
0.0670144656514483
0.0614911525752191
0.0650552752798389
0.0609023351573957
0.0633235211754669
0.0582789420287357
0.0645471420795323
0.0603363723766931
0.0616715054862721
0.0570429149613687
0.0617950874971795
0.0617342323348379
0.0644139451609306
0.0569331211646396
0.0606037689008831
0.0557787267177743
0.0621861350535129
0.0580448429320764
0.0593768748548564
0.0562007837217025
0.0624525155340598
0.0556952384641603
0.0579723597929014
0.0555711187519251
0.0590845569998571
0.0567475649302941
0.0611220657115609
0.053152208181005
0.0579816690119366
0.0525759037317408
0.0581621342131674
0.0552123433779916
0.0584246003443355
0.0533104027650149
0.0583315252920724
0.0527976865434805
0.0558516065686736
0.0523052282551362
0.0574530303551474
0.0521829807460879
0.0542253009202078
0.0520125156555112
0.0569578874007957
0.0512020883688417
0.0543803035264007
0.0498030127729864
0.0559955498528457
0.0492004706374899
0.0561205746764409
0.0501503491124315
0.0551107684628429
0.0487690450125268
0.0524118637830212
0.051372241588608
0.0542464472963544
0.0496487552962023
0.0539326091685022
0.0503184247016427
0.053854887464924
0.0482966542300673
0.0516526317621854
0.0494592972345821
0.0519348937798372
0.0463135988115207
0.0503449287721001
0.0447887884907836
0.0526908757842424
0.0442293853717668
0.049633476162245
0.0491203992030227
0.0520064436187638
0.0458902486183629
0.0517324211511253
0.0447950409612363
0.0520640629956997
0.0454228864553543
0.0478299999100802
0.0455334644311219
0.0504931122283838
0.0428461574819804
0.047678300476227
0.0425973506043366
0.048491151068936
0.042900169345664
0.049495888360309
0.0425729910730832
0.0483650816048323
0.0449509124845743
0.0488526919796989
0.0420053160647277
0.0479878215770123
0.0428675636558025
0.0470614803259559
0.0408227064832676
0.048287922117367
0.0422195938485672
0.0508522108294743
0.0437699983602007
0.0463858954930315
0.040970167662572
0.0487789418845882
0.0393777243759657
0.048746306205945
0.039102299776026
0.0485689063003228
0.0381164885118331
0.0483249921639291
0.037436066062675
0.045853410056539
0.0400710579979524
0.0480512320486917
0.039626041530221
0.0452171493422422
0.0317551081651103
0.0451314977867166
0.0337511960117349
0.0486892882761894
0.0335827430027399
0.0467133516469282
0.0318871930797722
0.0475816151981248
0.0295257340016665
0.0525796763064274
0.0328537056716922
0.0494711804573772
0.0328264965815522
0.0526716894746036
0.0301823653555978
0.0515029533498353
0.0366642343563504
0.0521694667134297
0.0388262518391111
0.0515273139303361
0.0287946646872885
0.0455064404773167
0.0271111035258047
0.047529716088253
0.0251172078570679
0.0508425920869659
0.0245592262924624
0.0535407516693842
0.0252255624538335
0.0544129398394742
0.0220112945809964
0.05383747696414
0.0218513010370771
0.0622789026018121
0.0231243350203192
0.0626847906014606
0.0210821565339024
0.059759332428796
0.017683924918241
0.0647959616744608
0.0202700230304046
0.0674932644827121
0.0211170985504519
0.0591558914510939
0.0149848532922143
0.0655078936845582
0.0262481617930888
0.0546599676769082
0.0268365485189222
0.053725048911845
0.0379365259609076
0.0386119044184171
0.0417521579588268
0.0334169744099621
0.0562325060044859
0.0207341707024514
0.06064932491813
0.0193510946261584
0.0600844827707655
0.0226142996138768
0.0599772728175679
0.0271537372047989
0.0505461474842687
0.0345921390967366
0.0427066048391569
0.0371967436153228
0.0390503944396149
0.0433698618994511
0.0407499138604239
0.0401785573254762
0.0385097050069321
0.0383367805433223
0.0447845239512552
0.0372713692994074
0.0426730031940631
0.0353605658599316
0.0408079168603915
0.0378546119891721
0.0412633129098478
0.0404214171704618
0.0405337845095487
0.0379045722380029
0.0390609752792237
0.0377368468297534
0.0407934480795782
0.0354239633007821
0.0413444101330446
0.0396307868306132
0.0389807513927419
0.0379301275362409
0.0410518054523329
0.040424239781781
0.0396228909648835
0.0390110855406829
0.0395871433522501
0.0377763459040803
0.0405173119741897
0.0395138780698471
0.0400895258309878
0.0400217928826662
0.0423065504818768
0.0383158354591015
0.0404629762092573
0.0391528191992106
0.0407916183025374
0.0391009893152255
0.0400919826349303
0.0378288260831291
0.0406172665486542
0.0412654369639374
0.043640373333044
0.0415983319164013
0.0411295070742638
0.0379387722528115
0.0387617748709293
0.0382647708497692
0.0411920739581139
0.0394361803355434
0.0424346463760472
0.04054285180167
0.040935539488569
0.0405936153058851
0.0413950373381413
0.0374118354067237
0.0385869712663365
0.0406029786298802
0.0411442587948521
0.0403526150759206
0.0408325683004893
0.0410535780090556
0.0414915543593454
0.0393912877679487
0.0391489861962363
0.0382181900863785
0.0406847605568536
0.04017630583636
0.0410037638781739
0.0390166782420008
0.0418030193210499
0.0407153482325554
0.0389004152837383
0.0392645486345735
0.0395419617302623
0.0389494607730646
0.0390869248306509
0.040065269767912
0.0400851550384596
0.0408949456025376
0.0411722577394697
0.0410411656133965
0.0411924163488976
0.0400543807198697
0.0414336004881577
0.0412385441413873
0.0385954275999452
0.040773901515111
0.0397626839927808
0.0405309528031443
0.0420211281782518
0.0441007358062293
0.0416519786654766
0.0397452572248243
0.0414501467386723
0.0395733077621105
0.040643235948635
0.0414427899773461
0.0408531314803424
0.0396172250214972
0.0413257700577174
0.0434042054120623
0.043815485317254
0.0409357751706231
0.0413743652293764
0.0418918493859741
0.039140426548106
0.0424555647575536
0.0423484427851172
0.0424717852178169
0.0440702628585189
0.0427235950645109
0.0409346438765135
0.0417468241617011
0.041095268860295
0.0435294966148435
0.0401770664091327
0.0407011192300533
0.0411239874672669
0.0457176713327095
0.0414894303761994
0.0421803139949518
0.0422670315291165
0.0439632653326773
0.0442777886949018
0.0429316895087502
0.0435889723933813
0.0424023160349767
0.0435793059570797
0.0440383871225631
0.0434481622735103
0.0432286158006931
0.0429527302659296
0.0455907164991968
0.0416534183947987
0.0440791892573728
0.0446639443563651
0.0447920975990019
0.0411411598356319
0.042649965427246
0.0415149694881793
0.0432327559236416
0.0436084886962146
0.0441042771841858
0.0411162377401916
0.0437826123592846
0.0426177997987712
0.0431958804728042
0.0455643329997571
0.0457935011246294
0.0457548099200149
0.0434616001987352
0.043833618915202
0.0472670029935883
0.0450662223107892
0.0450180759730939
0.043988842035157
0.0458373806684657
0.0454041412234125
0.0461512839170134
0.0437732095385263
0.0439397567033116
0.0447859437499284
0.045056510960533
0.0465363378449492
0.045026789386996
0.0430667245090631
0.0455523559391669
0.0436868772732586
0.0434073598783711
0.0443931828916174
0.0457826359545056
0.0426496975144091
0.0452227796773816
0.0437086847266763
0.044717151552723
0.0463301326539392
0.0458234295645184
0.0453470975872476
0.0440481517840298
0.044206670412891
0.044126629797504
0.0424061518654477
0.0427248921120033
0.0412283520006084
0.0434416379782487
0.0442259830619159
0.0460742175049879
0.0421455214915928
0.0433176411292048
0.0427305354577197
0.0447722144131937
0.0415725698334772
0.0435205196710294
0.0436748085436063
0.0418884850458353
0.0422795168756006
0.0460372102868195
0.0426093602133372
0.0454818678347389
0.0412523838491708
0.0425507861732042
0.0424135629997319
0.0450049068942595
0.0427705055872406
0.0442425650882879
0.0419965017063898
0.0440320891015466
0.041351281918348
0.043691544024193
0.0423625540860275
0.0446766269532661
0.0423122204073868
0.0442080013344139
0.0420431241750673
0.0441213853126031
0.0393309160910796
0.0400156140835358
0.0412908803541533
0.0416246369751987
0.0402823870119865
0.0427878634323949
0.0405300363675485
0.0434320572998178
0.0407842797214466
0.0431565923491253
0.040754086882051
0.0422869370163613
0.0416242267113934
0.0422209693245587
0.0409820621304765
0.0421435919888728
0.0396388293115539
0.0427034007092206
0.0405140923719885
0.0413768236018785
0.0413990999213096
0.0415059281444426
0.0394592994579503
0.0413384138852838
0.0395417162791543
0.0411890306887793
0.0397193819674256
0.0405590318715158
0.0399064214530407
0.0419519153057501
0.0402213121137511
0.0409850108366533
0.0391794237089498
0.0418749441381532
0.0388577730593021
0.0385629039718243
0.0389815254527357
0.0412676404669829
0.0407152523297597
0.0409894847695775
0.0405630434113706
0.0415397254284618
0.0384982818476867
0.0412072253438239
0.0398360399073076
0.039463565188445
0.0382499856546988
0.041606041840726
0.0398815240066465
0.0421750182426063
0.0390627157966279
0.039891422036432
0.0385059078547477
0.0392139988432711
0.0384860543956884
0.0407005017923902
0.0397950457563119
0.0410708951738831
0.0392313767801059
0.0402429267907813
0.0369031429915685
0.0419350488768692
0.0388472719456693
0.0409390983935232
0.0399707550495605
0.0381378141130371
0.0385545804078699
0.0408148856185667
0.0383227549466962
0.037941727828155
0.0367073880572059
0.0393393377905682
0.0369101028875006
0.0381067644905541
0.0384880532418794
0.0399289616357074
0.0383637403232733
0.0397274508329226
0.0377380698428558
0.0384401943232135
0.0361545653263426
0.0367381678720617
0.0364428716640942
0.0376639162724366
0.036316426299764
0.03702144004637
0.0357761300345318
0.0350407221082692
0.0369086049911102
0.0362657622512878
0.0378451503293716
0.0363279684598016
0.0378793312348318
0.0372626688756918
0.0327903236876518
0.0377585295728541
0.0349634826083642
0.0323648628911095
0.0331815118457673
0.0365320207706504
0.0343322983729316
0.0387570280729335
0.0333236054706274
0.0347642180671483
0.0320958108066029
0.0347992231210422
0.0330103872144312
0.0351402885633066
0.0330859109948996
0.0349946106114842
0.0339626841507744
0.034333713089325
0.0305992952629777
0.0338175849449237
0.0314140432782654
0.03571024295088
0.0337411665232822
0.0351047094283102
0.0287689476058304
0.0379904046433229
0.0323079017667613
0.0340934431716222
0.0295598053137352
0.0355984837555887
0.0333311189687059
0.0355532385446693
0.03187329800513
0.0336026364178435
0.0309564375792572
0.0339112792951549
0.0313674044563297
0.0324497564644002
0.0313734921325834
0.0346937118423944
0.031842436798618
0.0324261626614163
0.0340266875852458
0.0338092015881866
0.0305233266867515
0.0341196525993754
0.0311019078903386
0.0340057023690763
0.0300232589782408
0.033977308793605
0.0291495457918632
0.0358931696572695
0.0326789449974084
0.0321434370516512
0.0324089490700534
0.0345818303908497
0.0322685600328989
0.0312626790980059
0.0287650948187116
0.0301008948053944
0.0313689675458514
0.0326975041786792
0.0318207240021455
0.0321720279130228
0.0319668776481686
0.0319269581621803
0.0284217987276912
0.0307334737724488
0.0300065984783384
0.0308799205576835
0.0296112755307833
0.0310755336975182
0.0312701667057868
0.0318078762649029
0.0305999725602027
0.0301906793342928
0.0312286040827423
0.0246563717238917
0.0393629348531783
0.0294468879319875
0.0326662242049133
0.030188979069294
0.0308345705159601
0.0310445480246439
0.0283023883224227
0.0300148810356308
0.0308275935693104
0.0291369530194837
0.0290289531404123
0.0297537080014566
0.0309986200018181
0.0315709024664313
0.0294186233027408
0.0303722109611363
0.0298075744030074
0.0287984606979597
0.0317270885320602
0.0298305534398365
0.0267840365055211
0.0332881583105147
0.0345650603813778
0.0294848951802332
0.0342378461606801
0.0205479993675609
0.0308165090110507
0.036740049198525
0.0285727138058426
0.0345957761132252
0.0259262508685602
0.0318514535649818
0.0269712509277643
0.0328795664445147
0.0229036014842328
0.0363824427879868
0.0253785029326888
0.0327398682979863
0.029974090459146
0.0317137190891418
0.0294872557089906
0.0307683595417218
0.0279347030621177
0.0317131958403861
0.0300668319484615
0.0296138210604384
0.0286046371479108
0.0302712139003995
0.0287958837076319
0.0298723576899219
0.0245446362515239
0.0338916314801609
0.0265465740591849
0.0311981592175448
0.0281228908531025
0.0324188272884711
0.0211446887989692
0.0420297540662792
0.0236806198111141
0.0319951183455337
0.0257867033347202
0.0308208712141148
0.0288591245089101
0.0331348027331915
0.0285156196032155
0.0296854294122573
0.0296959926020378
0.0321896664021111
0.0282995125747836
0.0307679383543144
0.0299889631770914
0.0308657094997701
0.0298189641103303
0.0293632020359717
0.0294220219243929
0.028078428266592
0.0332162119697745
0.0264023467162889
0.0238249283121444
0.0418739010190306
0.0268521746657764
0.0357136385089181
0.0282243001486851
0.0329304222227654
0.0278400811448725
0.0330455185300033
0.0234207801175567
0.0353420741555748
0.0267890028068897
0.0329422482290234
0.0271158382128654
0.0339843880447683
0.0259884520513746
0.032796541361708
0.0259043511506733
0.0333838728978598
0.0243110059071814
0.0347028911645063
0.0244751388157352
0.0334628454508654
0.0238589366874521
0.0361249416615638
0.0271937593472193
0.0355957409187608
0.0219819672226311
0.0274841803304001
0.0479001640402804
0.0215901778435621
0.0364910789689014
0.0267071266403926
0.0328580450610703
0.030149116327157
0.0284722586797564
0.0299872801042596
0.0318494548729018
0.0309895664204528
0.0328273328709043
0.0306504736978969
0.0329685365865741
0.0292883192039748
0.0202307405969913
0.0413932179388287
0.0328038207636528
0.0340907878288172
0.0348870430304232
0.0173139081497415
0.0457602805941038
0.0317906891529298
0.0312459407741805
0.0355490262371622
0.0299963547099829
0.0333852831183007
0.0322315683087838
0.0322373925844973
0.0279226437314259
0.0351398715174627
0.0288900815414424
0.0355125831069645
0.0271025336191304
0.0341729145833621
0.030363386005556
0.033249999520764
0.0394239072717093
0.0324790859415711
0.0321028539187564
0.0365301295421571
0.0305756711702247
0.0342216883634048
0.0299315470919052
0.0344300281199869
0.0303168155093735
0.0399906434265618
0.0289214210296646
0.0377477326857415
0.0406016051568457
0.0311584976429329
0.0312446808793332
0.0346505336833756
0.0331209456467133
0.0375678402032806
0.0146807561877783
0.0583573998421038
0.0248490918088507
0.0519925250265821
0.029052765810371
0.0403401724840581
0.0274314989990868
0.0399369384968357
0.0241279802698841
0.042724125345493
0.0345775762458874
0.034957382945192
0.0361323401757033
0.0336367636016861
0.0445811498877096
0.0368220464267364
0.0401106692060391
0.0341726295991554
0.0359020763456559
0.035942444094629
0.0456287783406051
0.0191995302363205
0.0446382445913863
0.048947605679825
0.0389496077857188
0.051162942578286
0.0212690620370969
0.0570134435183567
0.0411127933245915
0.0419890226936039
0.0405842421836262
0.0407305696048865
0.0443301007538835
0.0255961867344928
0.0504365967537972
0.0465959318236485
0.033297574592105
0.0505961164921131
0.0291339214170244
0.0458705774608414
0.0482036223340365
0.0421956177524128
0.0408749786186479
0.0493142065322909
0.0318207583269433
0.0460661509947813
0.0623722694349554
0.0329114994759585
0.0640579538247437
0.0396550717743692
0.053186228392971
0.0439119142132494
0.0522213717787978
0.0440381954345047
0.0588439684354478
0.0499138987559785
0.0485530385687232
0.0339861872678163
0.0731200310010459
0.0451901170745325
0.0563076708013805
0.0534673359770379
0.0418010138928636
0.0512786711144122
0.0813472080881459
0.0636120247078791
0.0632355504841837
0.0495023533794786
0.06850298499651
0.0625458909224989
0.0580454661511619
0.0633015344008534
0.0605821722162399
0.0650800426120512
0.0566803841405148
0.0672119792624381
0.065986199795651
0.0621466591424751
0.0722050432478629
0.0535214279846956
0.0671833175592429
0.0648053175500589
0.0997641423615578
0.0617748281751178
0.0890047994829812
0.0826608306581159
0.0739183310702169
0.0782579544333435
0.073261532718621
0.0823003027402637
0.0782367337930893
0.0826852217987477
0.0781260864741078
0.0836843273563596
0.0988926009609389
0.0666219319026959
0.106047552698165
0.0833211074491723
0.103250743436227
0.0428116088119831
0.163240799604803
0.116393359582309
0.0978334751328115
0.112094664302208
0.0701238688163051
0.163736304085796
0.120707111028404
0.126057039986669
0.126919248042125
0.133637587006173
0.130762499836143
0.144020574068624
0.142957420410943
0.155659720992586
0.158961591445033
0.151719656220976
0.145670586919338
0.210210567809218
0.190594252492155
0.201738156767861
0.176466942860292
0.194048301114657
0.199733652206074
0.203665455456926
0.20590946698881
0.220192633178359
0.17753247439746
0.27624937845021
0.225112475002515
0.240805573557807
0.227906907768714
0.272050416472977
0.236387853864769
0.2653134119752
0.286986761288301
0.260768767808951
0.283026512160003
0.275153622600016
0.299459484571896
0.279791481856064
0.311040199955567
0.316719198414006
0.307521271134915
0.31997986719041
0.319618929945143
0.327561818788183
0.323217721516049
0.337644155774505
0.316537719429059
0.341803485709784
0.334322949684811
0.395472927485504
0.374448724867959
0.332515942535169
0.347006368711841
0.327270850727095
0.360528716735848
0.352932796050643
0.355994435037657
0.369672365664967
0.336473185480801
0.355420785300229
0.339372204920234
0.355505602768877
0.345542480220594
0.355999160864196
0.341797986461303
0.35194469555255
0.349506492033739
0.322117919936568
0.40494842349583
0.340474645590311
0.346335169760392
0.338507694577764
0.342606280579497
0.333674110811547
0.34653217843938
0.32593737849477
0.354626264609543
0.327194017224909
0.328531711278552
0.310869638925795
0.322275957694277
0.33555387878757
0.306016681937668
0.310910856214705
0.301279630262043
0.302708105838092
0.29515306360221
0.264428162684259
0.333008802070411
0.289341909788232
0.284596195367578
0.278702013280694
0.279654414213287
0.276621738252619
0.268950062709339
0.268319086679191
0.26989673538959
0.256403854043638
0.264826906269427
0.261517663291973
0.262784912171702
0.257231376778291
0.254912829303979
0.256065470067256
0.249597381147397
0.253463862466226
0.247218491014709
0.251975828873626
0.247223975884077
0.24843916912037
0.247604580582393
0.246465945428756
0.24944501458139
0.247159765735149
0.246692707796973
0.246483287902291
0.243642416023605
0.250479095888961
0.246526170623699
0.246565270438972
0.242759914704749
0.246463845089603
0.240494388453882
0.2436205903685
0.238037279433487
0.242608778930859
0.237148509950537
0.245672435083809
0.232729987395789
0.240971135867153
0.217971548833757
0.241521692114432
0.26258772074393
0.224450826837421
0.244920880692504
0.229861656955124
0.237149405026752
0.212507168678783
0.242277246370322
0.247835120243412
0.224812743213052
0.22883713173761
0.224112583627538
0.225507982424944
0.237749850247502
0.215194635501604
0.223609258349856
0.212544537473241
0.202189524225072
0.272073701290888
0.191470310360627
0.268657695747901
0.219566827366752
0.22415126386872
0.19342927263478
0.250878865455764
0.211303633535796
0.222270847096322
0.212848924428994
0.221139349738743
0.227919247027168
0.207417410551581
0.215687568877285
0.208315234481228
0.205237675616486
0.2276322235634
0.209992583906495
0.193513627406428
0.234379562709521
0.201970110636824
0.212217535879619
0.231072649073052
0.218418570272823
0.197800703527535
0.196302685528928
0.201546323991175
0.181244416191571
0.224383493925515
0.196229191720339
0.193107558002091
0.194218673352311
0.175444884277374
0.188127159087862
0.177515776533277
0.192651375947263
0.160902510745424
0.202611087069471
0.172626856714789
0.17169496026227
0.184843555503424
0.167127266617518
0.198079037500015
0.176970383737581
0.170475262928386
0.157067121030143
0.193500083491896
0.161688304218203
0.172970923895472
0.163027983549762
0.152819280554552
0.173481983369068
0.163116292493965
0.149070437880686
0.166156146899688
0.146873006597363
0.171010417232089
0.16452263322762
0.173139957608132
0.162564813267777
0.14778744716357
0.148939978789335
0.14741556255562
0.150821600462085
0.143244340619468
0.13696296115404
0.16770029513335
0.12149194031357
0.175985782170103
0.155644784445655
0.146913665532391
0.152006117026184
0.15384627316231
0.150525126276781
0.161099658122281
0.164181709328895
0.168628120194479
0.144449737683748
0.177868641589467
0.159750528236749
0.172050940137273
0.165157284370877
0.175964849610703
0.168936296551957
0.18100285872021
0.180515325740391
0.188358436295919
0.184020421886809
0.197549052440819
0.18070210545571
0.231495540287063
0.191746592863125
0.218064138257264
0.219161264884014
0.226733719812173
0.236817388706899
0.224971901755605
0.238342274917825
0.238010752219692
0.239994453614848
0.244347704565899
0.233515155585193
0.274576670853651
0.247047878668525
0.260645585543511
0.256972155257952
0.262881023459529
0.260411413536361
0.272721837296308
0.276989992861684
0.269107852049078
0.316235146104069
0.269947111417642
0.287677832095604
0.276149482475736
0.286294470676484
0.283900101017642
0.280971942000088
0.291905649772207
0.280455735770081
0.303355552332275
0.295770721450716
0.290575669215833
0.296404276651463
0.294023236225327
0.301586620373132
0.301143936000013
0.300748989652528
0.305853277977142
0.298067720872756
0.309595185092226
0.291414583302202
0.337955078922392
0.331699832363763
0.310600799031363
0.322990772794796
0.316551413806075
0.325387298304814
0.320242078623263
0.333033881685762
0.331899567068519
0.326464851624554
0.338972175579841
0.336808712988104
0.340229040501509
0.333098091476324
0.351088059556077
0.340645793279599
0.338887255126114
0.345243611604592
0.324407882255736
0.391479180940998
0.344562553104055
0.362593593029061
0.353514938264202
0.356683912039103
0.351868327935602
0.362052193436403
0.354758183145456
0.362851376152627
0.358411466012715
0.359670326300508
0.357914000943655
0.360898445837272
0.364697415964489
0.355764285089664
0.366712525579031
0.359523048864993
0.354111365811118
0.358675116368383
0.353793269220555
0.352886766943624
0.356056583700491
0.368583240604968
0.353137990554474
0.360789158673266
0.349242260230583
0.352792731128579
0.360099571826232
0.352496369796039
0.352780167849093
0.355785885230551
0.34535856717154
0.359200503851046
0.347918423382626
0.374395116843529
0.358989835109544
0.361613850321823
0.362690897521318
0.364871670019486
0.36382839065084
0.369593161533992
0.367698565881731
0.37155840774286
0.368698128145983
0.377384944853791
0.376003379433394
0.369855177911559
0.376953968534675
0.375900780515143
0.375657933550262
0.368614781129618
0.364095267836983
0.372070943160521
0.363796769474567
0.370475525864631
0.359509290816395
0.358504432772574
0.351399482671457
0.354569639271413
0.33860500768489
0.354684309692074
0.344522497389508
0.342784655939812
0.346753523909014
0.328894534891514
0.334073495455917
0.328761321973401
0.328831728722334
0.320531296118256
0.325853933215044
0.319898948314567
0.322073328482259
0.319480528860947
0.317366291405496
0.318017320482953
0.318276230839732
0.316491257762958
0.317336833459583
0.317710350755068
0.315199463140252
0.314639176431314
0.314375974882802
0.315648293054596
0.311803934657014
0.311491569426748
0.31987487256019
0.313018281706482
0.316402383217527
0.30836146280939
0.316956326702763
0.311957256718148
0.313379774827209
0.30871724479569
0.310666936208438
0.304734660809036
0.307352995163778
0.306534446452415
0.303964396457537
0.3084835774259
0.308861578081473
0.305764956465143
0.308046966876251
0.307159139061273
0.310421736200615
0.306532987450507
0.306531722276537
0.30563354475198
0.304515271645246
0.308225471298116
0.301967271889667
0.303952214208954
0.303571769027893
0.305608221393208
0.303095911615506
0.305636947771347
0.306415343201312
0.302610726553531
0.304418250870831
0.304608905029512
0.300806295803872
0.302753282450242
0.302231942003367
0.300515680760307
0.296673758809798
0.2965197918
0.296625936018758
0.293427403525432
0.29127014498754
0.288562190203484
0.287976721984079
0.284655110815257
0.280666894474836
0.281128106010429
0.278296574603594
0.275758421955326
0.270875260220087
0.268514974573793
0.269213018432585
0.267197965848601
0.263993402103727
0.264579561914066
0.262078842679239
0.264512287932326
0.262376674514478
0.260610014415964
0.259274054306237
0.25959535411058
0.259805097052657
0.260734318680835
0.259209730327853
0.259926171115511
0.258596473731918
0.262731184926051
0.261493134331178
0.26281627384813
0.262632896643183
0.26285950379827
0.263642077703375
0.264495587800434
0.267095143291034
0.269999989982963
0.269719192171951
0.269311054072961
0.273963610642598
0.272576695958406
0.27458594131837
0.27868404016676
0.276191703295646
0.277913186874594
0.277470366146958
0.277450398990987
0.279056262505537
0.276496012282938
0.278645355349327
0.279914950903585
0.276812354166647
0.279141305968375
0.278139934687359
0.277345551568718
0.275905068583673
0.274202107403811
0.276092488225825
0.273920112431564
0.273233578320906
0.273375285559135
0.271815209080872
0.272315157032834
0.27190161483578
0.270655025818324
0.269188695610151
0.268045240569502
0.26587745234785
0.265623789783268
0.262649687573679
0.260554623548024
0.26341298635762
0.263087331530823
0.261006749594599
0.260074608642198
0.260797059750967
0.257292735506272
0.256243565413845
0.256945328932614
0.254474549719064
0.252944947560366
0.253693393852957
0.254153628279606
0.250349848284359
0.25177468517352
0.252137545224391
0.24924415280611
0.248655902873239
0.246881430553231
0.248215560721536
0.244423020129088
0.243944356672564
0.24017216990555
0.238856142391542
0.238999467851956
0.237672845477009
0.234153054342874
0.231331145500386
0.231471286985816
0.228064479983393
0.227970743129861
0.225018807758327
0.223433291853649
0.223424245143321
0.224054288737483
0.224064925549014
0.22104349431892
0.220730194156229
0.221634157920134
0.222305165045949
0.222077904611921
0.217959619652209
0.218151025035316
0.217682154862444
0.215925744308567
0.214466324042914
0.213321863558255
0.211045408975673
0.208479368361936
0.206641711783412
0.204857771872293
0.201630376538495
0.197860350046647
0.197145977902707
0.195598098776565
0.195799325458513
0.196296190547254
0.195701980055465
0.198031092700857
0.201574351925353
0.207216596922787
0.211582985612367
0.217643168193789
0.222198864310147
0.23056491798393
0.239509859088346
0.249267667886936
0.259956050059207
0.270188904562748
0.281779427810745
0.290104774869317
0.303288501680289
0.315541677558813
0.327650224434005
0.339569191826749
0.351168936111783
0.36277863383889
0.37157462760901
0.386912142946264
0.39693310087168
0.405863386789057
0.417303021189058
0.4276150019664
0.437651944424604
0.445406697792068
0.456356732661113
0.464232956720423
0.472216007387654
0.477239439246839
0.48619381768931
0.491610790925979
0.49346856567248
0.499439785749265
0.499861712468112
0.499964119351503
0.502504026122045
0.50388601503511
0.503303930032784
0.503825565200667
0.508314371174341
0.504246140081957
0.5045029062911
0.504542006059723
0.505240349342355
0.502176644447803
0.500262252447939
0.50583171963151
0.507418829196041
0.511830522724933
0.513054000910193
0.514508138691964
0.517371066075387
0.520956714337417
0.527656213546515
0.532410340759996
0.534185644215179
0.542141728553493
0.54789337052497
0.553557701525889
0.56077430490909
0.570584155091871
0.583007097212021
0.586355508068504
0.596760898114102
0.607834525526316
0.608946566823013
0.616731657576935
0.622084426077417
0.630943249808232
0.63726251176491
0.640358171323863
0.642507261514816
0.644401953552846
0.643254997773581
0.637178204851555
0.640185479428367
0.639434875829479
0.637539162799202
0.631899370977146
0.630583927105742
0.628284367673495
0.629595881670244
0.631282245657269
0.63545096145664
0.641415341107267
0.651714743245567
0.662827280012905
0.669133058484506
0.674830247866777
0.693021505936865
0.708069975315579
0.71682205653002
0.724663727452077
0.734572720906977
0.74961986959053
0.758127050279039
0.757061916481449
0.778645352132954
0.804075058479011
0.806190999637666
0.812294399716365
0.833399696496651
0.84376648698061
0.864694980062272
0.884912096988957
0.890768395032566
0.907310744975554
0.920640710592116
0.929577691181901
0.951140007227149
0.983072153359573
0.987761852081154
0.98759345378971
1.00197919123208
1.0138340422076
1.03106383345544
1.03279352824891
1.05235287782315
1.06681881201935
1.05568692855245
1.05836986327657
1.06028867055383
1.06740869679731
1.07642846970508
1.05486301134454
1.05665350791666
1.04314015083677
1.04126453684601
1.05057263187318
1.04577251452513
1.04234250831895
1.03371735943663
1.02439538978654
1.03491241004829
1.02603002233213
1.03879129584589
1.03996828972976
1.0437145090261
1.04587907797485
1.06798476587038
1.05531544860938
1.08225342229379
1.09550400090807
1.09361039067786
1.11135019052058
1.12772582092372
1.12971519710348
1.13006390569967
1.12757481057002
1.15124951400607
1.17777577431078
1.17679120724364
1.15502859359672
1.18582492277834
1.19511712494127
1.20669391199905
1.18628634289289
1.21698336320996
1.20607763137939
1.18693356326301
1.17911125062692
1.20514332342
1.22042904457314
1.1965737186113
1.21278081887015
1.20853884849311
1.18512283430973
1.21214828008648
1.18526154804553
1.19438398519628
1.18085797811326
1.19487605595302
1.17428748356568
1.17909619419811
1.17691737577932
1.14515785532706
1.13994488371852
1.12943551694328
1.09783734114002
1.10345405240789
1.0480757129564
1.03044271969368
0.99380341482452
0.961843839945019
0.913904652797906
0.904775355782888
0.864817733943701
0.816214463999334
0.782859255404685
0.759236116981657
0.734573598833335
0.712020473867898
0.696444232383186
0.678182606114184
0.670159413670775
0.661524803263163
0.660026015259596
0.653859162062238
0.644246758857008
0.631751257256169
0.627297488200486
0.626021186403425
0.61661284760776
0.601503523945295
0.59313435110204
0.583179378036512
0.570319168285044
0.560800432313425
0.549372431251605
0.536524207752347
0.524761021245893
0.505628668957153
0.490427389452752
0.476248933386265
0.458877218423664
0.440256148033398
0.420000443448913
0.403436590262454
0.388886031195301
0.366065652045121
0.352994098631465
0.334365571219647
0.318291202487795
0.303321614992391
0.288264785346161
0.271808199817182
0.262086827296841
0.249401307947829
0.239903955915033
0.228669504473879
0.220438394361725
0.216140961792329
0.205825489079989
0.200087907069169
0.195180391177633
0.190973944546245
0.190173579675425
0.183843922044096
0.184064851775862
0.181193427199964
0.181707663699686
0.180222233727588
0.17905330488303
0.179279683555634
0.178859865799742
0.180842690612092
0.182422351790168
0.185415466451943
0.183968253472592
0.184397377732958
0.185834848316931
0.187701436159831
0.190756828707763
0.190971625150483
0.192038659522485
0.190678456925154
0.187297391758919
0.192224939240542
0.187493639758585
0.185059020065081
0.187928634937091
0.182771838895976
0.186035209455132
0.18375625650333
0.183302146446037
0.18198051765903
0.183684796544316
0.178897372244707
0.18178348249658
0.183486103007824
0.182662935077302
0.186483273911311
0.186801735571866
0.185073678042431
0.191331947275708
0.196312242345643
0.195329139045814
0.194551203938823
0.194397248445855
0.192708789632783
0.197162796602714
0.201187054744861
0.206815276764139
0.201673571365683
0.202761851755504
0.205290528543009
0.207714807435471
0.203779986463182
0.204419622483379
0.20651743719934
0.204043011654403
0.205663630960945
0.206239534093776
0.208188899968275
0.215585200682717
0.214874388916661
0.215418628508907
0.222221953187821
0.223610622361217
0.227231238785097
0.22648668245062
0.233265911432301
0.242803945508132
0.24940298503269
0.249150829617634
0.266408274746472
0.268478083672168
0.277096509150898
0.284771767963791
0.282532208724202
0.284654917872928
0.290241860112294
0.288082734435652
0.281195388575504
0.278410330096327
0.270987278928622
0.268890056825227
0.264172836150619
0.255499276146717
0.255485344409567
0.256272082314928
0.255168195503537
0.246880009448784
0.252150112638377
0.248082468953603
0.251924795195722
0.252312379056483
0.253623410091725
0.253479928123805
0.25143938586753
0.250772044016793
0.246191617588409
0.24742739143299
0.245946860976659
0.244368573546694
0.238031250633388
0.240028806864796
0.238304487419458
0.232386639026043
0.234877728015832
0.232400125843974
0.22905011269128
0.218772631321363
0.221278872343472
0.227576352018552
0.227564563986135
0.217087603016321
0.221207860637774
0.227320184974526
0.220372266556705
0.21838754319823
0.223710901534452
0.223779261068899
0.217775560529654
0.220486196999648
0.215608172553789
0.212086710621415
0.220958628146693
0.215331960171896
0.206704035838829
0.217847953640727
0.209877966151831
0.215647374116643
0.213011463129523
0.213098409371905
0.204420937518064
0.196832743464827
0.200001478875099
0.195736692169259
0.201543960252555
0.19996356356536
0.195728045677925
0.203743267661967
0.205863382562438
0.197622405007386
0.20402707639484
0.20182313830579
0.20183444016372
0.200239506981623
0.205117324161358
0.193987381101928
0.201670089466981
0.204502017306363
0.210620410368204
0.201944043394227
0.206867096547891
0.197059492668995
0.209591137190395
0.208533679004922
0.206566509337106
0.206127040394313
0.211443800873806
0.206646091210949
0.209121673256022
0.211413907414069
0.219596322640583
0.214127670568016
0.219817478439209
0.227302191617241
0.228613788472653
0.219553938390664
0.236836259531085
0.228908698345149
0.224831324975186
0.229726660626027
0.241562946889593
0.249978305685828
0.255090470909598
0.250674989676713
0.259231672286696
0.272960169878145
0.269664187726941
0.274351160740773
0.27265463459341
0.283965798553706
0.29286338455238
0.300949378420442
0.299377778604882
0.315067975065248
0.319492528867627
0.323380981472208
0.344968385647914
0.344933681685698
0.341773281915546
0.348528995631568
0.354753835318353
0.366260871168124
0.380819814662205
0.374162041677983
0.378021345074896
0.378183380696087
0.362660480904541
0.35334702082648
0.36075765934223
0.374002834964826
0.37843359869954
0.35653265751983
0.361108899271982
0.368892333569024
0.361876644042024
0.352472842366481
0.341495171871547
0.36193042998975
0.362200908936076
0.36059747572252
0.36413964677246
0.341246758937868
0.332765217000461
0.339546330454087
0.361021527085662
0.353616068262924
0.322518910851809
0.332084400479809
0.341388153899212
0.338988951531475
0.320196391041363
0.311299564590686
0.313337607517138
0.328145169988914
0.345068081020831
0.326510955644107
0.339954361353755
0.298484165790541
0.326783400562553
0.313635041917348
0.307436459212575
0.327458758233293
0.325816279720937
0.318922502540948
0.315440698049095
0.338283651754976
0.350079146925342
0.327768217276021
0.334503896815056
0.315164592033512
0.342302508577482
0.326303783860044
0.333269501772274
0.33383625088793
0.329263581999231
0.325238575497253
0.36559606661428
0.339409152925919
0.335387704532153
0.340019155967635
0.360229360654335
0.333652128220288
0.371711385480572
0.341644896368263
0.350412585957022
0.345640200205116
0.365248946423229
0.364247586830566
0.35948639844867
0.354218319587787
0.350023392305381
0.404176610123575
0.372900794221006
0.344931728439196
0.398222082563309
0.389391924079232
0.401036860640448
0.424449702957611
0.405632225601999
0.419127150160529
0.386816699288215
0.426501160888905
0.455179736151059
0.416904860212284
0.434364681523987
0.426996228914193
0.452433428960702
0.428817913213123
0.4731164728026
0.433824969245691
0.418175322755694
0.447046201734462
0.412426030199778
0.464499124948615
0.47561870221357
0.3585333633917
0.450277731849447
0.421328663280824
0.507085866742017
0.44166316484641
0.459998679627237
0.425831796500371
0.420263447532139
0.417046058603507
0.415528779212425
0.419867816631269
0.484731855896459
0.493358013899994
0.461583209498821
0.422743477770734
0.444414215835878
0.431199523007922
0.526205520216523
0.34319458522296
0.411858408077345
0.452597716089776
0.448797903289869
0.399439177528224
0.460678146209518
0.456202293669081
0.365044238298273
0.392722824409984
0.42629672001647
0.303984686103898
0.444465398134397
0.370899718706293
0.505645274333799
0.652363758188717
0.748299714986628
0.406439131212777
0.429042669430317
0.430709094897763
0.420182037695667
0.547352969286601
0.341950725316643
0.429515183142112
0.476647342804471
0.608294284482952
0.612030167420418
0.241732827291318
0.487776375461553
0.422184805361108
0.677505307416839
0.430928764652046
0.649636404255171
0.765613451662395
0.728648797294385
