3596
4000.36533379555
650.420452594757
1
2
2
0.0505311105060378
0.047640961250174
0.0600460465394888
0.0491388538006646
0.0519312885064068
0.0391797382986128
0.0551108379012664
0.0413443341813978
0.0554153399253031
0.0419621346978001
0.0520587371985693
0.0438833818139231
0.0537620316004158
0.043079150846239
0.0548815788855785
0.0391476450721233
0.0511392584306299
0.0437820020443719
0.0533651817162371
0.0402953199870759
0.0578992747588014
0.0405073879402843
0.0531897723925868
0.0410289196203024
0.048935852813553
0.0454873876819438
0.0507628751772487
0.0323133395170148
0.0501765333500135
0.0494188498354508
0.0547060342760461
0.0449289089159839
0.0514515685695891
0.04088074465269
0.0518201258021452
0.0451022160738625
0.0534355798067297
0.0445577419442538
0.0564027310653087
0.0372851786132284
0.0553039424554936
0.0434888581042621
0.0523811091074916
0.0438106328817458
0.0493383494352549
0.0365628649346
0.051090845029867
0.0467297246630073
0.0538368512014532
0.0419713070659444
0.0595127034951548
0.0436880185552893
0.0537693550116644
0.0446392557935631
0.0401484857353789
0.0440739902050052
0.0628320278779469
0.0431028088558102
0.0440141151680109
0.0404558685387459
0.0494443896063251
0.0494520825409452
0.0554758124715774
0.0394585080798021
0.0463273060034563
0.0474119484726432
0.0564549782270911
0.0356476638298448
0.0514691253334013
0.0381389081225893
0.0476231243745567
0.0425764802141673
0.0569163546461737
0.0465043965965965
0.0527060294575989
0.0411110285548598
0.0517104563536574
0.0335829735823395
0.0404522810261135
0.0406272076345106
0.05796502635568
0.0451420354260219
0.0459852979493496
0.0351347330070599
0.0458006705178255
0.0480593214555914
0.0508753628064916
0.0265593123297613
0.0603288140488743
0.0444645241998911
0.0502753651260818
0.0329622284035577
0.0445247031076894
0.0405647225877775
0.0425888968086259
0.0383675418631021
0.0565875273107832
0.0368798990630049
0.0504570678448482
0.0419537710616245
0.0391079395234014
0.0246970169194485
0.0592713915272963
0.0517815454125298
0.0720035248765437
0.0536487656010379
0.0245143674674136
0.0484406771195015
0.0590845423094178
0.0410914063345209
0.045143252022385
0.0324929027414386
0.04517844684835
0.0412787645541495
0.0380993323648306
0.0333359676533994
0.0716709700846645
0.0387255315224903
0.0492230349452232
0.0402127531919135
0.0307558052808635
0.031562042966029
0.0729363455402204
0.0300903639182584
0.054708998107674
0.0441201555947838
0.0318326703080363
0.0378902077043437
0.0679427563322046
0.0374777065304327
0.04594635479
0.0369083398318105
0.0366571677357998
0.021696104339541
0.0571504551692518
0.047006548546598
0.0377542577272061
0.027357388799074
0.0417536024879439
0.0563307593599163
0.0589862277049345
0.0419918704011817
0.0331530253621726
0.0203935280214771
0.0753649298201709
0.0533960948304736
0.0352571333796258
0.0378803958365971
0.0548300842479832
0.0416237357124384
0.0434407278859485
0.0296183662335731
0.0554209417636022
0.0374966201037203
0.0186896336531992
0.0165765066191565
0.073314448831852
0.0302386142250606
0.0626277623802905
0.0506187548216161
0.0394215268701009
0.0502541393084212
0.0390586752365125
0.0399239102295527
0.0405523169101563
0.0330470097171217
0.0323813611789854
0.0570983537022129
0.0408009443295828
0.0188582595616372
0.0443663077849201
0.034041863335111
0.0309725970967411
0.0441141758932017
0.0608309567403967
0.0191207208781295
0.0617944602255282
0.0524371587965026
0.0354129533782995
0.0352964332951494
0.0625558941546074
0.0420597022299128
0.0451001211084466
0.0400837517873641
0.0390690809047242
0.0479962737155027
0.0517428021535125
0.0391909596863123
0.0436141906948553
0.0289738249288979
0.0337991736934762
0.0542551458999498
0.0587383612356154
0.0450039171850995
0.044452322327036
0.0259909157455857
0.0391285530628306
0.0761817424209158
0.0490739178514848
0.0373794674770888
0.0392348992834611
0.0393449794630219
0.0384335138244589
0.0361935387887173
0.0383313939785632
0.0197647113699438
0.049859815629894
0.0632963842723795
0.0434833573933321
0.0425647254152457
0.0309199740105019
0.0316602415367035
0.0520250909968299
0.0688189069136674
0.0446720109714132
0.0443974818988802
0.0393662076970762
0.041436472000413
0.0625863045692943
0.0444353741197312
0.0458742715911944
0.0409326202282842
0.0442345107616123
0.0440308025643624
0.0436008603335233
0.0394815565919673
0.0459725371677993
0.0459485402439903
0.0435937072157484
0.0355235934443296
0.0475148799997803
0.0464981516120844
0.0493319824627663
0.0428323956146586
0.0379215128492856
0.0386962788686463
0.0632413747733845
0.0484247472041803
0.0459336202141031
0.0455477818675709
0.0409354693721748
0.046349390095459
0.0464681801942692
0.0424975643689271
0.0345646160741734
0.0316229040347458
0.0519805146643062
0.0617262856013063
0.0358267243953824
0.0397541958927873
0.0428169241390076
0.0531352016542841
0.0430072534121305
0.0469516571713628
0.0452934036217167
0.0367709521012678
0.0321017993441053
0.0541159885095303
0.0485858305510278
0.040961098299031
0.0537858156726648
0.0480293926317033
0.0420134143991254
0.0333388804568382
0.0150897282188771
0.062632772844624
0.05781911400413
0.0258838457468713
0.0772755814324692
0.0669412754880829
0.0494094203762135
0.0373779732048519
0.0192959921353205
0.0824259439228316
0.0876629237444857
0.0459435285800054
0.0481932335959933
0.0517637052084616
0.0568569375659143
0.0373925397454149
0.0447334690449014
0.0397461232895468
0.0321474550165496
0.0635576345334254
0.0731176249773383
0.0407761945878399
0.0413230920384838
0.0829494536904089
0.058244892809498
0.0505542563336271
0.0375563481419175
0.0486861489234432
0.0473711946298926
0.0542207919272597
0.0585152499012165
0.0507526357109802
0.0475151205877498
0.0691459368448906
0.0610408195115077
0.042251028028637
0.0565830073924581
0.0570482434776373
0.0597972649415417
0.0494405727059515
0.0518234305099064
0.0491815031521742
0.0426379282697278
0.0329495563255495
0.0735383475044507
0.0658383245010562
0.0540611952726188
0.0686913394640418
0.0703529412750932
0.0490712508760734
0.0537536213447786
0.0546852512337267
0.0570406360806174
0.0444342845782511
0.0495640622370662
0.0570181949137349
0.0719792113732439
0.0526846045853485
0.0615081006288003
0.0588915974620615
0.0676035596508028
0.0647742095530563
0.0635041249474285
0.0566950227991192
0.0588402754820699
0.0532486295259015
0.0741607429919768
0.0695625858303838
0.0534400485022099
0.0603066948699791
0.0895091593325836
0.066722827886602
0.0768302580713457
0.0720821069147518
0.0696802005937976
0.0694256271417468
0.0740147682792745
0.0738105661431048
0.0756318307066913
0.0825744316206393
0.0813248256587149
0.0673427812349712
0.0607277317021781
0.103172720568788
0.116367940016903
0.102030367148656
0.0788374914295166
0.0767893499992963
0.0844156045101443
0.107738046159596
0.100785336066295
0.0990854046237191
0.101168693762314
0.0924525305808806
0.103127636610612
0.0933444922635633
0.103843511385621
0.0980808605350335
0.107945675804709
0.101864351589678
0.114091921124249
0.106961525185935
0.11158978156717
0.110921809740508
0.138523961516238
0.133647403557582
0.125460910355129
0.121097647415946
0.128055820885945
0.117022934911182
0.151144613553369
0.142992510746595
0.151983566156421
0.146674901604139
0.15595000075363
0.158944564539947
0.147726491186667
0.156612964331809
0.15883476943656
0.156526164199843
0.157634472084729
0.158782661828907
0.15979627610772
0.169163162071918
0.170915051839605
0.167262315463113
0.168557540743586
0.178901192883325
0.186968088250495
0.190282838632414
0.176257237414059
0.184643157466879
0.180159666895414
0.220983240700099
0.225754537165195
0.21801671888025
0.202340706763427
0.208261272914008
0.208929123930261
0.210379546540329
0.214604540802311
0.212797465261294
0.217410466503814
0.210733003747937
0.236326303157365
0.238830830301368
0.233581390723335
0.242546089789021
0.249963885009293
0.263185341646754
0.252274600124308
0.26492181448308
0.262694710386677
0.260119463105253
0.269964600428474
0.274334857541285
0.268374951703904
0.283523725593158
0.29145511220389
0.285258491159561
0.29142772826376
0.287381305119856
0.292957814794082
0.297722172535657
0.307891155838827
0.298852359373777
0.302095118015981
0.313562729115727
0.317252068613832
0.322887799357142
0.313218533695675
0.323410892741702
0.330867696338392
0.333028420931641
0.334066604648507
0.340309242238768
0.343030219300685
0.372012850549852
0.377306517951587
0.372516121626536
0.372673751045232
0.373011772284871
0.363723398077805
0.378926556415154
0.380642067350819
0.373444724187619
0.391816481846891
0.393931989208657
0.39164865111111
0.414847825539864
0.419505191739503
0.421462458387946
0.420234299984267
0.440546414400365
0.411509677095146
0.419421084247196
0.424065860459477
0.426381710066153
0.447137391564129
0.453647293458264
0.473692480911496
0.474178149312491
0.458037022105908
0.46548680366076
0.457832357958941
0.453956292531044
0.496611913854495
0.506899326588617
0.491991423908212
0.494259843880059
0.484560085183511
0.503959845051342
0.529686178048137
0.537557186036297
0.51142264614734
0.517211961126253
0.501464726663835
0.527190154225743
0.543932245113529
0.544285492965225
0.545134388160852
0.568142250227615
0.557617170904344
0.551278896872471
0.572361212763806
0.575843785299702
0.578139288392746
0.598955199505558
0.568897040845853
0.604876904820634
0.62179874664453
0.608810234609211
0.598813294758593
0.612289019056614
0.63562839415231
0.66126350889478
0.627287144690756
0.621136215339364
0.627238868568006
0.645525190570828
0.657796071940489
0.678137361709937
0.629974907203296
0.658918408919514
0.659392019147386
0.659732421982579
0.672939727720202
0.67514346032029
0.6769728882654
0.699528622559729
0.718234415393449
0.717536195171321
0.688922402987462
0.708460747295949
0.703855862894309
0.746483009393277
0.734881339734272
0.741216210106621
0.769435598566089
0.759968191584818
0.734542296809106
0.810983843580984
0.790385202459397
0.751937025342854
0.733352003622396
0.774167104959479
0.757146581227816
0.769047611911376
0.772908320368447
0.803916790585211
0.791463192197967
0.849675154401626
0.802751141097232
0.778553223275161
0.789139688025597
0.833683691647494
0.813020565906633
0.871392545982591
0.859973155863283
0.844529565101332
0.844352768480715
0.870858588458082
0.86932978525911
0.902067449494162
0.857404003435867
0.866268048284963
0.846913534629258
0.936471698006297
0.908789836583364
0.930177173145678
0.858663981094491
0.886175903288022
0.899395010724702
0.930614913858039
0.907500189014478
0.914089361874871
0.890801480753083
0.940468732499421
0.934961151748164
0.960302323942068
0.919737119803853
0.967254036011677
0.959180527156095
0.979601467480531
0.977823936606789
0.985018849321123
0.903036285603628
0.982114171623553
1.0116827281738
1.03940015795172
1.01180525778263
1.05311027546155
0.993571092122981
1.00886830454898
0.980878528547996
1.05268378923535
1.05356457692966
1.04944560510578
1.05923122064825
1.11498055789319
1.12136259261195
1.0719091901007
1.02026529047054
1.13899905116156
1.03875820798837
1.11531266105236
1.14514922722054
1.14235703928444
1.05621202695673
1.10458598358901
1.00117053827277
1.08868128407701
1.06378271148712
1.0938639557639
1.12844311978583
1.17319413988208
1.18532125997784
1.12022997274596
1.0308026272622
1.17397762432054
1.08837618200997
1.22909017631383
1.1510852004317
1.22537162904468
1.17466374937092
1.13507362221727
1.12981393970982
1.2488382764883
1.24564971031501
1.25576638463326
1.13690840492456
1.21633531579549
1.14960535436242
1.22561701497778
1.19729586303102
1.17753581078415
1.19088239004992
1.2441291924867
1.18115185583531
1.41238015311759
1.19360811162343
1.30837572623748
1.19728218131342
1.21604175404091
1.20859501461691
1.29568401756507
1.19079871654911
1.33869859532407
1.26208127824908
1.27506834070726
1.24833449444501
1.4666613223106
1.26523480131724
1.35153495518197
1.26968845438278
1.35726705607211
1.27777386875691
1.24283135743174
1.20677662823911
1.29143415079902
1.20456708252335
1.42487304475361
1.36903038065535
1.37462983726351
1.28301117695552
1.31883336071197
1.34608723359854
1.38856772558224
1.35029463962272
1.44984909698566
1.30049778952082
1.4887743434597
1.28696833281784
1.37602804641911
1.29083964809004
1.33459516688157
1.39795210214356
1.37146020807107
1.20741195752727
1.43748919452396
1.4511427889131
1.52225247314891
1.39062570646707
1.50444539429503
1.33658642478593
1.5188026672617
1.34697511782322
1.3623701940408
1.29968908863909
1.36140594050559
1.29793948508216
1.32571357805748
1.34329429682657
1.46524119969064
1.45621174136452
1.45668473364521
1.38479154993348
1.53603533371682
1.42251171366989
1.44080526584448
1.29401959616205
1.3880793367515
1.39166388519168
1.46693706727286
1.34252989169507
1.64754690559958
1.45722820537105
1.4140699323665
1.4352281575743
1.44852116736975
1.45409903016669
1.4176695489837
1.34699904476655
1.54340925088658
1.45984223491429
1.64470717276622
1.42175572731325
1.55020348941993
1.42221412912191
1.57414026295902
1.40302715202547
1.51638661290856
1.38498131682041
1.63900023519651
1.35709138356886
1.47501863335311
1.46223694958041
1.57142114173259
1.39143083227543
1.46304424529247
1.51323472777485
1.58413239618038
1.55008694315371
1.52993767405614
1.39531273872777
1.58844728510006
1.41779046379808
1.5300186737939
1.45019051765032
1.58985417558366
1.51742172292237
1.41497398574844
1.31294276089233
1.44950631884412
1.44945565312974
1.41384909635233
1.53091736634811
1.66571570790468
1.32540834372864
1.65719209450252
1.43134299407234
1.4386180752811
1.47571273378681
1.59333831014041
1.58686923509492
1.46151964544526
1.33696953809156
1.49683616024156
1.41520263138489
1.63208095265944
1.41438560592752
1.75960801440301
1.6495047927278
1.43935535620849
1.38853135951302
1.6615395927504
1.3388060732753
1.52861740447254
1.42908313197106
1.66867813208898
1.47631967732943
1.49180390124374
1.46180969060281
1.46767124671615
1.40819785027324
1.63700535554162
1.41533376138848
1.42941963857455
1.40882285164457
1.62821901468918
1.43388367456909
1.63467696114758
1.43230495814111
1.61850438919139
1.61945514987562
1.49510938433657
1.41492603880961
1.59468311998659
1.44930425713923
1.67950106359491
1.42009753009737
1.45070235453389
1.41473249985537
1.49849949589798
1.46388234119223
1.67058782316154
1.43495711466568
1.60746856177419
1.58091710559094
1.51040766545294
1.54034621060127
1.68433062994587
1.58682264541422
1.4552723953874
1.41886671190421
1.50732730275533
1.36942905792707
1.47407244044234
1.47248703042535
1.53506147897561
1.44752156693515
1.55810157940719
1.54270852631307
1.42037224752147
1.40767008490793
1.56832185533756
1.44926296843524
1.53060938445575
1.48798995074599
1.43079644775557
1.52062253867347
1.49915763017144
1.35106115429692
1.44168077940462
1.57963577260608
1.45413672128813
1.39186863639453
1.61225893866874
1.38452325001999
1.47115325659551
1.41183247915548
1.44633756924866
1.33950798115837
1.47610991222122
1.41448715215282
1.46316149607909
1.33847674158021
1.49248914428227
1.42447024294179
1.45584856413504
1.41207600003202
1.53044496734361
1.43979942676525
1.40437275578929
1.41049920364375
1.57666195915015
1.49907132282223
1.46991026117111
1.36969072279065
1.4659520117917
1.33924713646725
1.40390822896819
1.36591611459692
1.43839060640174
1.33988684834186
1.37193208769934
1.3082195308896
1.43097359612624
1.33146401064019
1.49875738385848
1.46866244099866
1.48810586139209
1.38984510960818
1.41864891440226
1.4600631042323
1.34056077281323
1.2430516522227
1.37575497569454
1.25839843619306
1.33914649442748
1.29089781664139
1.39588497367693
1.29155115920931
1.41264130527624
1.33156320469163
1.40756835401049
1.31926953880644
1.3344236871313
1.29592940491862
1.33136409978129
1.28761699510043
1.37087819246329
1.28210737011997
1.33763569797261
1.2727044235234
1.25280456599187
1.28903994801319
1.33180467999659
1.2776571079323
1.30016107978869
1.22881871389655
1.25598630187186
1.27736077220206
1.34463282178155
1.25623996831378
1.21717276945188
1.27443445751729
1.31194581248656
1.23634499677873
1.24620329994057
1.19577168142708
1.23052251917512
1.20441997703209
1.20802916642863
1.15629713814411
1.2102121193693
1.19921893209474
1.20459572630618
1.11639009578835
1.15110420115245
1.15064760993399
1.17659847801312
1.15065595104418
1.15897930260478
1.12314311015687
1.17127087202429
1.10422126103429
1.10191429248265
1.11539591225058
1.10027751994958
1.10266019421846
1.10218689311537
1.08314857805101
1.10576291034136
1.10417665159144
1.11608798583161
1.0765055075905
1.09428002143897
1.10059258124557
1.06134395273019
1.01199172607115
1.08056363244472
1.06570724379834
1.06839192518562
1.02084086022727
1.05079533460776
1.02909016096791
1.01147960446015
0.987515207085152
1.04299975424914
0.976714610007757
0.985816732304866
0.99480073739912
0.999401485674137
0.975317119935813
1.00933314570795
0.975760541584722
0.997308660501284
0.986743969916953
0.96335441768065
0.946931410220056
0.994070715801965
0.932795565633837
0.961956724533026
0.953706871218225
0.967908360226995
0.921136464918908
0.969448478337012
0.88635899326028
0.917279206775855
0.900420709843325
0.915962936181963
0.895194427095881
0.91194571652477
0.890259474567866
0.888663053987207
0.907735799954962
0.939062553987146
0.904173239565555
0.890173112147511
0.852887505913226
0.86312085627655
0.848603523898503
0.859896850364746
0.855187329539948
0.880993343279473
0.844411699237096
0.85315031072983
0.832097833983241
0.833963070019085
0.838823745083824
0.841596855067399
0.823551685256868
0.84583005655276
0.799710808544235
0.840821962475708
0.811795875369826
0.804749534732261
0.816547812708591
0.830646094089326
0.786947631717665
0.790318220626005
0.772501642027758
0.795416368979181
0.755660564340072
0.765067477618843
0.756480676946369
0.787082216947688
0.747576837057298
0.779086930162353
0.751243378772903
0.756311963739175
0.753186233450991
0.759390054167618
0.727479526802277
0.746162176019778
0.721326825275236
0.729244599436999
0.71473558396917
0.733671894017127
0.721498388954249
0.72199561576949
0.70605438670926
0.725804678862733
0.69780337136909
0.715546823816791
0.694256475013091
0.699828386264191
0.679961109395116
0.697973353803475
0.697791401031889
0.679896359871935
0.666929886800578
0.676981866025871
0.665221089342918
0.679160408212946
0.659554808518263
0.668715511352169
0.652489383927595
0.661681121340782
0.637902527875161
0.651290358005797
0.650316524784987
0.658709645833044
0.635521150741612
0.638823900082585
0.631962425604451
0.638153990410621
0.613000381338607
0.625624884268566
0.615616721394357
0.631021355794601
0.614831235247238
0.613451364918853
0.602959440927766
0.60980420943416
0.604498163099394
0.607886439338461
0.578271915623391
0.590769622138847
0.590817189505764
0.589604162128332
0.572347004660901
0.584972375215317
0.563577116779766
0.578195067291784
0.573547571341004
0.571102828927935
0.56422589757952
0.572529355531345
0.549658482032159
0.562815813030086
0.542002274856017
0.548277572524466
0.541992429391382
0.553429943195892
0.54042696838931
0.545040037902892
0.539847393096477
0.535672449800663
0.525191383730563
0.532840316087551
0.520528936431805
0.52846474048438
0.512386589012237
0.521546268388482
0.512239439441105
0.533471222534956
0.509172813087393
0.516086616015612
0.504875788847862
0.51384819085483
0.506598233480293
0.501979333067472
0.502359061588264
0.50578513762862
0.498383759160456
0.503427899513235
0.488223608135444
0.498628725598925
0.49075893775459
0.498598778986644
0.485513606762399
0.497685848228352
0.497557220299139
0.497298561817626
0.477429667611316
0.49436305006988
0.489043310207606
0.497115465444775
0.486325321666984
0.48744589042848
0.480511397432049
0.501860780219661
0.476001093122083
0.491876321790657
0.487962384256029
0.49674182091726
0.480388787126857
0.4980515224864
0.494923440518896
0.49879529149558
0.487344262097223
0.510976287825211
0.495542622759655
0.49887928837984
0.490710470517102
0.516466095247946
0.498474779361838
0.51407196045877
0.509012199027668
0.515284977853178
0.511512956631035
0.521581555780914
0.510821063680987
0.520463520240799
0.517953374467934
0.530648869530296
0.522839418974679
0.524064408519369
0.53019214327442
0.530870860781442
0.529126189699047
0.544222924337699
0.530451033567236
0.548444618345576
0.538159667130836
0.540600628632816
0.536831194487396
0.562384254229709
0.545645714287069
0.560158599046532
0.544068290530289
0.559525230130299
0.551890176160015
0.56124231119422
0.550081775988836
0.577211120729077
0.571403002766917
0.587852719133564
0.573461877604001
0.587378167239323
0.590856046567311
0.591843303839679
0.582252814690651
0.617627181684759
0.591704399116695
0.601195429588333
0.615357586784433
0.606945838898696
0.608618138959182
0.623121565910101
0.605783981546186
0.608753902703899
0.610743978469856
0.627936915086162
0.597483063469291
0.611665157472195
0.616456653179022
0.625280046574399
0.617923516136265
0.616700272167437
0.602467027021391
0.617285998189848
0.618856291758387
0.617784307834969
0.592166080859807
0.60903444004586
0.594361607917138
0.609583421095116
0.600867417641175
0.631819779046293
0.607574411515116
0.612829553784708
0.596967765920237
0.608881529402227
0.590090301739527
0.61236795836159
0.596956169107399
0.612362901899334
0.597001321599841
0.607105762397148
0.600918804761583
0.611377765972965
0.592846702294876
0.603157301406711
0.607465360526856
0.600860384691692
0.595961805118485
0.615668873156076
0.594315737271486
0.599419566016796
0.591757500279745
0.605356319232186
0.596088983133466
0.610045550973161
0.596703300192931
0.618666323479855
0.597551389004669
0.604364303650193
0.593123974484325
0.612558207607272
0.597829452277016
0.606190575089921
0.59827495276626
0.597747554301271
0.587772963294397
0.606390835919145
0.596099247841037
0.598550953070236
0.591610745014697
0.601013954045311
0.582011147263488
0.596602102428605
0.577363606839201
0.595195169376075
0.575085519561343
0.584341365557133
0.578198845349858
0.577056205815062
0.570628577694249
0.57473680698365
0.566395905638516
0.567150718819267
0.54580494885577
0.557197270994276
0.544758114174632
0.546214960870664
0.53555003419068
0.544394819207282
0.528927143275202
0.539224036827202
0.516257207917775
0.533188668034955
0.512361864588524
0.519363485577238
0.504433715360267
0.523380662474882
0.49670156470689
0.510490076263352
0.497033488692947
0.490908642668821
0.48668540803365
0.498464119673781
0.474479603903958
0.483971458430164
0.47339515331374
0.478726979820789
0.468948622798061
0.469631322619137
0.468848333532508
0.470018912247863
0.457170739356784
0.468958518386936
0.454753577449535
0.44986330615679
0.448331002235286
0.451937167432777
0.447454294806752
0.453112017811165
0.433223623303855
0.44119684597812
0.425570429835828
0.437790248379737
0.423160518774516
0.431872051511191
0.425512490284694
0.441258471424753
0.422950038212269
0.423964210503567
0.411263435708778
0.41870060094973
0.405917829044789
0.420704324354928
0.410891214711452
0.406230020932402
0.402867068242255
0.406448045207233
0.406066537101923
0.40798436216593
0.400907270796867
0.410055202146179
0.396237997398011
0.398766932107148
0.388658749434548
0.401774902311294
0.386839158325299
0.388621693564027
0.389074815195688
0.384653457143501
0.387214420246455
0.391350592204552
0.379641795630689
0.38712601606325
0.375126417478012
0.383610860891647
0.371139870186044
0.379384336027504
0.366632982788361
0.372766134511424
0.368359575159049
0.369756183293494
0.368622536669342
0.375798867314005
0.36710295963193
0.36669394325485
0.35810310968457
0.363458766249298
0.364700084116854
0.366526845470764
0.35297069052295
0.363044037288799
0.355117234240913
0.361507054848509
0.349503593135671
0.359205781826178
0.349892557386084
0.35847329356455
0.352384633504646
0.349004887487816
0.344900866988393
0.351440530198366
0.343434996450066
0.347398819342802
0.342552451396386
0.344114368871257
0.339682054110841
0.343156342099458
0.341304370355373
0.342822653843842
0.338557270196992
0.33514474745857
0.334103289566968
0.33852400821526
0.331404016809513
0.342782503366395
0.331851111267251
0.343100722100944
0.327335977528529
0.334147508580594
0.326797418427904
0.329611535330163
0.323739660695883
0.332608449898793
0.323177834738768
0.32935544011173
0.327919659722518
0.330383681171144
0.322966281614822
0.327349244579034
0.319434347974775
0.318561440559005
0.321860858714887
0.32867615142599
0.317396383114669
0.321457074204826
0.316214997930899
0.326360747831917
0.319042967674318
0.318690354258438
0.310588344765259
0.319112548589308
0.31938553822047
0.318855004701606
0.313950691589658
0.312227679459623
0.310422325163487
0.318875429875005
0.311766063019775
0.316061140744243
0.30448790180884
0.315723673868482
0.309107816776077
0.322083065129006
0.307478598409492
0.315485467527681
0.303445049579281
0.312465272423137
0.310696231588395
0.316722401405741
0.30043570432478
0.312635769972109
0.303524297550752
0.308383927413355
0.295402878539884
0.306178358192592
0.303821395691819
0.302267398052851
0.297012277143969
0.306449461001651
0.299710787815227
0.30269847660279
0.294681524628119
0.303077971708771
0.292739943037944
0.301735081162318
0.293240458993617
0.294530023069513
0.293878986704345
0.296971973888672
0.288839005530797
0.295347000218471
0.28584076928238
0.291417291099744
0.282038403876073
0.289057620280038
0.285886960388044
0.288825137847894
0.279782798612061
0.289339120297707
0.280847447915234
0.285873386641212
0.277641643454704
0.284163391405209
0.276348911820668
0.283426939882213
0.280378680961291
0.285171458456031
0.276089805328994
0.282057640055292
0.276234976732322
0.276584704934642
0.26856946331757
0.279344803803188
0.267456033631654
0.275382490170925
0.268400498521133
0.273933876279102
0.266649267396618
0.275879241906644
0.265161519361362
0.267194623618635
0.264914088123489
0.264012375334221
0.262884683516074
0.267694932215067
0.258879637402607
0.263671623351978
0.259244050017102
0.263296334354495
0.259929699572836
0.264397920407014
0.252077606939823
0.25490011378309
0.25244831581546
0.255209282867824
0.251100222748256
0.25364192923833
0.24509949724093
0.250506980727608
0.244717556925398
0.248594709165124
0.24443976937365
0.250984681710573
0.243287475047562
0.246144588744325
0.242962532066547
0.247632356380095
0.239526471220976
0.240551066804001
0.235171151287676
0.238777209736176
0.230463042937378
0.235734452960522
0.233241085434562
0.2369008574649
0.226415548249818
0.231049036829363
0.225663450947356
0.233270548440886
0.225305398951511
0.228675051210277
0.221371150199884
0.229919118695981
0.223860523007154
0.225401071516799
0.222049554485455
0.221625443887535
0.218589488091108
0.221440916350728
0.217653926685743
0.222204913643424
0.21848770190749
0.222153810709166
0.217300503005862
0.217785899249618
0.216939631434961
0.218552224248055
0.209871320663033
0.217004544675779
0.208040669792536
0.21398457668598
0.201865988759567
0.207142322982288
0.203619303865372
0.210314115573398
0.20592262297935
0.204730122392294
0.201193796618315
0.208011583064897
0.200972560516546
0.204978675922563
0.202427876867324
0.204331285015457
0.195377444386482
0.205893712083273
0.199562161869092
0.205796582351414
0.196440536344342
0.201917637673308
0.192635102528988
0.199287251793043
0.196638343617202
0.198169497513839
0.194972282917116
0.195286837828837
0.188745829235994
0.194069480060326
0.191171582817599
0.197713114795117
0.188147881611941
0.191478081300687
0.186176216871232
0.190311094593834
0.18444297641443
0.190123703481321
0.186082869599537
0.19086716308777
0.184137341199121
0.186281460249954
0.182624799868055
0.184279874693414
0.181969519484198
0.190863807876604
0.183657716106996
0.182032410283315
0.179850692474111
0.183463172650158
0.179414909076591
0.184190345787993
0.177425599976822
0.18549876017299
0.176603315815789
0.183125148497842
0.177168814484237
0.181885885917778
0.176699150867848
0.18308634106276
0.176338207612752
0.179137187350858
0.175705548003537
0.180096362022077
0.175615638042761
0.179640241468812
0.17715185987643
0.17785372994214
0.169720631397192
0.173448438561725
0.171634956090291
0.175253493334682
0.171864695971081
0.175010034045713
0.169781525249745
0.175609383573887
0.170032574009502
0.175045193527576
0.168981940129074
0.175679433597019
0.164834854289517
0.171236185546715
0.166339317309942
0.168788779958984
0.166825800837609
0.170201797963153
0.163725688872728
0.17045719434882
0.163963395898629
0.170992168272985
0.164392405739563
0.170219529372344
0.166673919440221
0.164145919430494
0.162957840197662
0.166764718429833
0.162452490698562
0.164024160753465
0.16344662775486
0.165310313862449
0.157908276835231
0.163903317388905
0.158832816670693
0.16341358316509
0.160580065587851
0.162282412554092
0.157042892121398
0.163272159192187
0.155925618180061
0.158176446202672
0.154811832907993
0.160133527013619
0.155706827674589
0.158366330632709
0.155526580128345
0.160222534173241
0.150981513662053
0.156083919280136
0.154251861805672
0.154240775630338
0.149737058113572
0.15648149606669
0.149892285615542
0.158534897967869
0.151624606786087
0.152623122281299
0.146349323480824
0.155420603092251
0.145945000270083
0.153187391493121
0.150596010384522
0.15088639317338
0.149734177534052
0.15250715310278
0.14827583017522
0.152506350960852
0.146171342032363
0.149269055901191
0.14318597759053
0.14954314708909
0.145832788291801
0.151390904204125
0.142734824437913
0.145868435666607
0.14311890830605
0.14695239194398
0.142108874770439
0.145564864306393
0.139711379490281
0.146725823296513
0.138629839020543
0.142105319263422
0.138619387086582
0.139677917611421
0.139137584880295
0.141927646353194
0.132937338553185
0.13807760768529
0.136524512838277
0.139854896408475
0.131329828221198
0.135828172629124
0.131259770887765
0.137083989555075
0.131344197588491
0.132913391229443
0.127907427087896
0.133936506986307
0.130676081045458
0.134420490651459
0.126858402828892
0.131850076039703
0.126783516457278
0.132753563515686
0.124465592643081
0.131902893294677
0.121765294295457
0.128821887834492
0.12581623268222
0.128385323894312
0.121744650730277
0.131097178113024
0.122169260462075
0.129230692642528
0.120647587037827
0.128474285335605
0.123369027229754
0.124861502315146
0.122415399538604
0.12805003338108
0.118700181558051
0.126754617043538
0.11895475159198
0.121912494720022
0.11862625675318
0.119297236166081
0.11928446560279
0.119477770328765
0.114308848552425
0.119590390593924
0.115419643768877
0.119643599437747
0.112679080074433
0.116452781237288
0.111973262473807
0.1182615923739
0.113515823333732
0.116586557519516
0.111720524371941
0.113181932949199
0.110619734349716
0.115685587698739
0.108847483207199
0.115574748113154
0.110325949987361
0.113348863732073
0.108031047226331
0.114669712953904
0.109384581944204
0.113438256285687
0.104397499391263
0.111064993992927
0.104419623349203
0.110907899361255
0.103667181288225
0.109403890605209
0.106925490665961
0.110365067308461
0.105690193209088
0.108607693207203
0.101212700404676
0.10779091566372
0.105507428759226
0.107968871422611
0.102536659405477
0.108881396439456
0.102070580587074
0.10505885570665
0.102813738769607
0.110915572834172
0.0992327857693588
0.10494558512481
0.0992127625766066
0.105940573995582
0.1018051190808
0.105883653526923
0.0998647201419111
0.106147659040298
0.09802217788878
0.0999821104754276
0.0965077832440967
0.105248924166216
0.0979624288736239
0.10456623590683
0.0982149320845977
0.104848499204076
0.0984689764931857
0.102081790587414
0.0960312740418071
0.101735785451734
0.0944370435433754
0.102988341019824
0.0941468579654422
0.10208391127352
0.0929254478445814
0.102839009284513
0.0938852440347164
0.104777056038264
0.0958532209644123
0.100086192639709
0.0836700213653302
0.0959576824689251
0.0918165923305336
0.102406879648046
0.0883355377015719
0.0986216223494138
0.086993888535916
0.10098245188547
0.0906349698304476
0.102804313657705
0.0893270583301512
0.105076908213464
0.0873985727741375
0.10882900054234
0.0847868236720011
0.105331171771447
0.0910183963936814
0.103060554990906
0.0955339442547987
0.10530724737806
0.0821804475035061
0.0976573219916844
0.082624072614827
0.101424407204432
0.07893780078642
0.101031188444271
0.0792695794253512
0.102538003837396
0.0764847405787388
0.1085553534682
0.0741405847210091
0.105526241259237
0.0758628129228904
0.115177202720894
0.074227590442199
0.119728753975025
0.0699296836813681
0.110404513600643
0.0648094948379863
0.119631426637194
0.0694491164549738
0.126871524819053
0.0667212380408114
0.119065877489691
0.0604620520811349
0.125192506898471
0.0725724498633278
0.115990237426841
0.0670883134258135
0.112998262857336
0.0856343339578913
0.0976474515878827
0.088294373718316
0.0941530842798729
0.103751440827605
0.0773319989260356
0.109346437130769
0.075551186237641
0.112209224438551
0.0758424020395811
0.113425332165532
0.0784580783239536
0.102572994963647
0.0831132062975598
0.0983098609515664
0.0924970368899601
0.0913057844372509
0.0968034617986603
0.0910697732331971
0.094351346512979
0.0913742528106032
0.0912322630952823
0.0958235259571895
0.0904053945582744
0.0946825366395641
0.0884776137889118
0.0931583475696277
0.0892356091446537
0.0955114800726996
0.0920510906264391
0.0947271837986388
0.0929764897699936
0.0929375062322662
0.0904905617251383
0.0921665294019818
0.0899151323334266
0.0943018150093373
0.090771137742178
0.0930042486872101
0.0907422174246828
0.0915375650021462
0.0931400175609255
0.0949947736141993
0.0933962226562079
0.0941261524794495
0.0943010323857306
0.0939805125619513
0.0935855512088894
0.0960920316066534
0.09320502875733
0.0960535535906914
0.0932070265306361
0.0949412127784736
0.0943615257927696
0.0947023799166689
0.0971439331184967
0.0943683513570214
0.0952961035303677
0.0948882695646208
0.0935644431669298
0.0960168571024136
0.0959432316692346
0.0962735401764118
0.09492626061235
0.0927302378226919
0.0941466433123594
0.0972236241325264
0.0965652651331085
0.0992556540856702
0.0974429491790567
0.0982620340754704
0.0971564831350613
0.0963322524900959
0.0936138423462265
0.0962023715362148
0.0963320083819733
0.0957679912853498
0.0965755204559315
0.0972014123270013
0.0958495581048465
0.0948225770443484
0.0970900616498466
0.0936266776215599
0.0947821211697498
0.0970409359918368
0.0955915951509487
0.0964317111537644
0.098068246160813
0.098425425479132
0.0985970878935151
0.0950577510924842
0.0990160545209204
0.0964637230953055
0.0969537834169161
0.0987768135452836
0.0998104594260956
0.0992265261664542
0.0976705087691617
0.098412417776437
0.0974475848855942
0.100342566450827
0.0998246187184827
0.0962428712426533
0.0997043280598506
0.0979991677787237
0.100297594012728
0.0978373796866093
0.101035277454316
0.102022187748874
0.102528235154536
0.0992649664475532
0.103205080658328
0.100853380769834
0.101040435498608
0.10030938028336
0.102158960993523
0.101988521018821
0.102143809360648
0.101349013285922
0.103766972469253
0.103600693911288
0.104190169186295
0.103303114909711
0.103787488344487
0.100975039837483
0.104394725792727
0.103295325000563
0.105609315858235
0.104187043642509
0.105106771100915
0.105260856730229
0.106022732801668
0.103173802691563
0.106061759491348
0.103629031337419
0.104594603276665
0.105166611044202
0.109047697622012
0.10535020055624
0.105336996167076
0.105712966200678
0.10627451752015
0.106622111310054
0.10912399068659
0.107052353658696
0.105206674712374
0.106848536622765
0.108347865258814
0.105896610175799
0.107130038774078
0.108642505145838
0.10895225232432
0.105565682599679
0.10810941739612
0.107987128999886
0.110008965685159
0.10838054748126
0.10981812145587
0.10869633977978
0.108042340426105
0.108871590515105
0.109425330365976
0.107482414084766
0.110178700803965
0.109613665984461
0.110588954939476
0.112235607876419
0.112010398638225
0.112265001936834
0.11173870448369
0.110219510073785
0.113820956511507
0.111030417226397
0.111887323279021
0.111064689971995
0.11358037770423
0.112956906816164
0.114320109637554
0.111381800130989
0.112242516073362
0.109488362546906
0.113492270776168
0.111960338400647
0.115645879447341
0.112033140960528
0.114156430647113
0.112452863296688
0.111989297935997
0.111758988387242
0.111498055539873
0.108736486634834
0.112948761272583
0.111655955910379
0.11361907176406
0.111888560804173
0.113224288601891
0.112505133941715
0.113937156684009
0.111083585117214
0.111873387275856
0.10874050872759
0.113503472152474
0.109474394945907
0.111589309317625
0.112911865989641
0.112463242742045
0.108409356765913
0.112789611843395
0.11035820305571
0.109690387381512
0.107209628902663
0.109369737985209
0.10850601510755
0.109215214540623
0.110307442348613
0.110126933884404
0.108806136938858
0.111180115745618
0.109840741206545
0.109572313726273
0.108286982606389
0.110902218529592
0.110317575739479
0.111826719360544
0.107617695408928
0.109326094958008
0.108970530932196
0.108428209373395
0.108240365354963
0.10962799936331
0.108833731645085
0.109934040304169
0.105260672581751
0.10832461134948
0.106404232941752
0.107888313277819
0.107213006568569
0.106796814767892
0.106751742228269
0.108360394708707
0.105608831090998
0.107558013323709
0.104891798702786
0.107115543354409
0.106536398276722
0.109250457703498
0.103975928157049
0.105127283392135
0.104932870909702
0.107658059882565
0.104751134004839
0.106865831269633
0.106407671326316
0.103937499886132
0.106202389012975
0.105903854406419
0.102579485356708
0.106179110469271
0.103194960048951
0.10530334743859
0.104446438705325
0.104349196772843
0.104558600526832
0.106365873505554
0.103132486913527
0.105397163222872
0.10242661436036
0.106989890931821
0.102836325013843
0.103403344240994
0.102684786060247
0.104422107358619
0.103885778581118
0.102150082508683
0.103950444068302
0.106710223864025
0.0980962664464887
0.103838603695338
0.102025483891948
0.104450234015228
0.0986222328262176
0.104912011967393
0.0999958846865294
0.104617300677844
0.0995139353951678
0.102879349936975
0.102135905523282
0.102321896946069
0.100058213906003
0.104311091836156
0.102127307250251
0.10283890463671
0.101086626693459
0.101368341237386
0.0969312904882151
0.101824149249701
0.0993568772124995
0.101659903402247
0.100817403561073
0.10023364906358
0.100253088490428
0.0996631115052336
0.0987604914856984
0.0994283709518295
0.0980951599095053
0.100068739904902
0.0957599751114043
0.0987105235755487
0.0969813563722832
0.0985249392891239
0.0962852793930914
0.0980508388623143
0.0960545162546012
0.098222592388119
0.095760399994697
0.0945388721856125
0.0952615665322555
0.0952292381740711
0.0940472779631495
0.0960230986116286
0.0939212810896953
0.0932649324321599
0.0947204004439851
0.0934525230699735
0.0934605025603543
0.0921700296426251
0.0933931932252443
0.0932832354612734
0.0903176310536323
0.0922848582520268
0.0892446850645654
0.0906366830608494
0.0887857325296439
0.0929524276239361
0.0882032301838706
0.09240999663873
0.0881794370892595
0.0892337617814939
0.0889369206872433
0.0908125229136837
0.087761425303516
0.0885883535652052
0.087197935063307
0.0886984348487756
0.0879089348276797
0.0883387833869088
0.0871370884225675
0.0871253210143236
0.0855773746528875
0.0887562833447249
0.0846218480369558
0.0868028012994721
0.0789108240389048
0.0901251498490512
0.0845453465325312
0.0864245600181447
0.0829238743115371
0.0871612866794381
0.0838524701218116
0.0856753171022538
0.0814760498115919
0.0874878204199943
0.0844528818456405
0.0864201958391419
0.0811959896204039
0.0839996870926592
0.081448995907561
0.0857395578955187
0.0834145929481343
0.0834444360935082
0.0846905458191544
0.0861761726975079
0.0835967092986293
0.0851386860970337
0.079180200213038
0.0841865837973417
0.0810843523096053
0.0836089184723627
0.078862361510391
0.0844651057530985
0.0813393484951288
0.0854013573903005
0.0805351886359204
0.0844005822585627
0.0814856031140284
0.0815224310906536
0.0791812591664611
0.0784632811057373
0.0800979079168639
0.0813499390578622
0.0799397949898855
0.0815587123972895
0.0796161004421127
0.0825037257121687
0.0774310646055358
0.0786986887743396
0.0774648549769028
0.0808283513603115
0.0763809498765872
0.0785908501538636
0.0784867658320163
0.0801864000255548
0.0780927194984231
0.0806828828000794
0.0790971003570033
0.0740763619656205
0.086997112816734
0.0756205428741136
0.0776464038055799
0.0772697721426132
0.0790677047384946
0.0790920829670093
0.0765697382751269
0.0762327016890243
0.0770557777949323
0.0759238611887441
0.0765916485175689
0.0767555185590476
0.0764740481950835
0.074407537625763
0.0766124033407623
0.0766661899965448
0.0772224586973553
0.0755030692692761
0.0770560933146223
0.0763854523749659
0.0737825075970422
0.0821690236972415
0.0777054581717204
0.0737442296193795
0.0814300210302246
0.0651615092440046
0.0797622111938968
0.0814183475839149
0.0759710321917829
0.0801060928251953
0.0729846594831536
0.0782519661070862
0.0742150752069423
0.0786457514570252
0.070177210598294
0.082788257918777
0.0710371598432704
0.0794160673744019
0.0744837164929915
0.0787688304732475
0.0730091868367022
0.0760830992230973
0.076484646421469
0.0779474809874457
0.0752749987670633
0.0775496850710024
0.072410597074248
0.0771440317516685
0.0765357097512937
0.0763967991134871
0.0720591138680911
0.0828256237495
0.0733369803364516
0.0770901214247916
0.0733169004287536
0.0768522964733909
0.068088296417724
0.0901854955818838
0.0675487979382978
0.0795277441799503
0.0686820498346261
0.0776254581475305
0.0748367777389257
0.0815840348043578
0.0746656826607616
0.0744966995516621
0.0730431472793118
0.0754307126879395
0.0738916301604794
0.0760247985612578
0.0751717777663066
0.0769701252430638
0.0759264815139344
0.0748821348934288
0.074443802226614
0.0717484133753179
0.0772295119958007
0.0715837163456202
0.0700616421006264
0.0880237630446368
0.0725518619091787
0.0840150556313321
0.0751501235288436
0.0800855480811666
0.0715665209476093
0.0796691801880644
0.0707157443276963
0.0842509159453423
0.0717154635321356
0.0782713082835516
0.0726300373980375
0.0800098322332332
0.0701148537675035
0.0813141963335969
0.0715562149727005
0.0809252096662972
0.0696653912167229
0.0815637237714941
0.0705052444404475
0.0819741069009696
0.0706810678921718
0.0825832529934182
0.0724515442351578
0.0858018270862068
0.0640557439374975
0.0776886673532435
0.0974042229500455
0.0694522738150569
0.0847484837891191
0.0727449531601917
0.078990159621934
0.0761588017647826
0.0772026530568274
0.0797399007858928
0.0804930025573452
0.0778122191504782
0.0787649403151139
0.0777281344686425
0.0804449384926316
0.0737156380670621
0.0668500158169863
0.0920457643548682
0.0790154707035544
0.0832003699817414
0.0819875985896851
0.0676639643755152
0.0942273645520323
0.0801759131033919
0.0817252970745679
0.082330507915741
0.0777715408971587
0.0814147888601226
0.0786339859816982
0.0824514894906466
0.0794879702450584
0.0852939531691287
0.0788311125688959
0.0870704006549392
0.0764586424089692
0.0877883376321129
0.0810636873045776
0.085607038524964
0.089340973407546
0.0810039223731566
0.0830604490507648
0.0883734375275575
0.0821835946271814
0.0861651880075999
0.0812906458288893
0.0836941662397153
0.0803605771953236
0.0960389139947115
0.0816083316553802
0.088977686645441
0.0920875040930295
0.0824324916662907
0.0839820237913046
0.0888050449084707
0.0874948378731585
0.0894620660953974
0.0681271374598301
0.116274992451523
0.0734670368494005
0.110319957886017
0.0817388056217685
0.0967678718523453
0.0803864475000081
0.0989495347452954
0.0771923708726345
0.100474424411637
0.0869520800784428
0.0938708257106798
0.0900401305116282
0.090570807089566
0.10157438008963
0.0921105286203558
0.0969805126886622
0.0933165315064627
0.0936359512544815
0.095317237987415
0.103954431023932
0.0773800909241617
0.107793706708021
0.110066841310314
0.0990994749954555
0.111194915543558
0.0790939973779126
0.125070789672574
0.10206461111415
0.102121810222902
0.0999200999328376
0.100619721772166
0.102849219304117
0.0874498907969828
0.115219664618142
0.110206403312593
0.0968577669244547
0.115146858979882
0.0904155724947593
0.113453668801103
0.113431138440753
0.108659258803722
0.103462851496487
0.115012391923941
0.0943425937860977
0.122870984805097
0.128905108645026
0.101109861207109
0.136905080783188
0.108157578213136
0.126625999909338
0.11269115241208
0.122700214748075
0.117234199923464
0.132461744930659
0.122095425974372
0.120909693057107
0.111165481491137
0.150782354000402
0.119798364738932
0.135475472771511
0.128626685489505
0.120275678378776
0.130836949065914
0.163715523516903
0.146176228541229
0.146834223352121
0.129164266434857
0.152986405035521
0.149914010779281
0.144704667982698
0.149480084035855
0.147179959094828
0.15249061894749
0.145827172998569
0.159157239380219
0.156147450246622
0.154487060194595
0.165148460391388
0.146693111622355
0.16691445153853
0.164963189802482
0.203207256830341
0.154640214313814
0.190807568745641
0.180339227563079
0.175806679019719
0.182146036543907
0.176437640973959
0.188827885038481
0.18907686188762
0.193698980437931
0.185342381596299
0.199175532347255
0.212995148596646
0.181214937325864
0.229755559730539
0.202267253707541
0.224077209843652
0.155867173222614
0.316226463859642
0.243778896987732
0.235494205617652
0.246369658612676
0.204736507022244
0.322102538546069
0.267991466373374
0.275073986821512
0.284154272488446
0.288082876403513
0.289631963810049
0.313672597262653
0.31608999558726
0.331977798161539
0.336281692821684
0.328659874017384
0.331915263725461
0.402864793414704
0.388603966859296
0.405851910378243
0.378121749063416
0.406867712441161
0.414768423172179
0.421814980240421
0.428108897850813
0.443475977741979
0.399151603896282
0.527835972585238
0.462715937024942
0.485843764462999
0.475630569317453
0.528594669967387
0.487278662288196
0.530671237857184
0.568678056778868
0.544872135553652
0.564022417958663
0.558736503068743
0.593684145354618
0.569125950526705
0.616139030061474
0.615554007397668
0.610423478420391
0.635256600440469
0.62599272769749
0.653733271121384
0.649224638886689
0.666420297995212
0.638580117775269
0.690706322936407
0.689668696906621
0.76179395730973
0.726831343241298
0.67658892637814
0.693984015216247
0.667850974018938
0.718127859752805
0.709056278964953
0.688748603927131
0.742524519619527
0.687706633282097
0.712336031225804
0.712207901535328
0.722162369424143
0.720738620343649
0.727504838584319
0.709991756537671
0.73074981241379
0.713413756090483
0.676675597277906
0.794817505907048
0.719265001625908
0.705833418025464
0.704220311989087
0.715424922318622
0.718555657893652
0.709592476015868
0.665463702805866
0.726233019698126
0.693987433425311
0.696176369592673
0.673209567113348
0.685700039319378
0.689162440139248
0.651259112864745
0.660469810157771
0.648489074753246
0.629727477160966
0.614435358097437
0.603196339063782
0.688750293800627
0.597809053084037
0.606679882426781
0.593860419108799
0.579072312418694
0.579492168570545
0.568683644585373
0.569117245581793
0.572092575317533
0.552545309634432
0.554416902251082
0.556255952312433
0.542671394746034
0.535058642271748
0.534877362101355
0.531982498589208
0.525221605094867
0.528970357436731
0.519739176540015
0.521799556690592
0.519811132903962
0.525152490172141
0.512450532658734
0.511461827284481
0.516056105972777
0.514828358619367
0.512172598874859
0.504795412778391
0.498962583575258
0.509669387375152
0.501190292563693
0.504729948570547
0.494658661707201
0.498579564945287
0.4954264056014
0.501913640616543
0.500594221877069
0.502259121276731
0.492458110365526
0.501937064976006
0.487542436591583
0.504250895874847
0.465007056684926
0.514521078598634
0.522352622695077
0.48079977279771
0.50741347299041
0.478069109155922
0.489831871884115
0.463518079914954
0.505711828735792
0.503638591024493
0.480011898958857
0.489753209725714
0.475612257016482
0.473530218213531
0.493026232314941
0.472125883314846
0.485697295989794
0.453182686950777
0.462585886987878
0.541571712370254
0.442016640664833
0.548041385508345
0.474768064883002
0.46898504792747
0.444401612748721
0.515474958288866
0.459485541069539
0.476427410914082
0.458537411348949
0.473925201183526
0.482679858512064
0.454836984279681
0.470314184318309
0.457778824993488
0.454435004622733
0.478099160859333
0.452735781136876
0.432722896270571
0.477222837740776
0.434610457019899
0.450581006005177
0.483371568291024
0.461416306103991
0.433464310194574
0.426849450179654
0.42882316095113
0.406847652545288
0.46196764305594
0.420683597422845
0.41491143567912
0.415901541976958
0.399550134116768
0.407236446259757
0.392259499005767
0.410900986362832
0.374723884104806
0.426251630030121
0.384517729957495
0.381028306328184
0.390359887049725
0.379539719379434
0.412967146425574
0.386134051609383
0.371902229766491
0.361645056155835
0.401606572779085
0.357603389545405
0.378100088338744
0.365142896177921
0.344806433637397
0.368816157505293
0.355369692841547
0.337933458487702
0.348353316515944
0.323757962043847
0.371733780080316
0.352277721527147
0.353976644212214
0.341575703315316
0.326257318546287
0.329271697773851
0.323519312336981
0.329008337665139
0.315970867700239
0.314518302059558
0.345846973668426
0.292718335313198
0.362698642673846
0.331959744081058
0.323155071760246
0.3303388267416
0.328681502195451
0.318493468764074
0.334704366273101
0.347281182969947
0.349784450254789
0.326055033099103
0.360119819006463
0.337167205399177
0.35468286815249
0.343375663644033
0.358300305255939
0.349739307759559
0.370822569146837
0.371097639485095
0.378748642278274
0.38073471989531
0.394899319254406
0.372696145102732
0.434637190559446
0.389483184447798
0.429830092458997
0.427040997580197
0.448163321064375
0.4566867722655
0.440454780274485
0.46174323068928
0.461859747451815
0.468712207290116
0.475196330077733
0.463268987039102
0.513259714342493
0.484790591280209
0.504008617231677
0.493866567056302
0.507678108251482
0.506511310620236
0.522332484274849
0.509048371206298
0.504019943436357
0.585807337509128
0.528260477473403
0.549170295030635
0.531867452450986
0.541253244129404
0.537216496896005
0.539622579094033
0.549636979380708
0.529487367585647
0.570366773487365
0.557842723873868
0.55201284578337
0.559194973217851
0.555365027453601
0.565568605405119
0.563133304175722
0.570563697014166
0.579652332059313
0.575145796788235
0.580768923625417
0.549931138107518
0.63595270710496
0.612036727647625
0.587176244360034
0.600841486808529
0.592189823926653
0.608679455993492
0.589568768079523
0.612265581444477
0.626595165991367
0.610722206883785
0.623310000580786
0.623563896189088
0.631216018572708
0.616815329712475
0.644121470750689
0.633621630022837
0.645914434773477
0.646729857174435
0.606011408937594
0.691518360725176
0.642854895429825
0.679883351866517
0.650633702861099
0.659513774434771
0.65453250420862
0.666065901995426
0.663719297502632
0.670344688274463
0.663025784687709
0.669117490879352
0.676592215320056
0.672837967954832
0.673590911271242
0.663869543420747
0.687433110804958
0.671662659243865
0.664323530107864
0.669747140591827
0.664268295265141
0.663143534989355
0.668489734057564
0.678094648059159
0.65624216892306
0.675951518511699
0.66493569417494
0.678511292811982
0.675244390788504
0.664365575300198
0.67107548377293
0.674952383154542
0.666279812688959
0.67932002727279
0.661127083881018
0.698315709278341
0.686296293637839
0.682695044609801
0.68414849554587
0.692181597017922
0.685840479582613
0.69705223523806
0.692709330913924
0.69924081719767
0.705476431083478
0.710662796102721
0.702562111674466
0.705279444778968
0.712783447855933
0.712197481309623
0.712805857926694
0.709855993248604
0.708522296442539
0.706522375853716
0.698390857548452
0.70373950982995
0.69362034443755
0.696015697562427
0.6799488966753
0.686770410146404
0.665691396321452
0.680086264555031
0.668827171359005
0.666981513252185
0.671181067562656
0.647831250213698
0.652342195968298
0.644889298255382
0.642362892101318
0.631324408360822
0.641721645345777
0.630335181426918
0.629773284528468
0.63148516882821
0.630979482028483
0.628133547432035
0.61991312922918
0.622091130033786
0.620518590568153
0.620353781326179
0.621380801445255
0.619194735049358
0.611368985403956
0.617571299385205
0.618445520499348
0.620525006631385
0.621832167179882
0.607908545581895
0.620672875266928
0.610748739467471
0.61412215754876
0.615406956394797
0.619622021382549
0.607277659182464
0.613619751203828
0.615772300045447
0.61545882474262
0.602274125524823
0.606944581642451
0.616568675201152
0.611812585853492
0.599820509517265
0.60239376451329
0.609208779228677
0.61069937435596
0.608478767175182
0.614218561924417
0.609859702527755
0.6070151485624
0.612120559278142
0.604151481341755
0.605606125732541
0.601024414171898
0.604179187187698
0.604405136315765
0.604801437318717
0.605835176770871
0.610128155779151
0.608092887308796
0.597915820549195
0.601353238395692
0.606876588978052
0.598191570998642
0.595413757730862
0.604188193565035
0.603542971439274
0.58958444505025
0.58723102626423
0.586877603656066
0.580004279900591
0.57620317148245
0.57099453609348
0.570048244663505
0.568890002234365
0.559324392689716
0.557207931440338
0.551140216069036
0.544854529958659
0.544341820163857
0.544157462136748
0.536636893472955
0.541432551559547
0.542650620082563
0.536018317174399
0.529818598962982
0.529922190012275
0.535600550824351
0.532846704276956
0.526038816778538
0.532272976881119
0.534922912614178
0.528763587972356
0.5258289674474
0.535661289736461
0.533360509190067
0.529452472955028
0.534832710451453
0.540984580987168
0.535996279739967
0.536132171375509
0.539091229677982
0.543620729404795
0.54405694018172
0.542860841882047
0.553006222715595
0.55544577420149
0.554131725167082
0.556126292509315
0.561392008003527
0.561421562572356
0.560103284706925
0.56484765412022
0.566645537299215
0.562772362661695
0.560576169589708
0.56556351745155
0.565983802492388
0.559487813662253
0.555824883421448
0.559230668411368
0.557111285133462
0.556287347617299
0.556723378189491
0.558807316931008
0.559329653032177
0.55212310814433
0.549916568707166
0.552699983598952
0.548202273181926
0.543668424607362
0.544386449646347
0.544415906410705
0.541623091306591
0.542054231415509
0.538085596625872
0.53105314790648
0.530936234170342
0.528235493987932
0.52956677116164
0.528398308521341
0.52487298850223
0.524939284581843
0.524485434759613
0.521985798696939
0.519741962597503
0.521035569709
0.51779430076115
0.514471149965178
0.51607419487241
0.513377707983398
0.511365756645725
0.510413786878685
0.508362939049048
0.505403744368923
0.502807141895182
0.498729675178238
0.497098990057512
0.49117867274097
0.487229292184439
0.487169724806986
0.48549326678145
0.47992546910675
0.475152772379161
0.474986255171619
0.47169718952587
0.464373030403109
0.45856805219317
0.459981745398657
0.453706467652777
0.451426128512838
0.45593081978976
0.45338605411109
0.451776804150767
0.452855744511608
0.451806536103186
0.446072514039018
0.444984932844071
0.447624640513692
0.44175863882156
0.436710766185765
0.432911405529344
0.433934334658374
0.425108582799794
0.417707533625454
0.419056952113938
0.411009829239175
0.406948069748273
0.402318104034217
0.395562532100572
0.392220316911233
0.390325631840594
0.389693904464074
0.392903237603751
0.395454820521776
0.396820418425503
0.405269288401044
0.414333730532945
0.419640675172983
0.427473180455501
0.439932300614292
0.45518981294338
0.470711630578306
0.483614647568202
0.501195230790867
0.522239588504786
0.537987433770155
0.556407556034774
0.575820075945585
0.597243074413337
0.612765857637847
0.629276394977054
0.649746446152464
0.666448306632002
0.68514775951134
0.703055474487292
0.721682518855601
0.741065837923705
0.753709624941637
0.771006672351172
0.784148396529719
0.795932745655987
0.813599370181977
0.825604821382925
0.832928248524723
0.839805277694263
0.85200636354939
0.867632457151005
0.862585502728935
0.875533007173016
0.883660887904877
0.880311221941893
0.875706467981993
0.87849968664179
0.879236670032361
0.87905720934917
0.877197145748574
0.879870663899463
0.886594422428062
0.877596432572003
0.872554712647172
0.878681795580797
0.886985471294427
0.886891864036805
0.878533952366246
0.891990655800802
0.897252295539194
0.897977021638241
0.911250137180471
0.914966588783542
0.921665536336424
0.927848672075691
0.930882836458827
0.947358082353249
0.949310980585288
0.960827929403045
0.98872532235136
0.998507024678862
1.00606416882939
1.01860525857094
1.02332213214773
1.04563101186248
1.05770433108211
1.07885704061892
1.09564327018633
1.08574787402117
1.10127652029968
1.10044523809456
1.09861636787151
1.10265880334588
1.10498856412094
1.10641332991514
1.09455581616908
1.087853878484
1.09131280053117
1.0890215753319
1.07464810610278
1.0805775637898
1.07747018452063
1.08429284080965
1.09774120368175
1.1085234740768
1.13444894586957
1.14091234622531
1.13022825437952
1.15135617089634
1.17528033068102
1.19288802209116
1.20472816366175
1.22186740198612
1.23578349456611
1.26394887365351
1.25127942309541
1.28087188417422
1.31394533773153
1.3221912540863
1.36154296328162
1.36405396893095
1.34938917812212
1.38969151975677
1.42890151221996
1.4490136623592
1.45001702440118
1.50108442446411
1.57119888927725
1.57382624590181
1.54012350133006
1.63631905740417
1.65257779309025
1.64664135087176
1.66781541024677
1.70585351167788
1.72752396387921
1.70571427931714
1.7376507982432
1.7963782794507
1.79302277918829
1.75081324802678
1.75492058375767
1.77298062172479
1.73728839467647
1.80761361529654
1.7780035092465
1.79975140021799
1.74627875568
1.72598177373634
1.78609537823665
1.78014169580793
1.73522340057057
1.87542190404972
1.80095234081175
1.78253890834196
1.76702069886712
1.84748824820439
1.75575375222524
1.74413879998261
1.79040254608139
1.90522328250969
1.89409494138583
2.00109071604201
1.93048246940104
1.95345961342131
1.91081410159096
1.92568047426905
2.00111024445881
2.05237132160911
1.98632586548663
2.0040272441
2.17911927245466
2.10045688904916
2.03000784390637
2.1959703841968
2.04622034258274
2.0517752345573
2.21564568811604
2.29751515582142
2.0891692585596
2.24555876143479
2.28937374451752
2.4424294943281
2.05566452126532
2.14107771323182
2.25047143835845
2.17750591206233
2.09092752579211
2.12589091951655
2.51607478643008
2.51884773308869
2.16375590299974
2.37815972632087
2.13997429774638
2.16326913117128
2.15292460174827
2.38345443058565
2.11117338499243
2.34159344233122
2.41754563945905
2.28257380643771
2.02702989379188
1.91985072300432
1.86016957962936
1.96141333007352
1.92877157987521
1.88898518875299
1.72573715649903
1.75803471349077
1.65776560107248
1.66301543681997
1.71321188940462
1.60844276143952
1.54367624376367
1.63587801617826
1.63098258606803
1.54248972538407
1.49335747207385
1.51753532740227
1.53296199166755
1.51614040022193
1.46525786451572
1.52060495237896
1.43279076510477
1.39493703680972
1.45064847847518
1.49356153076649
1.38452764451663
1.36290842976955
1.37659215251388
1.3513034218147
1.2724269645676
1.25972688695475
1.22692281228764
1.18789081261271
1.16447466010043
1.14662161780068
1.06046864419557
1.02409788197938
0.999234800064216
0.955802223551411
0.901320375430602
0.871845826209534
0.837022757719127
0.801474298353876
0.776796350750591
0.738977566020904
0.714663806013834
0.687478544315812
0.655003105837667
0.654089970088256
0.628848428105176
0.613214566354155
0.593747636228094
0.578341161884233
0.57583089109837
0.564052430466699
0.555065335146953
0.54949636625893
0.543889909729384
0.539317862242253
0.542723772876464
0.54189062164624
0.537238443868373
0.527844887368682
0.540585755674403
0.543557306207686
0.542349162601899
0.54519481063763
0.549671137487531
0.552111448572745
0.549622874044116
0.555932160196332
0.552232697208722
0.551385363377635
0.545982115976925
0.550062938569882
0.537596334808758
0.54248872658162
0.54016249998036
0.525194258560502
0.529282089948532
0.525683069787337
0.51033485121716
0.513391692428038
0.518949796478551
0.517833104445044
0.51873310024983
0.519139001484652
0.518641285945254
0.525832949378287
0.525936445231644
0.526435420006677
0.531494294521959
0.532130965318754
0.532212149773023
0.546390188248824
0.540304683919335
0.543324964093851
0.547640232781922
0.542476242338034
0.5521056844285
0.558261462100591
0.562107553776217
0.560496111775074
0.557033889326759
0.561132233661311
0.562165550492799
0.55964291619811
0.559898977609647
0.569494233058977
0.559597353981487
0.565990829382515
0.577092610743901
0.576781743069378
0.579298275692593
0.589255959061279
0.596848134248934
0.600715056944526
0.610763769595373
0.630084722462998
0.635187145303121
0.660738032485417
0.666624520498611
0.687612909299762
0.700675063634898
0.726797214303315
0.750756265650468
0.753415662891378
0.738766217450532
0.755148338438016
0.752684275839133
0.739468843740278
0.725446555296999
0.722514559719584
0.710370037487812
0.702116666041292
0.685229264934061
0.692927792198697
0.677517906783363
0.684048040428034
0.667450018735048
0.69197560525813
0.694360303590463
0.701727607041906
0.687777878419488
0.683377555112115
0.686538120645901
0.700110706410522
0.691055318022466
0.683682824942871
0.680790883086993
0.68742390865646
0.669533083636784
0.677512427093412
0.674761927692062
0.654511911628033
0.645972249172032
0.649791016684782
0.64695504567639
0.640084317763835
0.63236754643131
0.635179215974022
0.62639948941094
0.629371138521839
0.641741838419473
0.631190261453091
0.621818726836544
0.627919951034906
0.621096269678987
0.634817251162588
0.615321142007038
0.623423835624509
0.617317333719148
0.630492554768591
0.62076287344867
0.629212001895677
0.630619706720458
0.613222839454993
0.602342527735867
0.631062788523641
0.630954392627201
0.611889461168189
0.599437816808416
0.609438738629789
0.616416605469487
0.600612676377004
0.615275710252754
0.621790943293831
0.607351617658154
0.613741343977014
0.600496049839941
0.619976153945563
0.607195741740804
0.608547902617307
0.603254266216047
0.596364971999512
0.604918927806208
0.608542550668805
0.607527568117811
0.611856031718841
0.611582509817261
0.651054099184704
0.61941423062726
0.635637845775037
0.624301492809915
0.635992407830252
0.618512059879835
0.625547450026798
0.613291038951694
0.628892177173797
0.611000922080867
0.636328870974737
0.634939134146953
0.661476456506025
0.654604751953352
0.651242668477307
0.665039890841441
0.674125452352063
0.663694168191355
0.692207416499646
0.673293661408109
0.670658540651126
0.670370382210206
0.720106733966986
0.686940818200618
0.705615710326898
0.715076321470802
0.72773048485898
0.698902137499349
0.739849793600275
0.755093882300868
0.75638843142842
0.741279897540843
0.791106890023227
0.8172503631301
0.830403919398134
0.84821825665028
0.833253721159671
0.886325383708937
0.955428552596242
0.903106842928666
0.928990793666228
0.953757237947426
0.999163235165814
0.934132821778369
1.01299336097798
0.965807044603864
0.994159615116114
0.980507535040662
0.990955846736428
0.917672968379117
1.0033957472656
0.985017626011509
1.01007346319367
0.943728243214121
1.0269306335193
0.977939135132765
0.973544989397909
0.952757236104599
0.995477025514028
0.936757309065297
1.01373073134831
0.934941936963947
0.924455185969167
1.03771623515745
0.99878228027158
0.906904547315077
0.956004712590925
0.897331018769604
0.991291213433799
0.942846061124919
0.936219897826205
0.90272118695885
0.931998462487252
0.89647818509567
0.938208718932147
0.892631724580173
0.951347503556809
0.93275392935885
0.938116956949766
0.866718917049572
0.965375878278235
0.918298314459309
0.971773438802255
0.89625643338381
0.996812022477475
0.972366885440734
0.978175531145609
0.861325827292648
1.00435037353373
0.916404941255191
0.915159759636211
0.896969746951975
0.994892101660995
0.940138786933605
0.925065713607061
0.936352013400172
0.970122695172433
0.958162114250475
1.06160126594744
0.922106032690613
0.928510377685749
0.957316694027194
0.987456875373863
0.947727981426023
0.922316420706055
0.964409072112121
0.946816850901448
1.00804751973046
1.0880198295579
1.01556623204961
1.07036514024253
0.905165988424132
0.968968905365615
0.954037257695003
1.01340580667801
1.0300429253089
1.07194528480086
1.080300847227
1.1173160152018
1.14597178267298
1.11869545853726
1.00797828657777
1.35476170415734
1.1335572526674
1.11255959261094
1.16534081734027
1.35949912534828
1.00698157981981
1.17840914509258
1.39605634308813
1.40468434358491
1.06341207686097
1.29937494820421
1.18678643351905
1.66773455303416
1.13473668102813
1.55361063915472
1.16793382283293
1.18299829747711
0.876600181909024
5
1.1316800144802
1.13570638897664
1.13827852065602
5
0.957622754295323
1.26410336726652
1.11428166690694
1.2652882792863
1.13485768864933
1.18280591158912
1.08870894347868
1.58654378136546
0.816416315721973
1.33322375219151
0.9221771629002
5
0.811783519644919
1.38203973581491
0.819269686647173
1.14211307912188
0.955110220627303
5
0.934039169254914
5
1.20110389078118
5
5
5
1.06092215186258
1.5037709939628
0.651463553942591
1.76276084685014
2.07303879594841
1.40347471494269
0.798253214522721
5
1.15340696105456
5
0.671276567987445
1.45614224639916
0.74304913001577
5
1.23718087053599
5
0.774570352396294
1.69676966858149
0.539334351948532
5
