3596
4000.36533379555
650.420452594757
1
2
2
0.0498502768691974
0.0420760530100407
0.0588502768737921
0.0358395309749192
0.0523188669901208
0.0396759400659023
0.062428783008771
0.0383281188435843
0.0448868670081288
0.0404639273096588
0.0550733169950388
0.0389995096388372
0.0460067795967092
0.0367313067764709
0.055304983758796
0.0367207042296177
0.0506559116919362
0.0369424497804443
0.0524639953588847
0.0338637825629523
0.049003420662802
0.0368198348008695
0.0504257700431957
0.0253451390055571
0.0474322468963115
0.0366467525344582
0.0518182188265186
0.0376758259920858
0.0434817205290797
0.0378565724699924
0.0543644978432872
0.0400606134483963
0.056144317001777
0.0364118448599813
0.0530706464432202
0.0365869412816372
0.050753506136575
0.0394532653455626
0.0518592567326782
0.0321518252780409
0.0501154175678434
0.0418870288268104
0.0499426140564361
0.0306237241680992
0.049941354695881
0.0360600950584855
0.0513281178512553
0.0387484690981562
0.0478329070565532
0.0370811489786342
0.0562123341675332
0.0361962215533753
0.0537530280642309
0.0434786700217019
0.0434032729249474
0.0419978210431736
0.0619781366641184
0.0372273240546662
0.0483380286381749
0.0307416792973479
0.0520366407610839
0.0479118820110402
0.0520470045531086
0.0344480758406637
0.0390116891737372
0.0326930799865439
0.0519339336084289
0.0334092447053924
0.04947401103224
0.0330090464649364
0.0431594427348362
0.0333015432926152
0.0584646324807757
0.0455212117660957
0.0538687870584044
0.0370293288481207
0.0484757768134066
0.0380185059085112
0.0352608151124873
0.0352180529133031
0.0509960916344265
0.043240095801918
0.0471244999047058
0.028121579020896
0.0433663602696416
0.041549506572268
0.0436020607637787
0.0256492951728699
0.0638142262477564
0.0369826802866351
0.0400523543298153
0.0290670003886844
0.0459723191853294
0.0413526872036212
0.0450891129945047
0.03184048404632
0.046274986169926
0.0313158111574427
0.0475569402195466
0.0460113290122741
0.0502731474435783
0.021577110188726
0.070393042397632
0.0268857483324207
0.080031482636205
0.0438129655582067
0.017893286848405
0.0560661577931156
0.0520469200479291
0.0437616445574439
0.0469242132915236
0.0305526164548918
0.0431672518344824
0.0364294478908799
0.0234813089964264
0.029116931991963
0.0697632481027575
0.0355105307967385
0.041102853150063
0.0354013110966041
0.0179762394082641
0.0278820482980827
0.0796768412085051
0.0248947393582783
0.0528955410330824
0.0365081543331592
0.0284309267150609
0.0372679532854182
0.0656094295356644
0.0333373119658603
0.0432646737655029
0.0287805666567102
0.0382992690527147
0.0123462295395358
0.0616990097948164
0.0391367970501481
0.0448368820519352
0.0135678501568353
0.0358249265864225
0.0636811505703782
0.0607390371521812
0.0364901987904912
0.0323672578894071
0.0103501183274152
0.0726121413019223
0.041645059675558
0.0373851939832311
0.0400411886947044
0.055667593918703
0.0355111367245969
0.0437954815077096
0.0212742438343108
0.0540598054266059
0.0372100201403096
0.00791458943292985
0.0225933191435159
0.0916409819814914
0.026643310901504
0.0818582460118348
0.0362848804966665
0.0474875260874308
0.0392857562293284
0.043934384299727
0.0270655309893223
0.0387239559807769
0.0277916422325881
0.0296297817718481
0.0512047195227478
0.0418343901960663
0.0256617808268684
0.0590455268227458
0.0317508918242277
0.0195646349331492
0.0603431760997733
0.0628520582411433
0.0100218531452591
0.0598847754227672
0.0407839128643649
0.0350032827593243
0.0256274988900279
0.0706809921040405
0.0318859137270037
0.0431258084896597
0.0330842435553497
0.0376382563707413
0.0456097254754353
0.0507170908721828
0.0297305814084358
0.043504170779491
0.0125885065041829
0.0338484853379853
0.0527013015538703
0.0676731533917101
0.0337846092368495
0.0478000563668227
0.0116605758397742
0.0441514513750901
0.0672620659120023
0.0502709732807426
0.032003676813755
0.0385234375625767
0.031985437175986
0.0395348875158582
0.0302926317419545
0.0368382133108306
0.00662223993964298
0.0553954767272813
0.0474711483868462
0.0443076804617518
0.0295192760311728
0.0320146366849679
0.0191751734351841
0.0603263600146398
0.0603775056964892
0.0405994752684346
0.041072606690406
0.0387611266804282
0.0314100836982014
0.0620761206831544
0.0405114788081616
0.0435290434766259
0.0331394811697393
0.041862860885407
0.0387492366005363
0.0474784084055949
0.0332741070104235
0.0423727665650775
0.0365858013888486
0.037580098521763
0.0335567126412888
0.051338689552933
0.0384254260909831
0.0463679486130565
0.0377748289329414
0.032245058741168
0.0339832826958885
0.0694217564041823
0.0403602703031946
0.0484940469524139
0.0356204413940917
0.0420618365621535
0.0397997603534387
0.0499426125406797
0.0387278553094267
0.033920111905437
0.0142697280557425
0.0578720708836277
0.0466428343457085
0.0468215840896869
0.0267866001440293
0.0413838000600863
0.0488698330677419
0.0423428918586032
0.0349573889695536
0.0403665842868154
0.0366898515270547
0.0324136732842134
0.048303155596544
0.0469375233879179
0.031691349191714
0.0509933273912357
0.0418172272609528
0.0404941349795304
0.0304303034394755
0.00592616890185519
0.0679331340267739
0.0535985513054426
0.012370249081425
0.0970554994886348
0.0502010051768041
0.0454107678396914
0.0378301005304366
0.00998498897618071
0.0981827792293764
0.0924430123730155
0.0438209188048531
0.0474847017062167
0.050799764233077
0.048933147458163
0.0351520624051335
0.0403893868583551
0.030662828098331
0.0403996337821449
0.0423259373098325
0.0850794057532934
0.025170422628393
0.0469090616614054
0.0706648110699791
0.0528010342673221
0.0463220562905593
0.0368245120958887
0.0348589743681927
0.0511106860845485
0.0571057744782335
0.0588037466002882
0.0508741231872615
0.0402819729921694
0.0637187986556742
0.0539496374215031
0.0369111892946833
0.0506253932499426
0.0535227180856917
0.0520336049675709
0.0425359257556785
0.0476169687745136
0.0476821638448532
0.044236793962817
0.024259394796999
0.08635035755189
0.0619840089122821
0.047510338280985
0.0678170361752261
0.0630690235221412
0.0421205642779227
0.0522539085283667
0.0494758198081683
0.0506058097468636
0.0364573510072939
0.0351722796842724
0.0531190183624365
0.0679143111475072
0.0422384459686999
0.0563967603864323
0.0478563099364361
0.0558384234603764
0.0484072977965162
0.0578829005827671
0.0464896744031449
0.052665096491702
0.0385906755469892
0.065013675477598
0.0737113310383404
0.0423712559286425
0.0574201803536957
0.0961169811742384
0.0570877284639483
0.0673147091608085
0.0624156467962889
0.0691426455651417
0.0598725790444618
0.0705196604907159
0.0617879720519772
0.0618331975469832
0.0615155367625561
0.0801124742785505
0.0559272786309539
0.05481667116384
0.0818144953832811
0.114835937852892
0.0880348265696504
0.0729369771096356
0.0558293549309321
0.0797990262638171
0.0950662843607139
0.0848279203948828
0.0922968608661134
0.0849434541660133
0.0783081228893074
0.0893024544256573
0.0841278832430411
0.0870762382379777
0.0894014378191054
0.0918672606388242
0.0874171666585207
0.0995043135426778
0.088945868902022
0.0915131760599019
0.0861342573441395
0.125397704805278
0.112890977977044
0.11553591327905
0.109134568569145
0.100786589764342
0.100294758285981
0.137095024683139
0.118230339606107
0.135008138835964
0.122141258562663
0.149220085286818
0.120086826715676
0.130331085702128
0.127038017261496
0.132159302582848
0.127592669008269
0.136634779662616
0.129940498782415
0.135411010596729
0.13650056449164
0.151341431114735
0.138144049167383
0.146449340436337
0.140194671337451
0.167048822462143
0.157556314605563
0.159866685346086
0.152045097733549
0.157050319522906
0.188278725950712
0.190865625413014
0.17833988602807
0.176880736104987
0.176305418187414
0.179583774955738
0.183783270013143
0.182402032336473
0.178985099627732
0.180636075348368
0.18417860232927
0.210155725562689
0.203296566022075
0.215012216420965
0.192706524614418
0.217188819787188
0.211567867630479
0.209839534564275
0.219107902150555
0.22276278337368
0.2050625662407
0.232518452466807
0.24640971551037
0.230460913545527
0.25123189532572
0.248046985980281
0.236793794685596
0.252862647595422
0.24264886283089
0.254379962251506
0.253360933279696
0.268991459921686
0.259057844910084
0.260704586490985
0.259570823078936
0.281526592206859
0.272145208049466
0.280008506920898
0.27416843657433
0.284183640002332
0.278191273116561
0.294108205023618
0.274596245154854
0.289765713138984
0.311285462874578
0.306810963851942
0.301840585900999
0.311443889819131
0.306901725776935
0.313579479172719
0.314950406168794
0.340683598760697
0.321569257825451
0.343112273367657
0.343212817827363
0.337309584189197
0.340824253910461
0.360223340311443
0.351784765944067
0.368985867405276
0.361965775396032
0.360364598220005
0.357411987302092
0.390725104475197
0.374825148673335
0.395734094993585
0.405512882382417
0.408183430051796
0.401599268203566
0.409248817669482
0.399172498427445
0.425401027332813
0.404774437903166
0.423734820095578
0.416899140128962
0.433859776152719
0.429939925521886
0.436879424212545
0.433188422366046
0.452785388974686
0.44838255802754
0.457063182141103
0.441881159587596
0.456087204741099
0.463164542059758
0.480919237698623
0.466772963729287
0.484374969800032
0.490494039806384
0.494843126442494
0.48373525617128
0.508142717287235
0.490226119661072
0.514670236494998
0.51736900471502
0.528476525310056
0.520521239263626
0.521239497209601
0.501501203384189
0.541890269112212
0.531302735384378
0.561645899044824
0.542230009868029
0.562966485562215
0.559660733191631
0.567917429165966
0.556180629932317
0.573903454554744
0.593111270983066
0.593077132751336
0.574839627751056
0.579770985264052
0.575653482534739
0.596197955735384
0.617897344646054
0.6527109717518
0.610408874923222
0.627044739932167
0.624859256102001
0.645525645299607
0.606825693205029
0.629848426180426
0.62180385093873
0.641717890406324
0.642220287017801
0.661327641278985
0.668550729024238
0.700029334081702
0.674199929122447
0.690920922635724
0.710516858243061
0.693093192700378
0.671493613155238
0.703234159808778
0.659266230665074
0.663779633532935
0.71034115922017
0.747726970933766
0.715428374506156
0.752691666187886
0.713793046204467
0.714106902520651
0.749755780814528
0.759617498864447
0.731878395275477
0.749671296479725
0.75315570915662
0.779300491757955
0.754696835396666
0.797095182652034
0.807253301222438
0.77673443460268
0.785110376503986
0.799708110110133
0.814058632338401
0.843892485943912
0.784290821904185
0.821352325968411
0.84232884400904
0.837808310953422
0.802340960724314
0.815392726407316
0.837638687777619
0.86529190069979
0.827687648305418
0.841397733366627
0.847667284067586
0.861485451873381
0.868729893157831
0.870100897684829
0.867504958982738
0.890838436489432
0.883257422704449
0.871259813314799
0.844208668105732
0.948398412137918
0.902757407984694
0.885161725294185
0.926909139971491
0.917198972136373
0.901155828436809
0.940313633330346
0.963474144644107
0.954181920244198
0.982199005964868
1.00393357403618
0.940113948639477
0.995188090569522
1.01344981143583
1.01517102149783
0.952371847362444
0.994804986347839
0.971392599664269
0.968076813671283
1.0097790313986
1.03086671395974
0.978519345083906
1.00910033978676
0.999306863401154
0.995842767283038
1.03061189062435
1.07735977209289
1.04267250958251
1.02026124446302
1.00916225210655
1.06737982853577
0.985369435235622
0.946347772471513
1.04379766425978
1.09177601116985
1.08375775086982
1.04298114132025
1.07449061241438
1.11047242175874
1.13045670876069
1.17362832726051
1.05920007419883
1.13781303302386
1.14157231880604
1.09207714468742
1.11224425015428
1.15958492609497
1.15876271879774
1.17766940096748
1.1425130561162
1.13513069303874
1.11850355493453
1.19300880578152
1.15988279023303
1.11676068725541
1.18320291616662
1.22596792548281
1.20769266578648
1.14241034619789
1.17254618003989
1.20860862392199
1.18335080754459
1.17940821783229
1.2112360550341
1.14950303204814
1.14754183474903
1.14831137349445
1.13713617657757
1.22310731955934
1.180204156951
1.21955377278759
1.18936635331462
1.2068976755334
1.20908321377998
1.26870256516627
1.28090706403279
1.2078649547488
1.29162230398172
1.1961031756062
1.11709076358992
1.22287565072976
1.33193008352544
1.29180165085644
1.20564860778586
1.22028107076239
1.24899594178201
1.27150156484021
1.26101290882808
1.24647296102849
1.22779583420532
1.31547575435124
1.42208643748671
1.40920291802142
1.27746400466234
1.2432517321602
1.25635751691626
1.28892817736705
1.30264801403014
1.29014095338879
1.29559347208182
1.2970319292207
1.30223201777895
1.290307169007
1.21454266575528
1.22191621878507
1.29846758420854
1.31637887653289
1.28229763545248
1.24645344118028
1.26897107911834
1.34511812436567
1.4128286678113
1.3509156728307
1.30374688195721
1.29224246955456
1.34054923094886
1.45819025179644
1.35639855940706
1.29000945969442
1.37442637405125
1.29759748820312
1.28030464676456
1.36363997018853
1.26813565781451
1.2340372811413
1.30720165327438
1.33818628954071
1.33650579780445
1.31228196132531
1.33707510843315
1.29081412431384
1.27715689316243
1.312347154937
1.32528720522634
1.36517550286353
1.4312578561105
1.40247230055761
1.40344496202165
1.4734295551455
1.35693695413487
1.32374396339703
1.4492902464432
1.4019791993106
1.36545887478046
1.35821940714289
1.36997939755746
1.30647891619668
1.34206500507601
1.35624451998274
1.37873138697683
1.32544940847667
1.31174777179336
1.40942588362836
1.36471563456379
1.31411541793974
1.45015208858913
1.3960755579409
1.34588985326918
1.41691811829725
1.37859924649872
1.44269897212849
1.48256051080387
1.44559153661594
1.39204343582856
1.4337180768567
1.40267841707742
1.34406140939138
1.31692646027411
1.33204981027657
1.40704575533104
1.30584076705905
1.3646309555367
1.42872927166394
1.33021188333309
1.31002743406558
1.3752560188812
1.38146264620357
1.42589423042063
1.43187954610641
1.37272099126821
1.37680412534458
1.34465601284546
1.37767788892815
1.42360420300881
1.35727588167808
1.39796273247307
1.3565310948971
1.36167360503972
1.35316655377681
1.51730688799208
1.40078830868597
1.38563500721495
1.46559250735285
1.42953211467019
1.33940478418453
1.38752201581233
1.34884059635374
1.36722679161651
1.38129796699612
1.34160293441322
1.35460913304346
1.36742388789604
1.30937356691456
1.38907917393587
1.43464861109455
1.37602156157969
1.33386013568718
1.383972356012
1.3353828677587
1.35493970092546
1.44466232912149
1.44040682909887
1.37274637981645
1.35600051469129
1.29077703736383
1.3609871913078
1.35831314660067
1.35646532545465
1.39104586549834
1.41747894435058
1.41284031542856
1.37350125592801
1.40642478299824
1.36846693479842
1.32157055366002
1.41730791089309
1.32877023798906
1.33503815392028
1.38895293607586
1.36353195811927
1.27983300904254
1.33557933631887
1.25848788085493
1.27673800624458
1.32973959560367
1.33826088862158
1.33123255771035
1.31034968299942
1.29832478954573
1.38410969159061
1.3532805105468
1.33606805017817
1.31210352900838
1.36744092069413
1.27589391695778
1.32843493034836
1.30789045111255
1.29935376413455
1.3514916662848
1.32057246822657
1.28512796025692
1.31227862965492
1.22869415233629
1.24795878271504
1.24265437358394
1.29602802699748
1.29958631738814
1.26324110109869
1.26299037926578
1.27606122845819
1.2295596487625
1.25337806426895
1.28118590490354
1.27373115897324
1.22273824639875
1.24923446532416
1.225775442445
1.20836322789353
1.23645642159262
1.25394610167559
1.17396227706953
1.19768867520846
1.2394287475911
1.22818319560119
1.22143297113935
1.20873191215914
1.19143078479038
1.17588765385885
1.15515589938364
1.19897006350775
1.16560318608886
1.17299120396773
1.153050448068
1.19272244067839
1.13519444962447
1.17249608616662
1.12131677633776
1.17093491090647
1.19220613086136
1.16965231777567
1.15858421978199
1.16944222330092
1.1584118361217
1.15292031259388
1.08112907794884
1.11047262002642
1.13641487423906
1.13561368986667
1.11632079542289
1.10549671775983
1.08367326521487
1.1454909074548
1.11566641732401
1.1048160266959
1.04214196986856
1.09789686609426
1.0770816394602
1.04695413365344
1.05457943494042
1.07241785169755
1.03352419544499
1.02470576879566
1.04785656733522
1.04749431917686
1.0275211337903
1.06447483204076
1.05229088021913
1.03129402756332
1.01078854561129
1.02119861375136
0.98228518466368
1.02056464797661
0.99493184235152
1.01692814814915
0.989646374092347
0.992882398067719
0.988604450084903
0.996900313859296
0.976454233477596
0.967135216132567
0.964742722019078
0.985480619074855
0.932300499462454
0.959679120530844
0.971821352130318
0.932488575649199
0.894191476244643
0.951311823018193
0.934707092839031
0.939252925761369
0.936780202736129
0.941762838034265
0.952670390946354
0.927902934419109
0.904913145300988
0.917010653806387
0.891949936803266
0.893089799841492
0.884851725301253
0.922847187667637
0.869188468161795
0.866066989535206
0.879708193807061
0.880246539803471
0.872239692600173
0.874150564669138
0.867516752595527
0.8342329726899
0.817755398650213
0.849726550805938
0.843846301816951
0.838177505301925
0.815708369714215
0.841923289087064
0.813731126885737
0.812467210387771
0.811256271241204
0.836550906454795
0.821754264912938
0.803094034733605
0.795338491033708
0.79356050892384
0.790905759865742
0.810998365782666
0.7985596344205
0.774934118381492
0.773593803491421
0.774761428785831
0.761542711969569
0.768880034904439
0.74928156729442
0.754978339780708
0.752203772097076
0.751884589653686
0.722099203989268
0.740524614862258
0.738203563553763
0.740530125196677
0.729838529945375
0.741296959211188
0.711078282076678
0.717874433777508
0.702823328225939
0.719828545431896
0.721386078563895
0.717387523723442
0.69562410155993
0.709199842420571
0.704171159858784
0.695537151715259
0.685067332713802
0.696563855037684
0.691009397980748
0.68566761757167
0.675806319637633
0.693001689832187
0.672755324101495
0.668968043397804
0.667304337431706
0.665368024761448
0.652592124239164
0.66651068408366
0.658922637973657
0.650891009917855
0.651764936111333
0.663540756824076
0.642500595019055
0.639122031166042
0.62900163872603
0.642151204251258
0.626419020197309
0.62307653150717
0.615460663190922
0.619271834658778
0.603622311371433
0.624764722921315
0.622971705717246
0.62364003900044
0.595757963507774
0.602691403810738
0.592590772727755
0.599322181842382
0.597615294522048
0.599618592140371
0.592110633122287
0.584864713284948
0.574640775361616
0.576793589149254
0.560968480681334
0.569154985898469
0.565515519861126
0.576136910448848
0.563269425172929
0.56180500813799
0.550061782883409
0.556379527323696
0.547233794112284
0.544866653924783
0.542573147173913
0.555048608089346
0.538867393952632
0.538319729838669
0.531240899048023
0.529307087921073
0.519686497105099
0.51655200875513
0.523138153995919
0.525510379018059
0.512849360776765
0.515659781852832
0.512996276301407
0.518554053655033
0.505270178375787
0.509889390366066
0.504446845856387
0.504484030979371
0.495689883541154
0.488132497928954
0.480522859536599
0.485787575860483
0.482268526094356
0.479589365350489
0.480719127986029
0.477745513802483
0.471545082221988
0.472654989174331
0.470546964377022
0.474097613030105
0.464998895546904
0.463916177484585
0.460278747600299
0.457349265775939
0.445520952297506
0.450669722531398
0.447450017529878
0.440807265779551
0.442331076463296
0.444847080826083
0.432626208141178
0.445302195874897
0.439587171928973
0.440362533953451
0.437646053735049
0.437455102007447
0.422774547781261
0.431604814756811
0.434222123839898
0.433171996109772
0.425616645744076
0.429112693680629
0.423576813237565
0.425917994349426
0.425455859314351
0.433335034524639
0.42092923882217
0.425553739840583
0.420083566393559
0.418093552560705
0.42015611445498
0.42276579761317
0.419493340157156
0.42491457817822
0.416512519904524
0.422228732066607
0.419218576280043
0.420974161734048
0.424716213409055
0.424477721285652
0.420087105330808
0.427472483902468
0.420367524729532
0.435368609772549
0.425817893171379
0.431671938385687
0.438386557657726
0.446025840541922
0.436272590356625
0.43545951722159
0.431351459034898
0.446473830746358
0.444622712253774
0.448453128877529
0.441323170191849
0.460780294833997
0.454132416458437
0.457568366212876
0.463981875610947
0.466952922908568
0.461399953354676
0.473307515589283
0.467858750998871
0.478444996053417
0.467905628844591
0.475104727846853
0.467378787859916
0.476608517701181
0.47393325990661
0.485670003228214
0.480892611233439
0.491118557685091
0.487126272985225
0.481465455463888
0.482251468568633
0.497438224561551
0.494145383967352
0.49912696762388
0.501507592331171
0.505809908908764
0.507451029116629
0.515986157071746
0.50726428946305
0.521696023152388
0.507645428676205
0.527679200826629
0.524438474797062
0.527312589748692
0.518943414670372
0.546108488885427
0.536637960931218
0.541216161014559
0.54045936682603
0.547781201245316
0.540127212885415
0.559744476136379
0.550437922690829
0.552334288165459
0.54645942896003
0.562685513566936
0.551731066455671
0.564783305887156
0.550016028443232
0.56696683181422
0.553132295693228
0.548538663773315
0.554745694442946
0.55991673067648
0.548171593532231
0.56130945021203
0.548409625870053
0.552232853616473
0.547800760259059
0.550097707416781
0.5404212116908
0.541537105909602
0.545150625791161
0.547274481111623
0.542763860181729
0.54377125876908
0.53900617565714
0.556706744154477
0.535625700716736
0.555660624934476
0.539390073897624
0.543265071629426
0.543364296494878
0.543919516253568
0.539039245843984
0.544442986904906
0.532902663357399
0.540458557942111
0.537927991078466
0.539400773829552
0.531799690035898
0.550394037459588
0.545563485086458
0.547934079653132
0.534386337991712
0.54251845009505
0.541682677871093
0.547868879776156
0.532081267723763
0.545994343479187
0.530793009833003
0.544423673509247
0.530768699240207
0.538394426788749
0.537780224718257
0.539387632689521
0.531423757320204
0.545742184088391
0.528470705363028
0.533543581284373
0.521640160374332
0.533331794642613
0.52901704329075
0.533773242517976
0.525392167634905
0.527750560496794
0.518708865692096
0.524816831598825
0.521280946924925
0.518269104669815
0.510086400827893
0.506543812352975
0.494988636181021
0.503351045323643
0.485512474216629
0.490249622469359
0.489525306323624
0.481892480972792
0.477012657206085
0.479897234608574
0.469926311886653
0.468679934409279
0.464313622338448
0.473708757535031
0.450198636084581
0.465039736397755
0.455318313016183
0.449658609271349
0.440669919263825
0.442061813979982
0.436732667417326
0.436853576768142
0.434216881442406
0.423854357148728
0.417679195171112
0.4298502488714
0.415355830533446
0.418732440087511
0.410682393811438
0.405960658017863
0.400463350241273
0.402449698825318
0.395741279013843
0.406112365231299
0.395436267419085
0.390276156426852
0.38761251356315
0.39198380810854
0.382189502212112
0.385376494708987
0.386877829597907
0.391175543267119
0.378182799720806
0.37834108325181
0.377636714545731
0.370227040630817
0.362873802097703
0.374774149993493
0.364799264465889
0.366072256074616
0.358479930767412
0.360182898770842
0.356530628613551
0.355206399005786
0.349727895097329
0.349576241662487
0.34900345630729
0.35192844693814
0.341896187711469
0.348132039484433
0.341427730448654
0.345514617361455
0.340756826894947
0.33970791075746
0.335898437021577
0.34214522516657
0.336560218426597
0.3364022313733
0.331210766305016
0.335835925124808
0.329716824877255
0.331876346157202
0.326546642762604
0.326080593402468
0.319903853025363
0.323743427106773
0.319492972723141
0.324376622840581
0.318329341247036
0.321257589503716
0.31827664332111
0.317433380739899
0.307238774988375
0.319656615280266
0.307524731482621
0.311609922013713
0.304882505580653
0.307069199524472
0.306157826146936
0.309378595855974
0.302426034917018
0.30318509360887
0.298346084554352
0.30371255515754
0.293552641613057
0.305357713228204
0.300482240811979
0.300555130510792
0.298914966273231
0.296758627105641
0.288816458332946
0.29661326015643
0.292563867898688
0.298252022560972
0.292646521267108
0.29336726720073
0.289196965234611
0.294145440591819
0.287075247823612
0.2926861656162
0.283158732319911
0.282823763159954
0.281128962318997
0.290763204489889
0.281502216767167
0.283051107833951
0.282109342413373
0.284265762346124
0.277799268727283
0.280622973779049
0.280012409718506
0.280799673076735
0.27327774104365
0.277447598494288
0.275721113280011
0.279908749384552
0.27619128211082
0.281106776840427
0.27305874881429
0.271887703057029
0.268687484264389
0.271213348530631
0.264877606846418
0.272654875270358
0.266234561483901
0.270101315286958
0.266433712438099
0.26982496476002
0.269581659164769
0.266896178428173
0.260655560186832
0.271533377620486
0.264554295535879
0.265972850346774
0.262522482573681
0.260199309667561
0.258944194554423
0.263540799042406
0.263719847864054
0.26417214467565
0.255589585778011
0.263311569424866
0.260709525850224
0.262073573645779
0.256538058636317
0.259522079258701
0.255603115621614
0.261877747980519
0.255616415445884
0.26002761320495
0.256233941529178
0.260399726222143
0.250306714857806
0.256891674412662
0.259108236307107
0.252948040265607
0.248654878201612
0.256922096024565
0.249455894759379
0.256329638530832
0.249565371646129
0.254908485440952
0.250060448537265
0.252093478850222
0.24263869896477
0.248147814198446
0.246864442182938
0.248029607751567
0.242836467848194
0.246991932413785
0.241328208528916
0.242047295154357
0.238982982365562
0.241552151342317
0.238206148369477
0.239085878639999
0.237152605003611
0.242646784367509
0.233405541578524
0.235584747019189
0.236506014796924
0.236383435092055
0.235079677234516
0.237947606390342
0.232271805749646
0.227810925783785
0.228583375071478
0.232595340664992
0.22554799458809
0.229799291300947
0.226527645163925
0.229738291740155
0.222504981929107
0.229267529443758
0.223168462443193
0.227011207179196
0.222909970146273
0.225343598075286
0.221765831785248
0.226525408290294
0.219758689416029
0.220449212935357
0.217600618952632
0.219954305411396
0.219688942747791
0.223001392533244
0.213519246077666
0.2173119112245
0.214310246072475
0.213931610128879
0.214383174963748
0.216043272480898
0.209589383434119
0.21162777734503
0.206864499842562
0.211290174592191
0.202885790505901
0.211086789108155
0.20175218996516
0.204764563060244
0.201458649750606
0.207587604274857
0.200289582285168
0.201380931127293
0.198626173992417
0.200000324448337
0.198012359732344
0.197664564427026
0.193340054270324
0.199726365558703
0.194540853120233
0.197057395003095
0.188625990089109
0.188375087672319
0.189727331580474
0.193918795322358
0.187447223315251
0.192742623822304
0.187308441357705
0.190724267417858
0.186087015428094
0.185931799910275
0.180141188941811
0.186125219863516
0.181115251615738
0.183032923000485
0.178638765450656
0.181489012919421
0.178896163760146
0.176979231953149
0.176901437203295
0.183528766907017
0.175397674836375
0.179884206261339
0.173848167047518
0.178700454848635
0.175341417793985
0.172056160855558
0.169392916159156
0.173729525812496
0.169389888188771
0.169570168608506
0.166896601932668
0.170784801242877
0.168236095873608
0.17010446530426
0.164986268926903
0.167205186612224
0.165282699555678
0.16848569145872
0.159694965544223
0.164005254201883
0.162005841402237
0.166277282437497
0.160745774733335
0.165167450491935
0.1613966358782
0.162762304279652
0.159210765010531
0.162164969014878
0.158302612995426
0.158288851330691
0.15835931758849
0.158172514256928
0.154685993699158
0.157779874917302
0.157106077950683
0.157151578441975
0.151608901218456
0.158694517708188
0.154092923707204
0.152810122430285
0.150294997835818
0.153927836601626
0.146491870315893
0.150596655429127
0.14804779656039
0.152330873207921
0.148482002409581
0.147623263306954
0.146795318866483
0.147805268266208
0.146741955995439
0.153864311500569
0.147649633870271
0.150444421799927
0.14540219626755
0.149985836769101
0.144721537756754
0.149341511798424
0.141475795113305
0.148751388418139
0.14005665908858
0.147121546950743
0.14419284680314
0.146736295536927
0.14504459550971
0.148471389496175
0.143369673702239
0.146684836533472
0.140464709324903
0.145338177786133
0.14168997337936
0.141592843997348
0.141041038614029
0.144810209720979
0.13862762008116
0.143100696624221
0.137465669651631
0.141917986143751
0.136951023342057
0.138949373584973
0.136008600255767
0.14431476892042
0.137228242609557
0.139957384456809
0.137415062306152
0.136842119332144
0.134393487813011
0.137049338020165
0.132987011068799
0.136480565178883
0.134861774123278
0.135777524560234
0.134709264987188
0.139870618294669
0.134160940162886
0.136566494059469
0.131230992468387
0.136689347959835
0.129541224137821
0.131436940389836
0.133498850379904
0.133387264961472
0.130890230815512
0.133099092719358
0.130029698061647
0.131237776331993
0.128125899702226
0.130149809469525
0.127571690473531
0.12866057570078
0.128203510248296
0.129803421163385
0.126528682843676
0.13221084860221
0.123927081049268
0.128729750583166
0.125722337729741
0.127610219929978
0.126343520902134
0.127913362720335
0.123892739383121
0.128148092711851
0.122782027705336
0.126337070596033
0.123197458276762
0.126838848282371
0.118177258826128
0.121211343339869
0.121891302196589
0.125107965465513
0.123376035161505
0.124866191216111
0.121438005441255
0.121914352610285
0.118211103914748
0.123615816695733
0.118236660123238
0.12404867600545
0.119654976651909
0.119263007264225
0.118080308817084
0.120202429325158
0.117762291929015
0.121469929636829
0.116655294038179
0.121331556253243
0.115731920276202
0.122600976217596
0.114226255123976
0.119211144692997
0.113917843780582
0.116672651040141
0.11297288740194
0.117750828253776
0.111525884503614
0.114188266589345
0.110252200402424
0.116212166101755
0.109523502463515
0.114692657533414
0.111170006722596
0.11408651978768
0.107495270401913
0.114066223377218
0.106011774204452
0.113355211098631
0.105431342084037
0.108326373612491
0.10599222296932
0.107863813556731
0.105932719498406
0.105077730366345
0.102921764316258
0.105500382077393
0.103010269663909
0.105312329876328
0.0982238696730821
0.104346445150395
0.103085097806246
0.10605587787756
0.10203012768857
0.103942516351328
0.0976784075723801
0.102946995629611
0.0997731474529397
0.0991567428052112
0.0962248231118216
0.101453438910927
0.0942264468273484
0.103115736975652
0.0989504902889461
0.0985569995404252
0.0978694024996538
0.101510883747875
0.0972192799933843
0.0994644461925826
0.0941425596777122
0.0993869266787188
0.0931688778922415
0.0969972819929901
0.0923910132835046
0.0962526482988976
0.0939642992830663
0.0944186320412973
0.0922003762835665
0.0961962519686939
0.0913070531548863
0.0944139585029036
0.0905639856176586
0.0925905416099457
0.0901446341940901
0.0980562457208835
0.09086465747044
0.0920476258611451
0.0910952574403567
0.0922456201624264
0.0904179523272274
0.0907021237801501
0.0864408040109638
0.091377838823424
0.085537392960031
0.0915024014187622
0.0851222535097124
0.0896305276903599
0.0851434715723179
0.0897656311627511
0.0846247891669825
0.0878251160586725
0.08377867764518
0.0898827697214079
0.0817143806950708
0.087621126816164
0.0841164252791474
0.0862435727274919
0.0838551784576086
0.0845017483933442
0.0822220933243848
0.0876864858693623
0.0814012317196576
0.0847161432694814
0.0824083642634503
0.0876949059353635
0.0784298308183421
0.0842772225193875
0.0800354528975155
0.0850040617594655
0.0796929175087283
0.0816701387623403
0.076788995535369
0.0840444217917433
0.078527067852022
0.0824841340315853
0.0752121380216031
0.0817481849621338
0.0782321918211138
0.0830017930057755
0.0780397499585257
0.081274150629084
0.0772333806950144
0.083628529423122
0.0765539383883832
0.0809056244757189
0.0758484084447179
0.0829053786431765
0.0770805741375968
0.0827186238580601
0.0739132061854607
0.0795679507103634
0.0730569406256068
0.0783526351372722
0.0710918076212583
0.0784133992282357
0.0759999223703713
0.0836523785590419
0.0745959801035341
0.0834763771141711
0.0630488634303753
0.0724081672508892
0.069215674612671
0.0828075424674734
0.0668701650908212
0.0762079159845878
0.0654228887114728
0.0759512601657226
0.0675857140329409
0.0832833993850038
0.0658048555432871
0.081788912472816
0.0624206344868444
0.0836252228513242
0.0684876872949204
0.0816523629920637
0.0704433887367491
0.0804851682239634
0.0752959082821203
0.0799007256123457
0.0625430133104088
0.0745937542321504
0.0624747523650876
0.0801308029468941
0.0565637072381258
0.0803489527357774
0.0591036403276204
0.0829029072820041
0.0580560980719141
0.0809477879778768
0.0525715117326173
0.0834741989819534
0.0515482897792807
0.0930814010081423
0.056886590305178
0.0988347278629699
0.0529457449182433
0.0918269232948176
0.0410760385535575
0.0939525220610022
0.0484948287889868
0.110975390738534
0.0498396230854716
0.0998135735199759
0.0351936676872884
0.108586156333612
0.0477937169922097
0.101505624818007
0.0393248375591651
0.0985518916172616
0.0561861255477392
0.0902562717026306
0.0570374175301192
0.0806788075998249
0.0716908390262291
0.0650328966013569
0.0790796364970048
0.0590989683512328
0.0865000319397148
0.0590184889170545
0.0907454943718188
0.0584238074678168
0.0835238440576303
0.0642928522873089
0.0778657653373357
0.0690744294358523
0.0686793307134356
0.0758119281879744
0.0690362720070118
0.0731646552975038
0.0662506218526076
0.072477227508629
0.0718246836983615
0.0716420213830535
0.0737782725133233
0.0676985458191292
0.071767685009609
0.0683174375322479
0.069202953949042
0.0720356199208051
0.0708259107184837
0.0706926294126427
0.0698075978559008
0.0717601753271234
0.0702567600142104
0.0695545980176738
0.0711767014597774
0.0720737536580063
0.070565728645903
0.0694853303997218
0.0711140152795846
0.0731319933170915
0.073185300731063
0.071336109926577
0.0716389492729426
0.0718733681937107
0.0723694127965765
0.0732587093813846
0.0726950899624889
0.0726006321864549
0.0702732776803718
0.0709506397624711
0.0724133434900577
0.0710958000769091
0.0703697838554097
0.0738506695305785
0.0717053361241912
0.0720072380009698
0.0727938478859201
0.0749842738591381
0.0758713994055606
0.0741620647387959
0.072317877526806
0.073653204659271
0.072596236534344
0.0716653349719857
0.0733626306694469
0.0738170311650864
0.0704887600014078
0.0725110407606708
0.0724787006281998
0.0729094154175733
0.0725081827800299
0.0710781277800077
0.0723592008232904
0.0752372549694815
0.074557973340324
0.0721583750298773
0.0726693945974303
0.0741869855757745
0.0723333082925326
0.0715075352404067
0.0712618958422296
0.0729448959790712
0.0717474822228634
0.0739116970968316
0.0715808452726725
0.0742470349465053
0.0713162906522713
0.0713123120131547
0.0694989375485549
0.0715419383683373
0.0732823584553104
0.0741424280729958
0.0732333332966049
0.0775208674020586
0.0739120007045894
0.0738728475988891
0.0737469768494207
0.0721251058624595
0.0762476815407514
0.0760058720358563
0.0736018777790384
0.0754112453138044
0.0738218690693342
0.0759162455880036
0.073757565082242
0.0761498532149544
0.0752273103910182
0.0756616381264747
0.0748740492721234
0.0763459093287222
0.0774465757325129
0.0736092148579059
0.074041769698235
0.0762084300019196
0.0762909769312922
0.0777021419876961
0.0745526023302764
0.0793117128499045
0.0759706685532145
0.0765213262109581
0.0755847412138669
0.0772045852314698
0.0749851564053157
0.0782974379534062
0.077272416866904
0.0788450151030055
0.0779795199164564
0.077277561960452
0.0768614678490968
0.076636953900252
0.0775486098391383
0.0783697800808886
0.0771314528034955
0.076914098039832
0.0773010736394161
0.0806635626132272
0.0771818954051098
0.0767702444633468
0.0779654865648108
0.0808813603386137
0.0782599134930543
0.0806495736255165
0.0771309823466358
0.0807928679650571
0.0782092301427632
0.0796517214827527
0.0777969035007437
0.08003955974333
0.080613306546676
0.0815889185018781
0.0782051596286162
0.0803182966431579
0.0806481888051936
0.083027160993026
0.0785427644690639
0.0800955751770508
0.0795470606341925
0.0819839500918016
0.0803349501650978
0.0832054443432375
0.0771530971579174
0.0820988457948658
0.0804605854216002
0.0813504556586854
0.0821670818125455
0.083232165273852
0.0802716221822162
0.0817102219161973
0.0817243287272976
0.0842115886215063
0.0812303821456064
0.0829463376145188
0.0815462405063693
0.082263640396233
0.0818808217366811
0.0818340353196715
0.0818882370419865
0.0843031159577572
0.0830388093916427
0.0826358513016855
0.0837817513443865
0.0831550550084513
0.0804395543734838
0.0845998352517353
0.0804973311898194
0.0816887005215747
0.0831996687753407
0.0843206283422991
0.0804287797702549
0.0849024862099927
0.0816367689063553
0.0845688996013104
0.0813112547711089
0.082245832420645
0.0820893702422646
0.0816418521703931
0.081694277457958
0.0815202790965384
0.0798763653108766
0.0806476582549543
0.0792803192325588
0.0816221884044117
0.0805057958688526
0.0834804285802407
0.07889766738812
0.0818363301232084
0.0795784383724523
0.0798546355201116
0.0769089476045679
0.0811029569581099
0.0777475674235869
0.078858339363507
0.0786997930656369
0.0822339660116744
0.0795242330248626
0.0802759922230017
0.078438985837522
0.0802910729146266
0.079442016247528
0.0818961360732856
0.080555963595136
0.0799082038864978
0.0781827952311005
0.0799383679142937
0.0789620850634594
0.0799915313803457
0.0769945543856746
0.0804251258678577
0.0775065679056713
0.0801996287345948
0.0764701337237605
0.0788216881603561
0.0761504566890039
0.0756324741783471
0.0790618861749088
0.0788104782171146
0.0756774733470377
0.0793837767529247
0.0746346554413098
0.079207457040145
0.0760541903375289
0.0787261694682944
0.0778892973144797
0.0791332924430365
0.0763961585326045
0.077830594905198
0.0745923606836829
0.0780904488294442
0.0731938828076875
0.0768042639202724
0.075459721292862
0.0752528550249325
0.0772439491705831
0.0790104899784885
0.0719341500798153
0.0769317505753753
0.0728037015611165
0.0750055459177659
0.0751205333894843
0.075862542151243
0.0741730882428293
0.0770311975800881
0.0752190017301868
0.0753888813209792
0.0725677815369575
0.0782421840884642
0.0736120196280871
0.0745283149077682
0.0740130415081878
0.0763289556563827
0.0746660022188357
0.0748432060433727
0.0765633085312099
0.0757267285858334
0.0722127520203245
0.076249350921603
0.0740681436774536
0.0748535891000097
0.071480370728714
0.0761444729821172
0.0721151940896374
0.0747379460414934
0.0728108036399822
0.0761038697792168
0.0716697341957442
0.0723888217086661
0.0708856058685423
0.0741803113169472
0.070278257653169
0.074965483479781
0.0734269392783126
0.0738512088508634
0.0719023221980738
0.0732717919025381
0.0711954481710764
0.0758539882744078
0.0711889080932139
0.0705079222173742
0.0719679702124953
0.0724225869608257
0.0704253082125102
0.0712568755472475
0.0701521990953989
0.0723091815269966
0.068726290556964
0.0722613900114815
0.0698285456853322
0.0694909658202447
0.0697866082102039
0.0705726653828283
0.0673283335867331
0.0711791473944603
0.0666688368126111
0.0692471669061512
0.0676368920430962
0.0694746334317831
0.0647337698134526
0.0685018398423436
0.0668280801322134
0.068744461458532
0.0680917055099498
0.0669544319925904
0.0662922890599511
0.066010363142084
0.0698392364787025
0.0662285077821831
0.0638801227949197
0.065047662671376
0.0628082250104747
0.064415061958863
0.063618754373165
0.0665446650985011
0.0631436199828701
0.0657733923229196
0.0649255477032874
0.0652926330761704
0.0621283951352081
0.0650425390662926
0.0630878942390134
0.0647732529736669
0.0618560579784565
0.0643914610080078
0.0611701609532024
0.0643036127485796
0.0581082352649677
0.0605919738239996
0.0607133945459723
0.0623512025436119
0.0622843741379218
0.0614796780536217
0.0556899852187105
0.0664899422565308
0.0583180529922196
0.0634040628203922
0.0601163877193588
0.0642646618804857
0.0570133566087134
0.0618185013673703
0.0568256952994399
0.0624541743252586
0.0581027809901079
0.0633697685236622
0.0593318530238272
0.0614672483262218
0.0554211243007241
0.0615394967434122
0.0588793861525427
0.0608015758296095
0.0591425251931362
0.0606668106764311
0.0589755090004457
0.062655518073789
0.0560839214327527
0.0606661329311148
0.0555624361220113
0.0614320714223125
0.0561902699403741
0.0646550091639723
0.0572646328666727
0.0608005704197079
0.0572178428178393
0.0609216939828053
0.0567777450539282
0.057949457946159
0.0544549045338199
0.0583696787609045
0.0562700416750603
0.0580609276849148
0.0563222420460355
0.0581666032578807
0.0545379004891248
0.0584924238858525
0.0549339818957386
0.0572889680183286
0.0533299811472395
0.0585947677464204
0.0519719457701267
0.0565253347719435
0.0533786155097439
0.0574005495151832
0.054248371223244
0.0596707070764862
0.0567038102472088
0.0520886562651971
0.0660271518801003
0.0526190662190242
0.0565922787082854
0.052469652451697
0.0546785354230144
0.0557215862895426
0.0536808465836836
0.0533028388940859
0.0551372980383288
0.0533709650813132
0.0527173489034814
0.0548585546285406
0.0558613230890192
0.0539322820302976
0.0525708023703086
0.0539356371136202
0.0540114963105872
0.0542520765906383
0.055659245687724
0.0544745184523195
0.0528031267019065
0.0598267656136101
0.0574273665420897
0.0536120953627092
0.057650751262494
0.0420365272495516
0.0626685002445225
0.0576242534049188
0.0531019275841577
0.0557112410613194
0.0521334006310536
0.0534848157940174
0.0499261828930912
0.0548616354827202
0.0474101746512903
0.0609782887242572
0.0503135008186519
0.0585333977954802
0.0518510232289634
0.0561988352611428
0.0527915587870463
0.0533227581565672
0.0527844226050946
0.0546184374863156
0.0505519845789005
0.0545217003190779
0.0518792551232983
0.0521926665709806
0.0523079411389235
0.0533270205356947
0.0494632875007055
0.0582053198959114
0.0488534965421365
0.055663045466544
0.0529173417687458
0.0545797683107993
0.0461153498740478
0.0709677523611456
0.0478487589087612
0.0577583869684472
0.046049545507856
0.0559743713002829
0.0516097204157407
0.0590560079413562
0.052108291439059
0.0547527743918539
0.0491820588429409
0.0528389680059444
0.0512589852139759
0.0562991467519076
0.0514124577995901
0.0523193731351523
0.0512669639339021
0.0531844274958888
0.0526027010245754
0.0505233964132006
0.0563667808460925
0.0482844024477213
0.0506953045816973
0.0669453071124785
0.0520092815412884
0.0620957902877879
0.0513455317757571
0.0592103551955996
0.0484199806421449
0.0580563652688389
0.0471944286758109
0.0587067855561686
0.0462062199690871
0.0561309958325018
0.0502717101628162
0.0576671273795016
0.04797524212127
0.0592564839054084
0.0459794155135695
0.0590079493189832
0.0451329749235163
0.0609647458356904
0.0459697871442134
0.0597018962806102
0.0445643695920006
0.0619842441474561
0.0494857009950776
0.0645572464845912
0.03673528673086
0.0633353004300936
0.0731680446106449
0.0465309768755353
0.0624909801490822
0.0486400552039452
0.0560893419332409
0.0517720164661569
0.0522728717283605
0.0571227190535933
0.0554743012769389
0.0541674083103375
0.0542541613596366
0.054649442874745
0.0568519454997703
0.05301765814682
0.0443740631156806
0.0693328525624003
0.0574467747286773
0.0610900130007613
0.0588355460045031
0.0422037595597069
0.0714692513399187
0.054662184576315
0.0588852200120939
0.0594645634383606
0.0544250400067649
0.0570806031725989
0.055866668993956
0.0569865017726117
0.0550428895133311
0.0623665212842942
0.051741759482812
0.0630489909361934
0.0511428428273649
0.0630999060131032
0.0531042585731371
0.0609506891851091
0.0655830992798405
0.0567517372747935
0.0574327800914793
0.0610539306913952
0.0561367043280051
0.0613111487853132
0.0547336833264479
0.0593994662769473
0.0562305162978762
0.0707301900142087
0.054144660938839
0.0675497306034497
0.0682434188091725
0.0560047017171515
0.0592386776188107
0.0603534272337423
0.0651234583215169
0.0614416719965437
0.0431624332507525
0.0915591733542668
0.0481797027780688
0.0893259487983266
0.0501956741166267
0.072292037202473
0.0514323687480069
0.073410465020581
0.0463325699590266
0.0783215798667936
0.0563091193072804
0.0697893561244553
0.0608806673602066
0.0691866928910488
0.0749272037247355
0.0649641692341749
0.0662762109614163
0.0650331750378023
0.0633501346281907
0.0698787086377353
0.0751430705169685
0.0447414739923383
0.0813604653789528
0.0799275665042943
0.0725244390695189
0.0812893225343777
0.048663362611777
0.10024650893002
0.0677164650525559
0.0752572073684423
0.0689752901608522
0.0730637061185729
0.0721645733059921
0.056441893667916
0.0895704280870779
0.0788179805595123
0.0657371031643597
0.0866132498961709
0.0586777842358584
0.0841828639714111
0.0798628538289313
0.0781958556291438
0.0721469952022701
0.0868878614029562
0.0584522983654276
0.100357223876667
0.0967707397594511
0.0719907384052705
0.104365172106772
0.0767834296845715
0.0954395711882738
0.0840898087122425
0.0928226929963568
0.0834688728827925
0.102422878088418
0.0925708038820598
0.0858083033174402
0.0786368128987762
0.120118908810481
0.0816319727961194
0.104131749623324
0.093474092935422
0.0826775021138302
0.0947584971190799
0.133372767304721
0.112947583475437
0.109934720215345
0.0941992116702816
0.120997866839087
0.108616731610706
0.105497924702477
0.109978795450967
0.109476425731958
0.115634172535134
0.10467707559783
0.120665094359536
0.116129485116363
0.114566194265019
0.125857576657084
0.10585556646255
0.123483590750684
0.122984512959725
0.165425141044145
0.109764229918624
0.159112803391911
0.140064130585355
0.137298087233841
0.135864027612856
0.130575791612702
0.146268794152916
0.139878578950619
0.149202810968004
0.136845784660233
0.157091075658015
0.165618929393891
0.131974024526653
0.184891432260045
0.150383726992957
0.179719731529246
0.10009563436214
0.299155084922045
0.188674675732458
0.189975891388945
0.193421439950931
0.159377597637812
0.282023500531995
0.21408285121969
0.223778038776569
0.231504070006103
0.237984520335207
0.242755968649447
0.260713362306426
0.261937170231531
0.277593462025453
0.283299610683805
0.277845054071491
0.287033940636316
0.351672885423901
0.32767949211657
0.350109047056387
0.316159051277729
0.352812340211424
0.35821817786197
0.354500481547014
0.368357492965934
0.380591476791653
0.338625131826825
0.463768702274432
0.397535105989995
0.431646081435768
0.411789966352815
0.477698691088511
0.424251666060302
0.472408946464243
0.486961725135898
0.467933149935455
0.49233238376721
0.495380753550028
0.525549302047012
0.491403371810387
0.547283650198935
0.5484640412199
0.538652030664433
0.552446322893534
0.562010720573306
0.57738069162439
0.573415907554283
0.59428348827593
0.560670349912655
0.623129214821441
0.588448161605773
0.741608773920991
0.655334902563502
0.584116247345859
0.617473699613725
0.590421602497963
0.648609723379085
0.627056137654515
0.617533598187637
0.652882843429109
0.597898278605654
0.629113441448873
0.609829428959924
0.62865110641447
0.615597657757972
0.641553787845966
0.597179118282015
0.636393300683428
0.618365969553236
0.584216438934833
0.720227930808689
0.616198745587333
0.607248513364392
0.605298079291878
0.617086793208674
0.606926762484865
0.608458258314515
0.596423424320394
0.62482757648401
0.579220389063896
0.597585842228
0.562096842440308
0.588026627841936
0.592860732452103
0.546692685703137
0.556463515113942
0.537677811202845
0.531187954883828
0.51497125805447
0.499674221889333
0.576492864347315
0.495646947070321
0.500219861652836
0.493600047857623
0.481244767814653
0.481128160506757
0.474003779260209
0.465252835724586
0.470472171855488
0.454388686130494
0.461828725142287
0.453407570931158
0.452097573455543
0.44241408283137
0.447537935473176
0.43900117505617
0.437623046538508
0.443861459103852
0.429448658758608
0.438952328540269
0.424677670815647
0.433114816111639
0.426777370359252
0.426548722261528
0.434553713175993
0.424288097690461
0.423093095777686
0.422541751338737
0.418821112561753
0.421283512506436
0.41896888365444
0.416481403518597
0.415865753305017
0.42386291264871
0.415137417743118
0.426234261988621
0.417332291117109
0.415577396631915
0.413651803647946
0.423364377740483
0.409691340648049
0.430285457422368
0.391459772693939
0.439777319929876
0.450037703825427
0.404366672479192
0.430391047964136
0.404897580077908
0.427088915262554
0.391080384043554
0.437319474084469
0.435211845962488
0.410215960464044
0.413971771840048
0.403258237516607
0.409133580341007
0.428634920262138
0.401123888776628
0.42131053077089
0.389043682934499
0.400290342714038
0.474479785416068
0.379420495734662
0.478355690836265
0.4111644976623
0.415443121971167
0.385146155948724
0.454101978028432
0.398681580378496
0.42276785270424
0.403928386994854
0.426345073079169
0.425737230233301
0.404665137773599
0.416600368674573
0.404646636631445
0.409536724890767
0.433220752528583
0.405475207931542
0.397924859074892
0.441151174311754
0.391147885785342
0.41004521303565
0.425936640783985
0.41081574641244
0.381143212792921
0.384154703384378
0.383882456647361
0.353243941165747
0.428704914051951
0.370719843263092
0.372528817706076
0.367561003637007
0.35030881605653
0.365615355171847
0.353862810083406
0.372288984503099
0.327086713061208
0.388276716678619
0.326467318955906
0.337829286765735
0.346473192966671
0.336884841538371
0.369141387214709
0.337105327367315
0.32278216709165
0.317430890249104
0.359953256511372
0.313596611660275
0.332778068475012
0.312218655998136
0.30153263412241
0.326699893718015
0.300978053134077
0.292468217932434
0.304881747194998
0.283783249926469
0.321588113721596
0.298000697285236
0.312985571449017
0.286243900196299
0.271547102100214
0.273828071051337
0.267895063249652
0.276813021014579
0.26044833285891
0.265522424556864
0.293373815135261
0.234731183475562
0.312265478563846
0.27191423733138
0.265327262998809
0.26826372229179
0.268546618211887
0.263390911147227
0.280244118211198
0.285605304942667
0.286459469057062
0.262242573625754
0.301078129175158
0.274040724043612
0.294406035317428
0.27761585714668
0.297040517089477
0.287418917377532
0.306446908755251
0.301414786113871
0.309531821248294
0.309213428355174
0.325854421273818
0.305332364797111
0.372470327329596
0.316225621444172
0.364011631026654
0.347610491889144
0.382758959119764
0.381620390632059
0.365868320381282
0.382831677255264
0.384132522570956
0.389853555452807
0.399601730579449
0.389232773738326
0.445141440654642
0.402455218853489
0.421049536725529
0.414111223055154
0.428914115606859
0.413601353402575
0.451270255947647
0.433816747585874
0.442980720263459
0.493827129281916
0.437288537086045
0.465674775426826
0.447960163559619
0.469163562796762
0.461901637043984
0.456077674897317
0.465196151038073
0.446349335953103
0.48625892104755
0.468527623411366
0.461058395652945
0.473157536472664
0.46977204749715
0.47983951973323
0.48070848359227
0.483443302734062
0.485511920485222
0.477659433878031
0.493615534272669
0.467254802248744
0.550494677746272
0.512272556232706
0.491037758606985
0.512672760074086
0.499473227204265
0.516455219752563
0.499991494799712
0.522513242165514
0.529670453818222
0.516418173522176
0.52900300294769
0.526054848477772
0.535494334577293
0.523108486888548
0.555377827561935
0.536179050276321
0.540474888283913
0.538500027866667
0.521400914064468
0.615480515729081
0.544568737616166
0.569905291849919
0.547140701451873
0.562175465568839
0.549951354700503
0.564793117762192
0.55958905412819
0.56941252777259
0.56386139998562
0.565567740882848
0.563596084699589
0.565306250437208
0.572412961922166
0.555183587878762
0.575361688887194
0.570756735718099
0.560962070681741
0.560988688129098
0.561139853317651
0.554892235581752
0.573448398706966
0.581409300371277
0.555643071458446
0.567566169815369
0.55333831140613
0.569004345845257
0.572623351373848
0.560383799370005
0.562973289833578
0.567095481609017
0.561224878714091
0.570345863250302
0.554576452620812
0.594567385433491
0.570529747157791
0.579362165862732
0.571903776639533
0.574213937336967
0.571185835403715
0.582963655197899
0.57832916441271
0.588375199518723
0.585990378443247
0.595160376033552
0.595518937113243
0.583618154759246
0.58617933940404
0.593938897209735
0.596872148951853
0.587736373598381
0.58135318994577
0.579340466650976
0.574930559912323
0.581461541712102
0.570703037033486
0.570676746469489
0.553696094684973
0.565080629769495
0.545638839741906
0.570820707546265
0.547001305708589
0.546528684046599
0.55138889277014
0.52735887626042
0.528995144266897
0.526917699910521
0.531584567509358
0.518183945251352
0.523244999090706
0.517428244981757
0.512005268153605
0.514394747321007
0.514802809631378
0.507769427771262
0.506525531936967
0.506131370356116
0.505036955646726
0.503689468555715
0.501693807028046
0.502685170630864
0.50238964230175
0.504283789631099
0.496981854113478
0.503091296930595
0.512152609100288
0.499726745898154
0.508493089223909
0.497912530717613
0.509628913826635
0.497581405450831
0.499156405487809
0.497829019437419
0.498229983060412
0.495835941901284
0.498793651976826
0.495409719357069
0.496208727718428
0.491566391939573
0.496618925861615
0.494531617912041
0.497273550160743
0.498148180731193
0.497222868531503
0.493146884983942
0.495385465550274
0.4936568079415
0.491562891197729
0.498614361732714
0.495964533828778
0.498286559245922
0.491253106770632
0.498809315102186
0.497271379780299
0.493981234568741
0.495558067120701
0.491141978810602
0.494595530175377
0.496625053636535
0.491487677761018
0.49220094424622
0.488392150465249
0.485955711200993
0.490213066605741
0.486364047945074
0.480205976558821
0.474728257865183
0.471640656600065
0.467930246319957
0.467145626488484
0.463918248500373
0.460228355990625
0.456539986162371
0.447940884576911
0.4470684630198
0.447430628683244
0.445009600883072
0.442094783332089
0.439696378484607
0.436754017809407
0.435242179194182
0.433687108751534
0.433526587308039
0.425329246650726
0.427717905511992
0.430983756154638
0.431196409707163
0.427606532149114
0.42489238633075
0.426160801485456
0.430619279211266
0.429038955321482
0.428539918109948
0.426963302345509
0.430548295855161
0.430449276186585
0.43503591050788
0.436564312226194
0.438203060214537
0.439053865930387
0.438247573557069
0.435862872855977
0.443588154260597
0.446956735849155
0.444646384546937
0.452214542753857
0.45152650421881
0.452553013436119
0.454988937938445
0.448474608944849
0.454580482761908
0.458391392320254
0.453611956614841
0.45397124810995
0.456271632875875
0.456131787519993
0.456626773560902
0.455409349863933
0.454652018400879
0.453948614964785
0.45232584549605
0.452500543204786
0.451960615545608
0.449562200076631
0.447793596246791
0.44689494821059
0.44677131297703
0.445612009010262
0.444846060688416
0.439397692068918
0.439550580571141
0.440228846237824
0.438410626565747
0.43756854433009
0.432494193216593
0.431327276163816
0.430449889738622
0.428364354635139
0.428225305452236
0.427620160918168
0.425125402152574
0.421668258643322
0.420338727109397
0.417520142558253
0.419402270583389
0.417975348606342
0.413104843058936
0.41255975518195
0.410064639619092
0.409925225728367
0.409851474554372
0.407229714014637
0.404504046115307
0.404570247861808
0.402051902207721
0.399378298203808
0.394944740985391
0.394896078812215
0.38999176343641
0.386162832285199
0.384920821905489
0.377587479054863
0.376826612331989
0.376212562197631
0.373522954342499
0.368924469588984
0.367626185627364
0.365766995048542
0.364536235927973
0.36513163976734
0.361667998285781
0.359893177076923
0.359030113946271
0.362471298339561
0.36009952384492
0.355588183727393
0.356516759680287
0.354357146701229
0.35198857272678
0.347723128448288
0.346697618986136
0.343585280790751
0.338202522993263
0.334767297976924
0.329163117399383
0.326554266206498
0.322910802124962
0.320079612019671
0.319614501118786
0.318496006275588
0.314911192895465
0.317718936445157
0.321601208171169
0.323955843812957
0.330230853029026
0.336987080971984
0.34636464522437
0.35505902910252
0.366721459929115
0.37711403732229
0.390835807977232
0.406386323989455
0.419423176566156
0.436257699373237
0.452798093852359
0.46699184924319
0.481608172315598
0.502990203720568
0.517016376536626
0.535016686972696
0.550800930204689
0.562897746273555
0.584078330386968
0.596868301672889
0.609464025491187
0.627343902665358
0.639040283218822
0.654741416793925
0.667505561444895
0.671433813579251
0.687953350062154
0.699057523862009
0.704537987756275
0.715537502414042
0.719852574993605
0.728470727040773
0.736637057371443
0.738605986043005
0.73897407287403
0.746040168516741
0.741292410469122
0.739337321747006
0.742297700139994
0.740685312509055
0.742578899782097
0.741465477663404
0.743380478788638
0.746166488643604
0.743461332602105
0.744872018371407
0.748667085795241
0.746885003258333
0.751170896279646
0.75652749686279
0.758325170454267
0.768482252643622
0.772275299791453
0.778527526329797
0.786840139303104
0.791706766167083
0.80286022817562
0.814456246504493
0.823061597661159
0.83136969420571
0.849319396499434
0.857986080835811
0.861742816310133
0.877788716888304
0.892651307719767
0.902857734718178
0.910013664092218
0.923330256563572
0.926900198167403
0.938204698830088
0.940561216057527
0.940151454410772
0.94628152322946
0.94248023501105
0.943059798336396
0.946369454711295
0.944563335322794
0.946382201420179
0.931153861241136
0.930337446807457
0.929384148259923
0.922786790836484
0.932013288143488
0.942775264140531
0.949322828857097
0.947721837943276
0.971990297767729
0.985387518331902
0.987053233526126
1.01752976531658
1.03903551431282
1.03513761120342
1.06318154807548
1.07020180950093
1.07893330390101
1.11056277531092
1.12324832733902
1.13702363097737
1.15129767376833
1.18407692642945
1.1869461558129
1.18632820923692
1.21683897844547
1.22774908928782
1.250311710668
1.27214726226789
1.29429841825299
1.32665277532396
1.32775881203371
1.37414787307703
1.4207209865734
1.39260806058996
1.40363491552338
1.46971720210781
1.52699519193835
1.51488165990563
1.50689790669494
1.55387274108654
1.54472847676748
1.56287610128284
1.60301554849372
1.62945513567626
1.54949771843198
1.53120086363616
1.57955892398174
1.5562424969786
1.57904246505652
1.55297428056391
1.51926108091322
1.5536877802115
1.51843114929705
1.5256064521567
1.54437368377706
1.5735527605435
1.56083360707408
1.52562756336763
1.52954255982703
1.62373702581971
1.53231566725384
1.50599990773285
1.61025361380863
1.60400423888077
1.62612620325854
1.66793949052833
1.68574335809992
1.69271219050157
1.69433045291007
1.65364543767493
1.72296461292046
1.71369545907002
1.7410601951398
1.75289293643092
1.73181799781438
1.84950058543888
1.77820359671116
1.73964840922264
1.76016020352074
1.75937222495747
1.79316741979413
1.79509568211328
1.86767525905422
1.90585406234426
1.88193232664001
1.91834302537975
1.88131498299352
1.846417191863
1.8146826081165
1.8725632464724
1.89972215431249
1.8323509665083
1.85160724262759
1.95960346811022
1.77725624981153
1.9109347198159
1.84446608181991
1.71168851383756
1.77586065217001
1.95734885622085
1.86493014673023
1.70868881622021
1.68713737215314
1.64117611382894
1.61931476052453
1.55771773261623
1.51447787390069
1.48592690572881
1.40882323102446
1.34207774326761
1.29446607488285
1.28980507131373
1.217116920829
1.17403963827967
1.14883412308083
1.15485789193275
1.13124026439092
1.09512026759291
1.10432951620598
1.10634732260358
1.07507894123052
1.05657876777502
1.05173875640216
1.06453923020291
1.02874651101298
1.00182041808779
0.994068565051029
0.999017466511324
0.992601947747365
0.960695065123594
0.933624304891793
0.933038917322757
0.905466024652302
0.88185617702553
0.867145302422335
0.828069361240195
0.79035824562384
0.768599735891665
0.750703437593725
0.714068289619357
0.693049248568583
0.667805984061092
0.635724461700249
0.610086471551363
0.588064486551503
0.553062589309443
0.525633240531451
0.506339531404001
0.486094753815072
0.46261732669789
0.448162660315086
0.432739186159494
0.418061223722057
0.403505174000415
0.390053723091975
0.385921760916684
0.375712099488348
0.364596962372055
0.361418587486494
0.355474684733983
0.3512899566308
0.344358157870857
0.34321361829552
0.342700602909484
0.342133233639039
0.339903191121027
0.341851583484287
0.343329370578352
0.344010515504177
0.351920332045295
0.348391624831218
0.348492415946927
0.350436102485605
0.347554277524118
0.354319949358058
0.360054949088312
0.358305883052424
0.355440732412902
0.354588124527782
0.352467382497126
0.350424459575061
0.344625136555309
0.34411422675171
0.3393374470305
0.338815201490277
0.336648932047737
0.332087384847524
0.331380635043798
0.333127149473071
0.332167985119464
0.336426262333352
0.340159371889863
0.336880584778034
0.334920317842762
0.342868028183058
0.340576612718339
0.342526429564866
0.347751684155904
0.346651657010841
0.358249679398056
0.355197591429584
0.357104790364476
0.362930140067792
0.365146249577943
0.365373592643067
0.368524875919642
0.37352975727516
0.377405823593427
0.372852774704368
0.372581754997729
0.36971719857486
0.372490120671924
0.374774205279763
0.377423324679331
0.37826539550861
0.385099836214113
0.38960633840839
0.384117474961395
0.3828616810324
0.396070485658923
0.403116279618026
0.410233955295301
0.417163588732226
0.430560923705231
0.440112768089063
0.444588257469089
0.455050291197157
0.474452639222858
0.483936144048052
0.496733638976432
0.505735898003732
0.512899826320497
0.519142185039852
0.520804748016075
0.516875105123654
0.503804531820663
0.494297133760153
0.496958643599047
0.483635783762175
0.471581963951892
0.465366770874521
0.47030857482579
0.470902346785389
0.4591896508443
0.456677184879651
0.467899549991684
0.460519904510445
0.464698484635225
0.459768416891258
0.459259192456479
0.471470228524249
0.460902553764147
0.463171345161008
0.458691574514912
0.460883538313087
0.4635713373996
0.448444887045862
0.441466725651133
0.443374033722622
0.436754592407887
0.433330766308668
0.428506224377743
0.420021700859727
0.417368651661999
0.417847809326318
0.417381978388102
0.420395156893382
0.426195971242231
0.408926820183967
0.406142203416744
0.42057536847535
0.416278127069095
0.403148182220047
0.413390573322509
0.421280253120485
0.405571969377451
0.409337365849004
0.423299331100398
0.401380572560226
0.405040792165293
0.401171835991969
0.399210853324239
0.406620512781816
0.401842649838719
0.402978085724459
0.390419619764999
0.392308095907732
0.398085625109141
0.392352850863289
0.387689490554761
0.385875332736731
0.38371762305318
0.377120471088883
0.390064853487409
0.382746872221168
0.382550936655766
0.383555529607441
0.392534725110568
0.393067701796719
0.394614125652903
0.380777346798256
0.402233277767331
0.391395039493601
0.386513307548366
0.39008826979843
0.395394723390318
0.390621005070187
0.393405193892307
0.398184552779394
0.398446623259091
0.40103148551361
0.39850553571269
0.403512804845208
0.412601125531966
0.413538830370732
0.412807620900245
0.400390341282993
0.415151544074867
0.415242303694266
0.414500647680646
0.418595299239377
0.426994436827906
0.42425388784008
0.435230936911604
0.444274282328649
0.450976814118661
0.444620087319348
0.442448732580436
0.456883581614958
0.473399528147776
0.46432932072705
0.464634081167825
0.481592680262027
0.490337552698956
0.500273219789725
0.527629574303752
0.53667591015129
0.529724514519364
0.566573266872869
0.564454544971598
0.582833550648931
0.593766057620774
0.579315495995273
0.630456426375046
0.623627170803578
0.623254165295059
0.664079221234676
0.698733341604242
0.649420872908595
0.671271788699297
0.672455735151559
0.677967587304956
0.658904580303116
0.681785549803413
0.650683388141949
0.678321798973084
0.660760320599224
0.656401112497677
0.672341393441675
0.64142165764213
0.623609695263598
0.685239943928338
0.67057759697952
0.640372978125976
0.645213874709997
0.660035199240837
0.65422522394592
0.662757132116313
0.642609928820143
0.651890804532551
0.63456112114901
0.667486313580079
0.668050594709172
0.635610761336497
0.596596462048273
0.61072314517379
0.629619349473462
0.616871426455963
0.559587769340536
0.595736632842683
0.604670955434813
0.597308298071511
0.5949934903538
0.646446741676801
0.572984511028528
0.594293622917517
0.606398521152448
0.601507403542417
0.581600726599258
0.608470302611422
0.618845254640245
0.581258049193743
0.569820037981177
0.639519977731609
0.595831315374852
0.618601452564432
0.649978806271835
0.637463263863664
0.625669925622084
0.624305482218455
0.631537182470526
0.689540038831287
0.658876726253688
0.651378323497798
0.620219821995144
0.603215544656293
0.612484930801858
0.665408626786162
0.638532075669347
0.625370201237317
0.642980945142839
0.625185598864737
0.605536268960841
0.689125695983276
0.708493943335553
0.709373880955258
0.670810957159504
0.628395279992205
0.677527219050172
0.771145855366414
0.672566643480139
0.768094131302421
0.764458844302404
0.765217597110377
0.78458206427122
0.766880495155576
0.768904417311449
0.835404244638293
0.764142221649075
0.858113244258762
0.907026798998773
0.830620508009974
0.771300389585081
0.833939401698689
0.696249969067348
0.853208441442259
0.808800400447446
0.960409508223759
0.840000864969917
0.769824067494167
0.769975298598925
0.982519253912849
0.775271175587256
0.825694295077081
0.734018353477204
0.847714688982144
0.750791489765447
0.784699968468261
0.765587215257514
1.02869774338334
0.839416852789633
0.968084055659411
0.805966594762703
0.888370447182832
0.897446154275904
0.872263510011927
0.709065838888176
0.982293751099216
0.769075906921835
0.813881525723379
0.863502982797063
0.981868357587826
0.638696928688822
0.803057547189975
0.923321856175789
0.737442107989052
1.04025012341886
0.923675850612274
0.531010186405948
0.710065385521027
0.649342945423774
0.902998650597074
0.695706478530406
0.878201675908572
0.711813926819188
0.977931049442151
0.753169900673971
0.883825246010081
0.927715883529659
1.59323279300541
0.883181496819221
0.846282973689166
0.576891233969916
0.722209016003748
0.717282709278219
1.09019952664338
0.541850423263058
5
1.01712441731948
0.693743097560679
0.605561309321535
1.30570115355951
1.48075602592238
5
