3596
4000.36533379555
650.420452594757
1
2
2
0.0444475439495954
0.0337419334639593
0.0531818857742105
0.0366483248694848
0.046801492243327
0.0289035978927225
0.052758354150475
0.0241888491541887
0.0410673875621115
0.0286179619165835
0.0420358008964994
0.0264582879904861
0.042112738869217
0.0299021859155392
0.0414433718816934
0.0186187599667488
0.0423916486164202
0.0283853267358202
0.0431635787654766
0.0286889813529067
0.0509646083140501
0.0297076470913559
0.0477025006321997
0.0238459984828445
0.036664703481711
0.0307020944756288
0.0485111151072573
0.0244528693214229
0.0379664947558178
0.0313516292161388
0.0481941391208079
0.0279391881380662
0.0478245093691289
0.0255939079204833
0.046315530418395
0.0335765061807174
0.0435806240077878
0.0308618969653117
0.0487278625792461
0.0237054016907553
0.0471683673563333
0.0338615330641174
0.0428746166282832
0.0247784080498979
0.0448220858856985
0.0269694894167689
0.0503531020329577
0.029322532064877
0.048358228696144
0.0319387183545268
0.0409245184331994
0.0251265519531679
0.0470095349947071
0.0357322581417893
0.0318906255893739
0.0353235177696173
0.0582012900386173
0.0335654187491697
0.0410503621092471
0.025161371698419
0.0446572548084885
0.0377265476162006
0.0487277138061459
0.0223244029263997
0.0338869224540103
0.0324024012005502
0.0463952414112173
0.031244717264979
0.0431036594657696
0.0340713693148379
0.0358076388006707
0.0186632318993315
0.0509690707093673
0.0399951124247842
0.0420799168485628
0.0259603937756086
0.0423244765669611
0.0256475862325599
0.0320454719514598
0.0315407112502293
0.0512856277765298
0.0392634604239178
0.0381393310708156
0.0239343761516315
0.0362272459567287
0.0386023237209354
0.0321116095248475
0.0172455042536856
0.0588363653845815
0.0341625178689629
0.0397835159089767
0.0225622131489077
0.0304803692586349
0.0246646465742156
0.0323219857802077
0.0262240179076227
0.0426017473427098
0.0279377414616797
0.0376961873690961
0.0400459685346652
0.0365784980730762
0.010496168488412
0.0714580432988059
0.0163956288233076
0.0748911978051813
0.0341421935735558
0.019404103248481
0.0519042882411672
0.0493509380880772
0.0392652134966931
0.0433448353082494
0.0253695298372258
0.0350689705566655
0.0309291799187402
0.0222801130517908
0.0309406190857848
0.0636770791478369
0.0409335443048971
0.0417130695157667
0.0309186425142979
0.00891408377252407
0.024536725566981
0.0739541438175964
0.0247658027135509
0.0466644069580367
0.0261142549832287
0.0241736320225382
0.0299621966946241
0.0643978655001014
0.0301190939393248
0.0450472320384288
0.0197597069474209
0.0273120377695045
0.00264710309481786
0.0625822391010223
0.0315897347273531
0.0352670375445509
-0.000845649724081065
0.0405067501368548
0.0652184727744823
0.0548530277456576
0.0305399470142396
0.027066471041497
0.0071991520404672
0.0742644618183049
0.0333430047881561
0.0302752781260947
0.0303135333952558
0.050800584968205
0.0346215803063373
0.0331713636189811
0.00919832836381916
0.0516695334312615
0.0349326960920195
-0.00467082598476702
0.0248341495104445
0.0826040598672055
0.0127177454521329
0.0860971826715268
0.027949747586811
0.043941709712414
0.0281864750925021
0.0389119520762519
0.0214798292383908
0.0396852088992829
0.0140667820836981
0.0264128242657078
0.0474859266177175
0.0339732543440581
0.0160817109880155
0.0511275860108711
0.0238552350652766
0.00795321921019157
0.0695460812826865
0.0584722821578386
0.00791328119507762
0.0569540105490542
0.0355664922904169
0.0256832062879439
0.0222231603782441
0.0659691420992086
0.0291344582232297
0.0381800065997116
0.0231540240007343
0.0258467047346729
0.0338058154817976
0.0388123068737848
0.0300596114771476
0.0402538676750517
0.00852829518139668
0.0353770915625888
0.0452946610848195
0.0642264243446095
0.0209835282473362
0.0420732994511392
-0.00164276342887931
0.0598814887255677
0.0623876151760752
0.0440839835396023
0.025783104039815
0.0317193778237056
0.0268261339762742
0.0323589527122667
0.0286806721396668
0.0335960831402374
-0.00410924598663949
0.0582098988397629
0.048815320194788
0.0393410040523795
0.0243876260419949
0.0250914156206407
-0.000892700135683291
0.0646753413634685
0.0587317630305118
0.0391449901300534
0.0348711989741327
0.0204232084250225
0.0214017316506569
0.0586852862060903
0.0352250569678436
0.0397326269316299
0.0300997933969313
0.0369193287390192
0.027485763781416
0.0362494111276939
0.0291372721438816
0.0406074566962495
0.0261036887591149
0.0355170526897498
0.020840736073889
0.0458084664144601
0.0305304842617367
0.0372305797375116
0.0291063728115051
0.024725052277272
0.0188554466427673
0.0595208500083639
0.032144913748009
0.0436186196276652
0.0281309742920726
0.0344125859976552
0.0255199092016907
0.0431168938469095
0.0291679849430419
0.0314528882080746
0.00521130178044564
0.061115098005477
0.0395427613191945
0.0351576243374121
0.00903642622180898
0.0401940027058476
0.036042871538631
0.038497110110577
0.028305446909528
0.0380889896172483
0.0226000881515161
0.021364109598872
0.0453790738073636
0.0426254105315724
0.0215364564871942
0.0493644363773629
0.0305849978466281
0.0339571292587232
0.0254005654283231
-0.00619666203236035
0.0668207719553153
0.0432974186598905
-0.00676968684378004
0.0878961652512082
0.0456954943209288
0.0455170552855112
0.0175134696209028
-0.010477078152052
0.104545300952569
0.0905853249024618
0.0304489249770145
0.0349773288150768
0.0404101882749443
0.0383522779248106
0.0271667967439886
0.0309586151636989
0.0210945356939501
0.0323166557076823
0.0325307302063852
0.0926617942077638
0.0118537689351837
0.0401123745413661
0.0618569570664171
0.0469913177543776
0.0308640290761516
0.0296710300096761
0.0248091193847703
0.0419608458226661
0.0416134934440409
0.0468184693003845
0.0385271611176378
0.031756912106185
0.056626293011713
0.0483730371202651
0.028645198058262
0.03685414421468
0.042792964181001
0.0409033827615728
0.032559194641693
0.0352423553502935
0.0371678292038166
0.0304497860549384
0.00747907494870381
0.0701880495610521
0.0434376108827956
0.0255721963935524
0.0583019270420736
0.0544547050274046
0.0245134766826568
0.0355701370730044
0.0359457935897712
0.0389859438206601
0.0245253643972334
0.0211914952432072
0.0376076976012971
0.0504087533365088
0.0265265928514637
0.042786470395346
0.0325615189378118
0.0417607437608869
0.034785014111724
0.0377020857286011
0.0317069217390319
0.043117498131524
0.0151802549400884
0.0510125484174474
0.0571052422774405
0.0130754308012532
0.0394567313890914
0.0788171757323109
0.0369717918927361
0.0484008019555673
0.0368355798829565
0.0490070608397206
0.0347902468288495
0.047103375598124
0.0385530192260156
0.0385861737122815
0.0440556473673371
0.0584229621208927
0.0271156445090602
0.020094022762394
0.0587839112556563
0.0986127444304068
0.0547821782897818
0.050619173444319
0.020524635686684
0.0506234477277786
0.0730764639950377
0.066810944388599
0.0702763009610716
0.0558195309549766
0.0536652188416508
0.05215019155106
0.0447677634330085
0.0567441080327609
0.0512755531097212
0.0599398834375134
0.0482860751975085
0.0591976118032447
0.0575351061383887
0.0559363245460021
0.0414427297910599
0.0949645837281628
0.0731949230008789
0.0678693842898437
0.0655551264885403
0.0549584056747457
0.0532468850742349
0.0824333684376708
0.0743028482703482
0.0926508260040102
0.06611989439502
0.111693007561023
0.0751709938461962
0.0896530830870365
0.0758852265451755
0.0844775294267279
0.0744398048732936
0.0839561314923858
0.0745474596666955
0.0827234002241951
0.0788124040316847
0.0955927468261129
0.0785952692040613
0.091381055692209
0.0781258832252715
0.101051937479537
0.0888780321092433
0.0978579307683463
0.0783930370174892
0.0830914309678791
0.108293156183685
0.140719712617842
0.112341278773903
0.108407255967051
0.105689641753288
0.111247544222081
0.108581942974881
0.103639837047596
0.107380374678681
0.107810445075602
0.105824986914536
0.134763576810122
0.124017282711952
0.135068433120217
0.107406589219495
0.134641090584486
0.125168552466746
0.1401443154904
0.14066756081071
0.140646082168212
0.118951740948236
0.146941139857551
0.150264550423365
0.145849710496972
0.169380251774212
0.157670163521034
0.144093691393408
0.153053294458461
0.146285150215458
0.157436977602375
0.162322455735155
0.170063408207334
0.153808780420199
0.169855732069424
0.161881455412065
0.16921124557759
0.168873625468904
0.183818504598066
0.167656872785406
0.190533376300003
0.172151091845521
0.191936670397367
0.165037916745578
0.1949237165582
0.202721470553611
0.199094440288551
0.197801872479112
0.210610230505448
0.188651820896276
0.200167635731311
0.203085883159434
0.223325861363816
0.210091222576853
0.213520961928859
0.215426130746772
0.235643869410829
0.223443252811515
0.232043155668695
0.221172951723192
0.226978503696355
0.22559977987438
0.236014038389004
0.231219608399902
0.250307749113306
0.225331439257116
0.253753208097723
0.266486153282297
0.2819524207257
0.276239621358098
0.277788930942892
0.258131596320012
0.272616347063773
0.253597359425168
0.2902815650845
0.284075638866904
0.288589599061218
0.277144037227142
0.295100003570074
0.287509055961063
0.282268143988414
0.290667779109143
0.312778407356608
0.304940212003101
0.322786524633911
0.294285477972596
0.319747525833021
0.309914857045543
0.321545894926756
0.31382641365081
0.318560720153541
0.322998289324764
0.357280560546561
0.345523946411655
0.361607390431789
0.342055299111384
0.350163738347777
0.344122983903272
0.359631119415323
0.346573974756662
0.370314288660556
0.354493075697594
0.386792921516775
0.362004400278086
0.387014348730823
0.370020027923014
0.393398513552774
0.370093150225807
0.404470178301037
0.394326137755139
0.400536596235106
0.386377553546438
0.400559929037798
0.38065664734504
0.404154646353894
0.412965122050012
0.452611600426295
0.431704280766715
0.426612450448262
0.427356932710792
0.430983016297384
0.414332056640498
0.435729923607166
0.425083800454651
0.455529010347235
0.45021996727237
0.465900989152904
0.474663084946508
0.479752477853298
0.457723388924198
0.485341903052183
0.45913693757808
0.490870965039793
0.464738064031311
0.487124295706283
0.476773029471068
0.50050881613649
0.487097128210656
0.52030219903746
0.505081004243116
0.536473058173304
0.502077339596015
0.506965616882211
0.518263464547733
0.532637016281102
0.515682067067176
0.531856322904493
0.50734464481137
0.53849538829198
0.535457052073819
0.568197557887205
0.544165657537576
0.564369329621269
0.541039286560779
0.551477174789218
0.537168415221404
0.5859561706563
0.583722019593287
0.594974896022114
0.556461897261346
0.584262703109198
0.56408031177514
0.608673720022448
0.607537495982526
0.609453947183796
0.582848506262825
0.5944306637395
0.583509507692177
0.599015756991176
0.59557923530699
0.612707590474985
0.587039941725301
0.6150473914445
0.604822331120868
0.632440548803413
0.628862571695872
0.626323793391097
0.633168234558665
0.646922736245191
0.638942481349936
0.68397103158717
0.626523918503521
0.673562148635995
0.665008732353276
0.694993548413722
0.678760650831602
0.691549821550253
0.671670695227345
0.694058944544399
0.662165522555696
0.688391218085513
0.711071678044412
0.733598879826559
0.689745362992526
0.711230209083468
0.675687585191697
0.759302101018604
0.752444716812166
0.711086827175612
0.713142275829693
0.717477727652709
0.718180829581477
0.77554810753745
0.714091415595946
0.726872664513859
0.705092070509731
0.725935385953253
0.729399440194765
0.765216439483908
0.738952326769268
0.757728481776399
0.750618286078242
0.812160771119848
0.780548065214392
0.781439820773988
0.755916080939123
0.773329154419226
0.78147809319745
0.816681412533475
0.796808709591641
0.77711418894174
0.78832481757588
0.806236656105323
0.770310979113987
0.838173179069834
0.794675913818783
0.855844761231265
0.828913021195075
0.822433961852142
0.801849402674565
0.825121073407672
0.796987654623508
0.814026754421071
0.815006561136806
0.896274424097494
0.850761436668886
0.81517268458223
0.835097852762937
0.840866907803308
0.834114496233082
0.835986451828906
0.837819197627323
0.862934612485606
0.843130884231326
0.853493960909186
0.836160991582433
0.879778840852714
0.827086612542913
0.870392119147303
0.843271880189819
0.879879409772774
0.850504809503379
0.859280996584248
0.855715672758558
0.869306718099786
0.860290077053419
0.866314560276673
0.881536041709391
0.929439987280174
0.895898262743682
0.902796173305836
0.880674960226299
0.925106446411434
0.882955573539929
0.912621761273723
0.89323466186961
0.914279290539814
0.909421752514414
0.898852128795243
0.909679122792357
0.926477756554728
0.881049783857499
0.920670169630048
0.883542231377063
0.907142711657693
0.872504986126252
0.881723720850225
0.897177449641365
0.872555740648295
0.897556434249527
0.925619091258933
0.919824002890313
0.957043393126938
0.94577428589174
0.935164997056026
0.926099906683991
0.95942386378331
0.918316470068681
0.946249856966954
0.908282489265494
0.911195348066784
0.929453669791997
0.986481633987366
0.915703651525999
0.939982715424798
0.916828644218359
0.931556278327859
0.960546867551394
0.961861017663619
0.945232661497041
0.981752730283561
0.955892312850041
0.94702128074761
0.901529142815701
0.970947953865489
0.952998859843809
0.948713333549791
0.946092398049493
0.966828301689316
0.949583488813345
0.944307293590008
0.937099768943875
0.94604677023622
0.96385132657179
0.956588706499382
0.93071432838193
0.95656193217316
0.940916030193917
0.999992745148135
0.955125108225008
0.94563254916014
0.965901900266355
0.972341125882296
0.956177600684172
0.965694257805741
0.945805099169011
0.97018569637824
0.953921041927983
0.973100735646195
0.957419559477353
0.929975957603162
0.975723535215273
1.00366838381169
0.919372609723653
0.964514354200099
0.970218724303466
0.958727964797904
0.934082531199909
0.959623763587885
0.99323768497035
0.979594477815865
0.917000789612995
0.935444787168483
0.958491579103696
0.96069511140557
0.937348946410659
0.961545623085948
0.941557409101938
0.956285379380302
0.919805777254588
0.95948615652879
0.962315821324709
0.961143275864788
0.957902565080052
0.976135136226159
0.94731465989824
0.917132322036092
0.904508468257107
0.93801627653696
0.940192654371408
0.957062890421339
0.957023237690528
0.972545427010829
0.948474765811371
0.946083745386837
0.986988391951447
0.987632957389938
0.924043138876331
0.954850919660221
0.945035047889536
0.933912794157337
0.965214746251063
0.974292804669907
0.936743566732233
0.947639463603147
0.957017451534877
0.949831849619162
0.945329544272311
0.94186785490815
0.94385119976136
0.964478561008894
0.951380614838842
0.945613334771927
0.888790887983623
0.932345875207925
0.906380135650539
0.893337313926638
0.915290420556177
0.931699063093405
0.925420515622793
0.920507049581458
0.919376689820794
0.916872424518181
0.914703789848004
0.898948730997936
0.890905951416549
0.934689962515694
0.91309881325144
0.90840012054107
0.914311413708218
0.94690492005986
0.920312436568042
0.90824872105389
0.911352173815737
0.896266330227324
0.915877651473002
0.877592486764812
0.869649471173611
0.912796697613552
0.884665166550775
0.87264953907672
0.854345530123166
0.858485238736583
0.87665627587776
0.884548150895266
0.863095685709198
0.869228908811409
0.879898562002393
0.849531780726813
0.860946650751517
0.870051551435946
0.841353836903995
0.843126969652223
0.831666994964953
0.838296597818385
0.821526497883529
0.817048921284827
0.850810481395979
0.853612983192619
0.826295867591303
0.839614922523136
0.830880310911399
0.81522219955699
0.824532517615751
0.832017459290591
0.81775680204717
0.829520702695335
0.828437828516524
0.809149273748023
0.792570648541259
0.794761105408763
0.822247133194337
0.814793191342839
0.804270715669139
0.810705992683266
0.795782344648365
0.811361738673949
0.793245396752055
0.785495922224819
0.786169572668363
0.773235331010631
0.775430070172955
0.78417004328929
0.759622843889155
0.759428550387467
0.755161345080614
0.752716965612913
0.767040129078712
0.754030019314573
0.732167746638696
0.733083401566024
0.709374792052198
0.726561105240494
0.743085778181935
0.748144899907731
0.736613034527433
0.739715126834696
0.742870649031776
0.710576345039508
0.704882834274933
0.718090946339889
0.716779198862656
0.70708013405179
0.722285886217083
0.705349481328872
0.694506488465252
0.700759520417608
0.68582918122027
0.698490423187116
0.691080978357938
0.683786446262221
0.684130414638151
0.674856695364422
0.675476970139006
0.665827278616584
0.655883619698166
0.669755696451659
0.66832712382512
0.660516981632218
0.643296822039002
0.650128599466401
0.650924162270922
0.651003931814073
0.647756210258193
0.632793448838823
0.629327092248415
0.631371089618081
0.628977433845626
0.622890552533595
0.612789428648197
0.606858376076289
0.622197496163081
0.623034789933194
0.614055345811733
0.608893283166188
0.606187363289043
0.591177321679361
0.5918190026574
0.598717728376184
0.588854973100978
0.593461039997785
0.583150515867449
0.571780562106429
0.580483854448516
0.579994351937369
0.571025045723852
0.571893553855818
0.558652236366949
0.560292045855053
0.570355606866265
0.567200516676658
0.565536316281152
0.561914697346074
0.548757284103501
0.55116360315772
0.543436999411094
0.532909838072382
0.53966677725497
0.540978940902533
0.535074358565545
0.533159328004573
0.520452909422876
0.51559761539404
0.515586440154263
0.514949315152158
0.516869685198029
0.512654395306391
0.510930150535989
0.503893861515029
0.498682758455319
0.4867762748956
0.493103017893937
0.504590714036985
0.492618211187638
0.490932115754629
0.49051258614505
0.478187394539276
0.485314546726806
0.483306566921135
0.472769876571069
0.474061663925802
0.46488805417091
0.463884446443387
0.466191879435361
0.462192628056059
0.462246652661917
0.455822031577015
0.451668824908103
0.45542986603556
0.449670959321516
0.43793844643884
0.4458203733471
0.454546936219439
0.446212412381455
0.437848402804172
0.440223249823399
0.434936239481564
0.432168608752766
0.435438934137287
0.42774505016605
0.427701162160873
0.427625117032964
0.421772492073105
0.417231471110647
0.417671272592348
0.415679619002712
0.403989107571945
0.409817168758549
0.410144399185157
0.402263829576645
0.396640820773897
0.396108028477159
0.400657178007168
0.395733294089204
0.394781012429068
0.393118385182223
0.391790898948304
0.396616723201865
0.391281200089054
0.38506477469274
0.382899838019608
0.386463696960882
0.378953572683461
0.375094007855648
0.376543888601843
0.378520294969708
0.373142600087458
0.369248982220707
0.36693578945303
0.359375478383256
0.362862284112034
0.3645478513996
0.360576920090771
0.353081862836518
0.349117016770677
0.353485470898488
0.348917060070064
0.346936748698572
0.346610753590138
0.346036727630616
0.343903431563444
0.34114407830989
0.334631891267036
0.342246261535882
0.342663155069745
0.332777567083806
0.335481599303646
0.335516209442932
0.329516744756368
0.330760445967039
0.326931049382969
0.323806532692734
0.321661295524565
0.318159418907189
0.319371574997504
0.312969318828346
0.312570074318785
0.311751468512386
0.307083189648608
0.309354532913892
0.302252119977363
0.30414552091572
0.299385849967896
0.300419062066016
0.300229107025363
0.29701228282725
0.293298863624717
0.287976382156331
0.289939769980695
0.290921330643412
0.285722319731279
0.2922787100965
0.291249131070997
0.286790415550738
0.285206787333688
0.281834271869451
0.270401485938459
0.275788868324766
0.274054452472716
0.276838774182921
0.270375930092916
0.263801815085092
0.26809581026538
0.266294217366059
0.264136768294307
0.266465032658481
0.26218771064975
0.260714722673521
0.261312252512335
0.261648008206968
0.256926868166046
0.253883507207207
0.254481059961103
0.259571683845282
0.256695199614741
0.250523379226686
0.252919319428546
0.253840913971182
0.247851413113648
0.250937870382373
0.247689527608436
0.249505561543197
0.252395850683614
0.248843336725998
0.24492217417552
0.241675241981894
0.244549711017567
0.241427362743214
0.238729287221495
0.241317959429497
0.243707609642297
0.247434978527374
0.244148549936755
0.241531987842559
0.23806609803733
0.23834931023207
0.244011650373976
0.245221058288708
0.242884552552992
0.244602706685973
0.244144439149837
0.24909565580501
0.24623096138783
0.249852004850195
0.251095845029198
0.251363504788725
0.254487963295424
0.251817223558788
0.252492769913363
0.25716072635727
0.255989138706908
0.259598890694756
0.25438726287238
0.257384851444239
0.260500308630689
0.264589867716537
0.264953637911337
0.268469439080099
0.268341437553676
0.272808857174678
0.272725444846843
0.274223652434031
0.278246044616878
0.27110533904058
0.274732149711152
0.28013831476383
0.274442943017443
0.28382580997208
0.285749410078523
0.285670460300421
0.280525037538795
0.287338336855257
0.291378270611369
0.286677902732735
0.291878403726263
0.295872438029934
0.297102108748671
0.29914832780182
0.296512865278168
0.303798655389785
0.299669460776129
0.303851753944897
0.302206148533561
0.309763957588758
0.309981329673315
0.314410538205015
0.314879002103981
0.314310779019077
0.314716153956628
0.320148881712406
0.324051510094835
0.325922082014418
0.326839349824946
0.327828755875026
0.327952835659817
0.336512044667912
0.336429455000355
0.340461672773061
0.341493408141683
0.339864239504194
0.338015652034481
0.341235722308816
0.341888049428515
0.347327297893847
0.342676064765127
0.341124742294743
0.347197040308696
0.343097225702123
0.336296007978707
0.346034598223387
0.336812804053914
0.34428901586581
0.34102577632778
0.342410181567445
0.338619214125275
0.332541978966657
0.337014570759039
0.339873711148258
0.333211276901673
0.335466201130556
0.338468671019739
0.33382217703019
0.338669181932453
0.33373016814764
0.328789809774634
0.33428325201674
0.332265819257852
0.339732420562718
0.326413107000881
0.329065470165666
0.335256080732437
0.336659883995841
0.327132715778078
0.333566278768722
0.330820077384042
0.336671609669957
0.329850735639107
0.325766091749684
0.332798745687067
0.335214218323227
0.329351656107758
0.334066059208385
0.332132852818248
0.329929816819789
0.325814653959915
0.329630184808497
0.327519341006778
0.333184502906696
0.329630015240234
0.334967415508454
0.326244346150469
0.331008759641056
0.329621927883384
0.329937192813763
0.326325729581439
0.328130376502918
0.330894701926261
0.332203622805357
0.323848335013401
0.326599761037216
0.321097957102483
0.320132349191238
0.310827937116984
0.314782003124725
0.320305633487625
0.319947820436699
0.310325460377035
0.311872617987847
0.303157007720986
0.303739924212485
0.301109306459177
0.292878408417794
0.290137937066146
0.294725606571161
0.292651716973383
0.289253436653205
0.284644278521824
0.282423206904068
0.284744494618078
0.284166129177799
0.276080242708474
0.276259480698479
0.267413777718207
0.263566195981185
0.266643682590506
0.262296507081011
0.2542940639131
0.259554117709288
0.252672148041021
0.252137984813491
0.251738050239139
0.253376280351799
0.244943369686339
0.248855068057477
0.245280426159086
0.243303446652626
0.241487965997239
0.243705550116838
0.234412985974555
0.230251888401791
0.231731839431468
0.234042699814342
0.226870099853016
0.226315571654991
0.219747462659858
0.223941520921395
0.220380186761093
0.221911623399412
0.220490659287005
0.221901159173535
0.215748208726251
0.217950697264764
0.211395468171168
0.211610704001253
0.212125361939929
0.213645570946551
0.212321066959417
0.206753111234364
0.204658820201071
0.204980772516773
0.203338643628426
0.200209619247178
0.199815660360691
0.200288576761517
0.196740751343908
0.193546798820597
0.195116521163984
0.196947174175335
0.195953722600229
0.199562924896701
0.191276344933682
0.192731115272638
0.190462410638751
0.193274618639938
0.189596204920259
0.190452827546556
0.186918176361383
0.18640236777716
0.187617192511567
0.183822911813591
0.180211677486628
0.182950900567834
0.182706303836652
0.179380020612881
0.179172778678873
0.185104376722477
0.17693238364627
0.180851821087141
0.175846028700642
0.176140386409884
0.173823013346693
0.175875151774344
0.172521341048351
0.171814709511022
0.168163088998054
0.176592869277009
0.174329650517852
0.176186994833538
0.171906160065684
0.169141204231008
0.166124858542758
0.170093105696938
0.164144016234793
0.168101012585314
0.162131432341661
0.169391111293703
0.164535515712937
0.163196179037532
0.165131650782524
0.165075942194173
0.161886935866773
0.168237239941574
0.165583904284191
0.164711595108973
0.159775598033432
0.163029314657617
0.162610016619701
0.158453002187553
0.159426446354298
0.161444122642688
0.15650035341434
0.158470801410383
0.158933041869159
0.159170988975689
0.155108247624576
0.156653170673939
0.152590421459961
0.156661567391257
0.15338749504408
0.158823393938479
0.15142272603023
0.155725297481272
0.152368437195925
0.150193625610819
0.151756883675988
0.155436835975604
0.148590157207771
0.154803660955376
0.148619389178451
0.14808837658035
0.147348161474419
0.148036786231556
0.145307613590973
0.149185298793209
0.148106976489549
0.149488211249409
0.146411541165773
0.147613939453348
0.144909770346518
0.151717614389799
0.146120265397406
0.1447511810042
0.145954323745611
0.145274256895258
0.144658633458427
0.145472361025696
0.144592053291338
0.14484020286333
0.139659118309943
0.144453727347007
0.144804134675297
0.144310957153817
0.138792186852734
0.145297506573168
0.145423274384657
0.147134938076547
0.141820725495287
0.142102982739436
0.139792222733794
0.147605928566068
0.141317374670627
0.13884692656023
0.142010135551535
0.143496327445442
0.13644287495577
0.141226691219583
0.135491410711938
0.137712773092794
0.135847474120233
0.137916039993139
0.133965631720951
0.139512390025662
0.137078792726055
0.137285724640338
0.138346469030543
0.139192445109733
0.132788025259768
0.133789384389165
0.135671505427235
0.135453832376282
0.128871310613386
0.132112820912609
0.130263079502264
0.134999839545991
0.12973002869897
0.130519102177411
0.129414645374264
0.130891761122608
0.129883684458404
0.129182390257495
0.127287512989336
0.128353094987574
0.126232124489602
0.128033012235524
0.125122433437969
0.128859403400144
0.123855709574439
0.126244700028205
0.126004094755034
0.126677729443967
0.12080426181841
0.126540631949623
0.123442086655692
0.122415643729791
0.119608376483012
0.125748638179724
0.118840320432134
0.12175180721919
0.11814925022597
0.119251046242902
0.117818165444502
0.119056340628924
0.120442258877927
0.123303065061964
0.11419559080345
0.118270514734086
0.116829955630978
0.116349244718647
0.114258422225414
0.120030431304351
0.113733644720384
0.114885171668091
0.114726917885337
0.115281579608375
0.111996194077577
0.114748063334469
0.107588705317295
0.111268782722424
0.112840064286995
0.1122241135988
0.109283404003786
0.112798240395156
0.105094041916437
0.108693347650411
0.110593049255608
0.110736735637989
0.103473923937636
0.107453612362915
0.104114248604953
0.105643600723305
0.102534171420967
0.10535807554396
0.101285241293028
0.103887149111073
0.0999759644916247
0.0994410224108532
0.0983270715437243
0.105010636394134
0.100500335349749
0.103086505070646
0.096971891907932
0.100853204578603
0.0961642784575349
0.0999036194404791
0.0939565763978244
0.0981572473210665
0.0967997549911367
0.0971771693803839
0.0955208512489314
0.0962052323047241
0.0944037411365529
0.101201159478348
0.0940197980829059
0.0959976297066577
0.0952685174739583
0.0952952781531356
0.0917233557328136
0.0948341908195197
0.0922170890385128
0.0943518074550413
0.0877747945854232
0.0917053807892837
0.0873039534579459
0.0922198926318642
0.0887289882827581
0.089696726957006
0.0881109071704955
0.0917816722829406
0.0863686085033024
0.0875690258256669
0.0864599144626994
0.0900758691270782
0.08281026664033
0.0875135211235231
0.0857380622991247
0.087491830168942
0.0856356099855013
0.0908956708986621
0.0846374746807604
0.0845947616340407
0.0853916117254181
0.0888705083885556
0.0817656570818403
0.0837649962185443
0.0809587907463547
0.0854249821554711
0.082743059943231
0.0851202118069725
0.0802312547204797
0.0811502910274072
0.0796146378173195
0.0795648937881223
0.079031318181227
0.0821684520254358
0.0746386518299231
0.083554700957037
0.0780511854181851
0.0800002198996939
0.0787672385655083
0.0822689458910822
0.0764372926421389
0.0826727346227563
0.0800864494105555
0.0786184686306077
0.0765911137795047
0.0787494422788818
0.0758820513267909
0.0781802331460276
0.0733311127994343
0.0803812735165204
0.0737803626691565
0.0811194863912114
0.0770109076664173
0.0822910090853078
0.0778621680768444
0.0762252125282584
0.0758796722729301
0.0774180872393093
0.07647827279883
0.076276982337217
0.0754575487883722
0.0793005547425118
0.0777447372753658
0.0782802470884945
0.074625969569358
0.0784568703113656
0.0741123157236497
0.0749866121896545
0.0722706375327803
0.0720414934492139
0.0712675094691332
0.0762848600485135
0.072652186327821
0.0775275316021491
0.0735844445316754
0.0750928738221826
0.0689350786991311
0.0739148238305345
0.0701512585722711
0.0732356685005057
0.0694353499646434
0.0710257615207645
0.0722856395398056
0.073277582260813
0.0687306114963302
0.074809036510176
0.0716948476198028
0.0746091568181437
0.0688468962731107
0.0696331442065913
0.0712821613911792
0.0757685907042529
0.0686962269742214
0.0711392821999121
0.0704799267626517
0.0699458610324929
0.066596694977049
0.0696735239208881
0.0660912924212152
0.0706111756177355
0.0685070928689037
0.0685276903416076
0.0671144522018984
0.0719614795940436
0.0645847579379738
0.0669667001698845
0.0637116222889757
0.0685334016885465
0.0657929065147295
0.0700810799571102
0.0670376017746445
0.0664149814454988
0.0627216249125698
0.0669265800469903
0.0631724029289009
0.0663609402314898
0.0643959844693712
0.0680805547893387
0.0643506486424184
0.0669681319769536
0.0642050801033733
0.0654910595505543
0.0625288534918304
0.0653873717571694
0.0613177423186583
0.0647729017411862
0.0609820186612092
0.0663565041412006
0.0629872861845701
0.0633883924141972
0.0606045087527211
0.0649360390633089
0.0634111894166484
0.0667023280332099
0.0611046265693312
0.0635336439954956
0.061840841973833
0.0632090536245627
0.0653524442720847
0.062396798415382
0.0599348333407
0.0622451041215778
0.0611666387003849
0.0615717441335894
0.0594715081602931
0.0618032378978266
0.0592252577396893
0.0594039545320005
0.0601509051357448
0.060240892961224
0.0584612959750901
0.0608692876610239
0.057270396583861
0.0566396041989674
0.054572443523195
0.0590316345063689
0.0564641505925767
0.0584680775754634
0.0534547003672902
0.0599592002503725
0.0554001532635729
0.0562632668315476
0.0543612844345094
0.0564658136215532
0.0544618864481968
0.0567243128770218
0.0536450268691444
0.056153641660589
0.0538302966051579
0.0564163210271003
0.0526617664963612
0.0559529658843215
0.050927931560561
0.0570797199607955
0.0519691703334127
0.0514843898565738
0.0497596092482992
0.0553788397442084
0.0523392432830007
0.0542538580411062
0.0498076961427822
0.0529803725202119
0.0494646841759395
0.0539909409578608
0.0514646007385204
0.0560087504550639
0.0485866498410942
0.0535257516439366
0.0491304123839427
0.0526236560022749
0.0503301919076115
0.0529459960875785
0.0477344441045379
0.050818350404443
0.0491087432332237
0.0492857299255546
0.0470460983262375
0.050974215335253
0.0488709613995511
0.0507606126398368
0.0464391803383752
0.0510959188183568
0.0458710531084313
0.0497936453745587
0.0474014026153649
0.047662632651604
0.0469777114473467
0.0473812043420638
0.0453668757611843
0.0503435165717581
0.0454338614435165
0.0473381676758049
0.0452025542316802
0.0476655656000517
0.0447990335188612
0.0492308715675645
0.043081954058939
0.0431059824406983
0.0453846012927592
0.0470716062679439
0.0430632971926046
0.0470148061160585
0.0454623997336081
0.046072874943108
0.0428622142437553
0.0467474759027117
0.0432321253260949
0.0468291170871273
0.0443100034322643
0.0449078540876029
0.0409728614928643
0.0456974536583842
0.0418992157293839
0.0428720495132606
0.0413825777229743
0.0446913028063156
0.0411583837845221
0.0426188472756577
0.0411865222966999
0.0442857839439706
0.0411876224817177
0.0433499420942495
0.0404357654517357
0.0445175087541878
0.0390284628795293
0.0422175432769725
0.0389789340573867
0.0419938613070043
0.0426077367652543
0.0470752930268711
0.0411605778118493
0.0448744350420127
0.0380163483821034
0.0429394856309221
0.0417726531840152
0.0428070712227091
0.0375768250183315
0.042949753080825
0.0365348049855087
0.0395974624114371
0.0347868969108203
0.0412428887981826
0.0382283073293387
0.0465751664729102
0.0353549157014964
0.0430053563231178
0.0258618997540639
0.0351392949584625
0.0375741146909124
0.04536017365801
0.0326390923071067
0.0353196835929531
0.0329898508246229
0.0404034964441175
0.0311014034693773
0.0421708849945386
0.0324435543958191
0.0431302194171038
0.0304940994226619
0.050771083806721
0.0308465736848867
0.0426268852842299
0.0364699688173759
0.0457218212191257
0.0368992568003082
0.0452918975244988
0.0291493993467742
0.0387332195565821
0.0288627604103455
0.0425423084237374
0.0238459394656194
0.0454293862908266
0.0258532423139626
0.044706740111476
0.0248943792575828
0.0473936696077032
0.0196360253533861
0.0459063339127042
0.0185915350023249
0.0539038165103358
0.0223161573383872
0.0609530646589177
0.0183103375061008
0.0538225886971282
0.00750689675187599
0.0561279000611865
0.0116453989284218
0.0718475168771739
0.0151859748200364
0.0625268597607251
0.00266148137280774
0.0715893490772379
0.0142703978753465
0.0680095727797591
0.00552325242461465
0.0662827145050709
0.018489332367093
0.0544557335515107
0.0205109752080054
0.0508597454804081
0.0373417650723263
0.0352400140680889
0.0442333232940153
0.0287914698884151
0.0500890489839985
0.0270442534169794
0.0541933062041886
0.0248504660882411
0.0492818187399179
0.0310897235051318
0.0438444053225381
0.0342322916484403
0.0346649645925264
0.040132140041896
0.0352307051681295
0.0384459013561774
0.0342257889844525
0.0373206027647825
0.0372486483470175
0.0371194743758899
0.0376045016720043
0.0355374231541968
0.0373709321599443
0.0357822040047245
0.0381769280116635
0.0383403423955734
0.0354427594730672
0.0377644384326344
0.0349782474913226
0.0374529421359036
0.0353027898408353
0.0347849794547333
0.0367821022472172
0.0380348900116021
0.0367468574823806
0.0348234000431413
0.0360011131765107
0.0374524505127349
0.0381552294710294
0.0360154850379916
0.0355219876582311
0.0372792362396464
0.0383668300390621
0.039551251661663
0.0344245174852014
0.0384541861813422
0.0383805488597689
0.0374113486677641
0.0349530136709135
0.0396037618987905
0.0384945486664446
0.0376211753518489
0.0362009888751186
0.0383524120028161
0.0362137528646095
0.0392794802521648
0.0383366464423295
0.0394059723284408
0.0349305615986288
0.0384983024005501
0.0355326302061764
0.0369772260636226
0.0359075568933413
0.0379550095222969
0.037401836600043
0.0358137466793988
0.0393080261491621
0.0355110750323364
0.0368458012152268
0.0369701500786853
0.0378404692491872
0.0389886762213835
0.0348796868304639
0.0359518218702452
0.037261058110195
0.0371754878236489
0.0358456794069717
0.0371611874052775
0.0359922947761226
0.0361905202843051
0.0348398255648717
0.0360776315565796
0.0370623308597326
0.0366512058578979
0.038669616901761
0.0397464967666537
0.0347182743408922
0.0366633327933749
0.0382960905857831
0.0366655288760322
0.0354562652055371
0.0375190626872955
0.0371367456861287
0.039456343043778
0.0368378358468511
0.0367041447680845
0.0381972640345492
0.0381746286741621
0.0359321562596477
0.0355909675754167
0.036000287139692
0.0373133741613931
0.0352220383526567
0.0382651769152291
0.0383909198779174
0.0387217048244168
0.0364005798047593
0.0389660993048056
0.038135666423736
0.0399212094629909
0.0371726915594402
0.0414028111966707
0.0387848584489292
0.040756075406633
0.0380501674262769
0.0396077371102566
0.0391915667486391
0.039827060631251
0.037224780398144
0.0398742708707421
0.03696009095468
0.0389745404274958
0.0376097978824475
0.0406497562278273
0.0411696501418398
0.0404756917698128
0.0368487012196166
0.0399159110890267
0.0373906788326288
0.0387520177865593
0.0386961651638106
0.0406594596203314
0.0388312387959047
0.0403424861640783
0.0381668632209393
0.0379551872915466
0.0393462435666168
0.0410540027571419
0.0370588295522721
0.0397560064011478
0.0392183943065118
0.0405155501726866
0.0405429472878836
0.0398912005835061
0.0396105368426686
0.0402763218850706
0.0409989945156337
0.041122344685541
0.0380377393017121
0.0397496667392616
0.0384966011014813
0.042144180158414
0.0375258181799297
0.0395121722102575
0.03798871452747
0.0405454891167694
0.0386686939587812
0.0399181268044761
0.0379498998437496
0.0421935734289055
0.0398582394671579
0.0426215035398345
0.0408435986574174
0.0427143827419762
0.0397660691571891
0.0400196161552878
0.0408985868900618
0.0428282839883479
0.0404249882252047
0.0427451206776795
0.0405760162960334
0.0430557895945102
0.0394763037014857
0.0431950568056049
0.0400021882396426
0.0416470070197141
0.0389867919915848
0.0417556770451463
0.0394245848078056
0.0427087826128727
0.0394156298506818
0.0421892070727148
0.0412712241494057
0.0407871879225965
0.0410312012322945
0.0428661330806194
0.0387891164900006
0.0429898093456843
0.0403298324811908
0.0422614069761318
0.0402531984596384
0.0404920170795062
0.0397218225838778
0.0425290100445611
0.0392755393136245
0.0398699729402808
0.0377647753693515
0.0404885430780362
0.0371967381105095
0.0430197762161423
0.0394548632680428
0.042623700552316
0.0385759138035249
0.0397821285603416
0.0409887265873042
0.0398007984125687
0.0389383691952668
0.0399291053012654
0.0380863721054297
0.0407290673935885
0.0389929651676556
0.0414045113919966
0.0366018921860143
0.0396338728556414
0.0375626997932832
0.0395961787797387
0.0384786958324522
0.0402807894674728
0.0397347157733939
0.0401164300795928
0.0392550057677163
0.0409886649132108
0.0397958291161928
0.0412010257071312
0.0375699425020331
0.0413145510086391
0.0396446358057717
0.0411907846731417
0.037242768677563
0.0406516006475769
0.0339265896781847
0.0366364809856083
0.036557755954758
0.0384515793261299
0.0386338924877187
0.0416138390101823
0.0376716984555379
0.0402383135118529
0.0381017052449794
0.0385878581136441
0.0364233314669083
0.0402785801333336
0.0382663615949447
0.0378029893689589
0.0359919795356666
0.039315877579122
0.0357823147387316
0.0385395321502413
0.03569263446135
0.0382450945154447
0.0374663943724606
0.0380825236666649
0.0355217114842655
0.0384622253698758
0.035532620798218
0.0403666803960393
0.0356717329989063
0.0385237311555041
0.0350760117281407
0.0378078715946547
0.0382700785690321
0.0372881087633589
0.0359507976708772
0.0399108936302356
0.0347572739403996
0.0353534103791862
0.0360884904349527
0.0384604553468889
0.0361083740281222
0.0356210383279881
0.0374200134983724
0.0393201772249422
0.034980852030891
0.0386247022455753
0.0365979451099433
0.0378648445647757
0.0347725631003878
0.0395342385437852
0.0337095925522151
0.0390566193497026
0.0364349995225143
0.0384776862926569
0.0368590539284631
0.037848848367078
0.035342073613359
0.037530539053507
0.0342892696890795
0.0374032326829064
0.0363456711204099
0.0380348299281472
0.0346541331796699
0.0346194336474122
0.0365986196027245
0.0380507936124187
0.0347997028582715
0.035971228477542
0.0360400725975799
0.0376482174482154
0.0370321857012357
0.0372387126944713
0.0352882267345605
0.0361812525442939
0.0330961912076987
0.0362435976751928
0.0355046973113326
0.0359373671332115
0.0323538528217448
0.0357454238472684
0.0358333845590024
0.035426134819625
0.03582886672015
0.0357513832808483
0.0343445264626348
0.0355980150645097
0.0322920883493477
0.0334989161822246
0.0322273490019631
0.0365121095717378
0.0341520972174655
0.0336607091346112
0.0344222854854512
0.0341972026784784
0.0377428193098187
0.0345835500995905
0.0309791840556409
0.0341499182771719
0.03138463076606
0.0323404944547816
0.031885226150757
0.0340326569764563
0.0316635905160958
0.0344253203493337
0.031478160360566
0.0333629549167207
0.0313992620957566
0.0329591856909325
0.0307788115844062
0.0329575601149695
0.0335272725896395
0.0330083641393793
0.0311007226973193
0.032540916820583
0.0303559275930788
0.0309082084149149
0.0322351334174821
0.0336585662991313
0.0319909624453697
0.0310143722058461
0.0268920086357677
0.0368444986325021
0.029688884749437
0.030996188111611
0.0276940013711437
0.033251722276878
0.0281817618541136
0.0331785825734506
0.0283558546946668
0.0355891356518344
0.0305385217724356
0.0316685210845405
0.0292143792182611
0.0318168289997685
0.0284436117064153
0.0313383389552923
0.0281947510589122
0.0312341780446038
0.0305789241352537
0.0319557416095796
0.0284084975417843
0.0332891320425273
0.0299871053831434
0.0324500749611257
0.0295737417661087
0.0328320964795526
0.0267590326570475
0.0369530527790116
0.0311414291222115
0.0325644222513802
0.0286576029977439
0.033653996669392
0.0276942487688984
0.0309289783109277
0.0274050136235972
0.0293959790693647
0.0293305657053061
0.0299783187639696
0.0286013070216921
0.0296429302363006
0.029146426286209
0.0315292377267635
0.0263911093741464
0.0281467100010037
0.0259948603559751
0.0323398738424152
0.0264888603896348
0.0313087712066831
0.0264382066576336
0.0320126968478744
0.0275450278031838
0.032664429211373
0.0296319233291239
0.0242311326785468
0.040308248257639
0.0271360219362914
0.0295058758217284
0.0272948861937686
0.0295555587628094
0.0300092259107764
0.0296876423351297
0.0267699941289598
0.030379165759183
0.0275696086011955
0.0268818328543668
0.0286832647195179
0.0286333241002284
0.0283556282837853
0.0292863308901699
0.0287455264120764
0.0289975740917632
0.0270272977421224
0.0292699236347443
0.0276235160244955
0.0280584765806154
0.03492747307192
0.0320905993882132
0.0278181412802481
0.0343583234054049
0.0144275475662647
0.0383575070893995
0.032195128793591
0.0295335950634331
0.0301195778950288
0.0276426581617222
0.0289448014214644
0.025732590420056
0.0303950708773502
0.0227013418953423
0.0340042022178214
0.0242875985866766
0.0331749849985227
0.0259694675772876
0.0315786023299794
0.0276579737141775
0.0297935879584788
0.0271782392720963
0.0296528492710805
0.0265555430958952
0.0279195688301268
0.0264127674912922
0.0257627237359261
0.028067906404682
0.0257389497827331
0.0222497919069102
0.0327127885934389
0.0260516909501183
0.0302024480802252
0.0283101139497956
0.0291163395374468
0.0184437576894321
0.0447734445165921
0.0208164797443013
0.0331069039355878
0.0227111755847698
0.0311250444493733
0.0246374626524221
0.0317353144608927
0.0249459538108821
0.0295591281484027
0.026819817945516
0.0294229417887818
0.0261874393904725
0.0288949980814128
0.0269355229279416
0.0296965220979625
0.0279470577310694
0.027765523963537
0.0263244103109984
0.0244891501334723
0.0333394315256929
0.0208101917800127
0.024043369463493
0.0415585081289986
0.0293874681291421
0.0380473458477591
0.0274543022661047
0.033760085082583
0.0256612248530851
0.0322413778647515
0.0228027637651062
0.0354708325741795
0.0223536400559446
0.0318676721234173
0.0236158844129528
0.0321375794996264
0.0231393008689787
0.0306364811220897
0.0214725287214122
0.0345394351701616
0.0204561346828481
0.0333695854677736
0.0205967501610938
0.0348187842570252
0.0200197698571423
0.0384939292211206
0.0223474579621735
0.0421124666448982
0.00958339368948888
0.0406658551467215
0.047057774810197
0.0227549339369713
0.0367557029137812
0.0219889322474307
0.030361492567428
0.0264161755022957
0.0258752598789427
0.0293078894414378
0.0301229111494084
0.0280933507000828
0.0300121540212419
0.0280774636394392
0.0313406379670983
0.0263002967172936
0.0156883838080859
0.0474169935468748
0.0305672109657032
0.0356143296783277
0.0295818529460858
0.0184158014939502
0.0469267183190472
0.0288966310000272
0.0339128098497106
0.0321686730000544
0.0297151931276137
0.0296842507157866
0.0293723551108337
0.0286715843630404
0.0281505672791859
0.0323210234642893
0.0260645798658072
0.0349299016367938
0.0235135376160568
0.0358850415126612
0.0273320505954268
0.0339948949753002
0.0369137079947772
0.026290384708918
0.0324942158178754
0.0340212838241772
0.030299183310569
0.0319690244654187
0.0294146912257433
0.0296748084639565
0.029068870295567
0.0442780559858658
0.0254059346942374
0.0386059777399094
0.0389843326792059
0.0267863679208614
0.0310222823092869
0.0345276978609371
0.0386315631701003
0.030570233185267
0.0142571539424893
0.0639459536847637
0.0183922775718644
0.0594853428072825
0.0210113729448475
0.0450166935991025
0.0216041350368434
0.0449800595595009
0.0159410086071544
0.0510002685791692
0.0262925032383256
0.0419822574724034
0.026322892028751
0.0390188819378537
0.0429849641678045
0.03590390126158
0.0365251781994987
0.0351946822669616
0.0293557358403132
0.0391502665964146
0.042721834855906
0.0104067764926317
0.0507847045275819
0.0509330768274233
0.04661831850256
0.047742281806711
0.0104744147167228
0.0692247228004636
0.0361077881133703
0.0430775292003053
0.0344437007270414
0.0432187788613768
0.03686403699121
0.0219313479547356
0.0556987306180634
0.0447253382388189
0.0319418706031477
0.0533598883281816
0.0202183014531688
0.0525967496328123
0.0426878341096856
0.0449018556260887
0.0340160924102579
0.0534665123259051
0.0181400836800971
0.065860826105586
0.0568063104905768
0.0361422921455958
0.06667686925373
0.0417057681738809
0.0570257316437955
0.0439629810527992
0.0506806186265235
0.0428764825905977
0.0587203048995275
0.0510196517924156
0.0418900525942934
0.03486665543812
0.0808485587678052
0.039689112228393
0.0606725601373384
0.0481544230463462
0.0368671459748238
0.0517834207033856
0.0910450041477112
0.0694201409291047
0.0629586604501928
0.043095660509169
0.0736077677648686
0.0598812265174564
0.0555292218300493
0.0613212384637289
0.0575193013463532
0.0627782128596196
0.0510385283743524
0.0678432938839478
0.059901214421394
0.061590140609753
0.0699033349586625
0.0510314671080677
0.0634523025747293
0.0674078661182385
0.113411970440264
0.0503423295634812
0.10322216729607
0.0812008882169066
0.0752536003533638
0.0750535890928069
0.0660110403724066
0.0804125115983268
0.0776206687089854
0.082630956546988
0.0671862205314031
0.0902675644063436
0.09476795138386
0.0642262107560758
0.11188460392625
0.0750015670865029
0.105547414250505
0.0156550956694339
0.228800234711564
0.103318959719275
0.111626748956782
0.106743286927233
0.0712662790378722
0.186180243506957
0.124287194558967
0.129220090658444
0.131016843319599
0.133305579496337
0.133696347432614
0.149921081038389
0.149169036444447
0.160343245250401
0.167704649373346
0.151280061186637
0.157911344052566
0.220688829994126
0.201452211357128
0.21173310176552
0.178052789923538
0.206264310077992
0.214164130302237
0.208990659034324
0.214422884097458
0.223914059641633
0.181706474422183
0.305186252252146
0.228501799830025
0.260398490150973
0.229749593369496
0.302042691353616
0.230368506819047
0.304575728287292
0.295631209886656
0.281966353340121
0.294742247356039
0.286842652639981
0.310957569324657
0.283348499596985
0.334824960044037
0.334633363100044
0.32530210124777
0.332866913493416
0.331791925577103
0.346488861019372
0.336039203864543
0.361329132941816
0.333651545647426
0.392917919637165
0.339842048482704
0.474368381018098
0.389684038779884
0.349697872897936
0.369605821298502
0.336388209017814
0.394871997172044
0.36522191396877
0.379012095194938
0.393426209756075
0.345261472023057
0.377043534566606
0.34967708786846
0.369348334784765
0.349912921291749
0.382055807898643
0.339818765633111
0.380136297138549
0.36338229505726
0.336922043783758
0.446350216580386
0.353091848791174
0.360946227900782
0.348790096574288
0.355387161098419
0.345490810625789
0.348675598453677
0.330591108253541
0.368233439030183
0.328811327044452
0.345258765424101
0.311540607506853
0.335593411532098
0.343990837881071
0.305100081655278
0.317344639890658
0.294607812363233
0.307253234432961
0.28495135615119
0.261895345286894
0.340297071168961
0.273301887667066
0.283805195906065
0.272163702791776
0.272322934557835
0.266558074806519
0.262559749602077
0.257725526496859
0.264360095708187
0.249206078278487
0.261642558798895
0.252855646063935
0.253338485358738
0.242438685974751
0.248970190563084
0.248241232432417
0.242293726282846
0.245326939192869
0.24122210324803
0.243502729351621
0.23876311208874
0.241936269209825
0.239169488441106
0.237031008454799
0.244085885524979
0.238384724081629
0.238259107366598
0.239120899472178
0.239610496209584
0.239774275270567
0.235824837462372
0.243043603165333
0.235910307250641
0.238727259161281
0.238682496609279
0.241948778095539
0.231304190390122
0.241948629375253
0.23336457514101
0.246795660372604
0.229698746056895
0.248700086141313
0.208890905816582
0.265517406206148
0.26489684519112
0.228039567005807
0.24829077776558
0.223388414100124
0.245960275425044
0.210268059522117
0.258249343708654
0.253285063916362
0.232308556407236
0.238193008809805
0.23428037704873
0.228563043134486
0.25025829031051
0.223964038666051
0.247163236263196
0.209540999474151
0.226764695351298
0.286683608641905
0.21441413332144
0.315541358582216
0.236792361775591
0.239910441208716
0.203405831238769
0.28035470928042
0.222132719999804
0.25201260994644
0.221152097401673
0.251448143443186
0.251660753547121
0.227121610838209
0.239480923564682
0.224056647748743
0.232704946947467
0.259699900569616
0.227795795151174
0.217440524144079
0.268341495956737
0.220924503971545
0.248622624063081
0.262837771700929
0.250641175178861
0.216938321133803
0.219773659790791
0.220075679521184
0.195444972834193
0.263541572032619
0.211513935101689
0.218538101056144
0.211674852775571
0.194828190614631
0.209725502471278
0.195696391359757
0.221275892220574
0.176361807075953
0.23747060083453
0.177723236889952
0.194540615221497
0.198504865076478
0.193169771850154
0.225606681821605
0.197968282162095
0.179814578991321
0.176247106516645
0.217968736097804
0.169705292142357
0.19609335818412
0.175038443473877
0.163838463644686
0.192195907380936
0.167669371245334
0.162162907415687
0.174842337415193
0.146480314200582
0.193110400048048
0.177865133151425
0.193524230267383
0.168794512636491
0.148360832075472
0.156248914924968
0.147907952955509
0.158214040961933
0.13942603083822
0.147915797154251
0.171381640428085
0.111490682564452
0.193558349541768
0.153810517459044
0.147849704568984
0.149198638738969
0.150019929015894
0.144471141024993
0.156398446632108
0.165305555246983
0.165320075094968
0.141984604656156
0.18062079405548
0.146346883609629
0.169915710918319
0.151580340739689
0.169392076752209
0.15813665734243
0.178919944775795
0.169655485715709
0.176053996352373
0.176193028110565
0.186563490712333
0.165838999783792
0.231247173059714
0.167098592021607
0.224543545236755
0.198170007960431
0.236109590392564
0.226971075478394
0.211375869721365
0.224426778790941
0.219569224322731
0.225563058755099
0.232168764333516
0.213464550384191
0.278143246576385
0.229054889494694
0.24758377240707
0.230237373961813
0.250029197681444
0.234593548497017
0.266824609118014
0.252153750746224
0.265570505763223
0.305639880520391
0.253220580723563
0.275128653017336
0.251182082822154
0.274294333614925
0.27222458801105
0.263264932543563
0.272224689800036
0.253833352757055
0.292184617516099
0.273521782526076
0.271350406171885
0.276859113834439
0.272947001318051
0.280171318552512
0.282231099836275
0.281212631433235
0.285728211100219
0.274457025754025
0.292548580707189
0.252426668330735
0.336217050219983
0.301922492136397
0.285212848301895
0.298752578706447
0.291869190323184
0.300276687002915
0.288364985941612
0.309628376456081
0.310070892581431
0.301241924747921
0.309274643189929
0.303130582506844
0.314532570956537
0.29923499891162
0.334882303447558
0.307399931925231
0.322914081293372
0.316202702227818
0.294903603692667
0.36676679281994
0.309956193130021
0.344647852664245
0.32051686443075
0.330523889572089
0.320848507344173
0.33414804404886
0.324375832277552
0.337660664525825
0.325545565110822
0.335107898220485
0.333186596090592
0.326933437946027
0.334565920843851
0.324025506687578
0.347355998670556
0.333090039787068
0.330404055034345
0.330525517144449
0.330025238339297
0.321240427208186
0.333732495902483
0.347166584053578
0.321048181094668
0.331975658475177
0.318239911376862
0.337684782227882
0.340239381463242
0.321194832994885
0.330627050047484
0.331527761410001
0.318033504544501
0.331047150436522
0.31886788051046
0.356200627485004
0.329182259715885
0.330923858605653
0.326901892840565
0.335936801179109
0.330431738252002
0.342321057626086
0.336987589148609
0.343515430836966
0.33615857157168
0.344286228933453
0.337827190564545
0.336530586484079
0.339687166440406
0.340258753203352
0.345428433062535
0.334588039001588
0.332318919952799
0.335732926062635
0.324512449417677
0.337585971050513
0.321666515514664
0.324982597587754
0.314159106710763
0.32376806994803
0.299726979050381
0.32714999179355
0.30754801870724
0.310012497452678
0.309359059484187
0.293318301640618
0.301084869993282
0.293579206007203
0.299448455559346
0.292299012058568
0.292942866575224
0.289246979403472
0.289342140013563
0.285639645039143
0.289135887653219
0.284110975285118
0.285749567971881
0.282726185147034
0.284354839538188
0.285672430296594
0.281119733868861
0.284200168234532
0.280522846639632
0.284555114140159
0.278290867754147
0.282098163475516
0.289698953986982
0.284566955205553
0.287075723594426
0.27776863940035
0.288069332819402
0.278025970901246
0.283573417054476
0.277709311427341
0.28092171357872
0.273927268554075
0.279615417638743
0.275002007792634
0.274260168516176
0.27619799001533
0.27782610485418
0.277307361056878
0.27865545165245
0.274661375729464
0.282148394587991
0.277833220788406
0.27744475774011
0.277815010671946
0.279931044421198
0.283152061056205
0.277646218365399
0.280532979942031
0.276230349014698
0.279464508037587
0.279191468431906
0.281564454312326
0.279449336031617
0.274736507337001
0.278139839029073
0.276843632262615
0.277265681125779
0.279325904520144
0.277122485224792
0.273549023158793
0.272999807199991
0.273407265917089
0.267312738437713
0.265676233654905
0.263187195899675
0.25970556030357
0.260744338718751
0.255898033001891
0.256904236493549
0.255457773023429
0.250173419025656
0.250595178752863
0.248217041249422
0.247794609863981
0.246001443779132
0.245602684633924
0.242084686720472
0.243916651146222
0.243003887918594
0.239224537126619
0.238199672790848
0.238464071930188
0.237906311325978
0.236064592075833
0.238041696261004
0.239075118135693
0.236668413288131
0.238081957949966
0.235758807017365
0.240868935569295
0.239265509138015
0.239294787930439
0.240132483300254
0.241963461852896
0.242140868863423
0.244824769799107
0.244440367343898
0.245414459509534
0.24711382342026
0.246836063295403
0.249065146158816
0.249707010710488
0.252983531196243
0.254274360890869
0.252553933601733
0.255621838055819
0.254099777794189
0.253556151735803
0.257022902260067
0.256066170395811
0.256982608127344
0.257234886595821
0.255848485646373
0.255624121819405
0.253478216961449
0.253080764027851
0.25583983541495
0.253849666521079
0.254821385711151
0.252501151676398
0.251791338720641
0.249661797883785
0.249385065131434
0.250266173213646
0.24951347650523
0.245221576493032
0.24425813300156
0.246900088246817
0.245285987848921
0.245254934804433
0.243476707936873
0.241239565175483
0.240927048695669
0.240032933292285
0.239560018452439
0.237841052506384
0.237300521341526
0.236034242165699
0.235022205945939
0.235943728253848
0.234783203994356
0.23440929650089
0.234244288569593
0.232915119954231
0.231572780321891
0.230390260762804
0.230575803180148
0.227671242756661
0.226818192631204
0.226563861480412
0.228732715983142
0.223917583058679
0.222957551904973
0.22063239836376
0.218744283023092
0.218137385950107
0.217059404091873
0.214426688952871
0.212217007389429
0.211670318904911
0.207861292824903
0.206690152957768
0.206359526787943
0.206429562793432
0.20459639341526
0.204043456415908
0.20480638918606
0.20220068714669
0.203348378962476
0.203080142344448
0.201714647689783
0.200958426653328
0.199704804033615
0.19969994524241
0.196334607350436
0.19649503223776
0.195592647832083
0.192780428049059
0.190349277694059
0.188250398528775
0.187333110625753
0.185654148636466
0.184168303773616
0.182450564342689
0.180316123481377
0.179934042263452
0.179757358926122
0.179283763479313
0.182186345765746
0.185254032471151
0.187855904619208
0.193893210207888
0.198099426381144
0.201196158741846
0.206089389522714
0.21371558652441
0.221577906360142
0.232675314361035
0.240718875485236
0.249169946115222
0.26193384441801
0.270675823411334
0.281379450448096
0.294999842327749
0.306055728322177
0.312573004737758
0.322086401798963
0.334442088630766
0.343683709819949
0.350019616293085
0.361896163156335
0.370304611408584
0.377915330519467
0.386128488535265
0.390266215991547
0.399548198776457
0.41016310882983
0.41348571955219
0.416917737107927
0.423899523813095
0.426701521443641
0.428849523008788
0.435149379447981
0.436511113037185
0.440094164204954
0.439225339567297
0.439756489417417
0.443910947070294
0.440556156510838
0.439895809958797
0.439489430440771
0.440008849340057
0.441046028304218
0.445747270012688
0.447683122540834
0.448220666993362
0.449352871131343
0.451502468858505
0.450703446067458
0.451775131997759
0.460310963335489
0.46121774536815
0.462098782509427
0.469024833586734
0.47550340074333
0.477156201071493
0.483360032529298
0.489432373147011
0.493600740213599
0.50072820804538
0.505378081138291
0.513702705474687
0.524329652664895
0.531357573787152
0.539467625776119
0.54494485549417
0.548786006002447
0.555504698827974
0.56639528207503
0.572113239278326
0.575058427480624
0.579907893706192
0.580413182332181
0.574954114155396
0.579957462126584
0.579446341008908
0.573142521584107
0.574639815946731
0.573421127615328
0.566023940576594
0.563289726651989
0.561201431754973
0.564988065456627
0.570967804292485
0.573398268376551
0.579786662584921
0.587348720186961
0.596928091798099
0.607404653095782
0.617299409566018
0.629249243696222
0.644758024465935
0.655390146841258
0.662330948501028
0.667056588786554
0.677057184473581
0.690213146890607
0.707400450848697
0.717514368187337
0.719660560449861
0.732481183731991
0.746320024399234
0.754696808228493
0.772577454264129
0.782454463911845
0.79715942908522
0.807639907525788
0.815659750746465
0.835294538484277
0.852811797198546
0.856761838514071
0.879515965525352
0.896194072179122
0.891950894297597
0.915536566126148
0.932562197226693
0.925516590970543
0.939039567193901
0.958028699626312
0.965644456431826
0.959959764227355
0.966814824324809
0.960695453987975
0.951750021190134
0.961347024588053
0.946305699479829
0.947377865382977
0.947900826572377
0.93183751692726
0.928071474513645
0.919426732288217
0.924081408328918
0.918091935643944
0.915373401498713
0.910901980705262
0.905556702017854
0.913040017436181
0.915042234240343
0.926971755348182
0.930856143115674
0.936146851304187
0.93777316394381
0.956987703221086
0.962067921136897
0.955207820040947
0.963685378338664
0.975781955008524
0.996251848022033
0.988424100603631
0.988345416512541
0.997960709610141
1.00003666012361
0.998297744733956
0.999430148385619
1.00213794616573
0.993123004943995
1.01209499567446
1.01910148607289
1.01377267512745
1.01648443851029
1.0111405932001
1.00670557005359
1.00197508536394
0.996705807571229
1.00342376342804
1.00762335844907
1.00471014581274
0.996889385651962
0.984723684490779
0.972211762779721
0.968936528349359
0.976547448845891
0.964192386503146
0.949208707106067
0.956245087419734
0.937251224843061
0.909282805414356
0.901649067655429
0.882706358756098
0.862855402133815
0.84367418256386
0.821807982686753
0.795540733584618
0.76470872551536
0.741089480926413
0.71515163743418
0.681746917497496
0.651563815665405
0.625085170083433
0.599810495387873
0.57938700459909
0.5616029846929
0.541751527943286
0.52939136602447
0.519797166706038
0.513552403339036
0.511918436786856
0.503278520970064
0.496793919423139
0.49439376047905
0.483652478177134
0.482192706895317
0.479612527490277
0.471620322282851
0.467539361754856
0.460208558339325
0.455889079316479
0.448075470154271
0.442189625505506
0.435534138865037
0.423596781845694
0.413548362385695
0.39953625072797
0.390492632796447
0.37986163198116
0.36621781485384
0.351954207858525
0.339329810749683
0.325236128373771
0.310622136502684
0.295622024753144
0.28401003095757
0.269288221475334
0.259568588859615
0.244850166079952
0.234432287177927
0.221682173695247
0.211893468544539
0.202540745585555
0.195974175820026
0.185604730861135
0.179797092339929
0.17430281338535
0.166791194535387
0.163238531211956
0.161758784979786
0.1598579031923
0.156238915246592
0.154234122066772
0.155582980148199
0.148124093039565
0.150776957718614
0.148212621606919
0.148257879133119
0.154211493426518
0.151050786772181
0.153700942313625
0.155708423154524
0.153325701087869
0.152188000127505
0.153073850763953
0.153699503365403
0.154412566127439
0.158730419314285
0.161512636817619
0.159370294878422
0.159717384288247
0.158783992493187
0.154066287431013
0.15637545309381
0.152742279056891
0.151774541936176
0.150004433420626
0.150537836890405
0.150194659697814
0.147086888542862
0.144773792222408
0.146039384653363
0.144180894730872
0.146664882048065
0.148069236283016
0.147697283786608
0.152987838124921
0.152131012019426
0.152214546364895
0.155500541247886
0.157593927330402
0.156944597712391
0.158428484675751
0.163633833433736
0.163367702073608
0.164975421155316
0.165640213766253
0.170768167889254
0.168239297097226
0.170543230178817
0.170706627775975
0.167960330637257
0.172257321149916
0.171381749652774
0.170623972449213
0.16981694055408
0.174413915656727
0.174386026736485
0.176125545991025
0.182812058172027
0.184318242805675
0.184431945690321
0.185487429524415
0.18925421946556
0.195011399252917
0.196190390853317
0.204763637394496
0.213917764887064
0.217076798271594
0.21845313541784
0.229773459154474
0.232995801223615
0.234914287221129
0.245431467551848
0.24595330967418
0.244848645040676
0.243838059304416
0.245908833665219
0.243554717175347
0.237274386836374
0.229495001564101
0.228660680917907
0.221558857885261
0.216957953175038
0.218140811886916
0.218064186668661
0.212198296710647
0.213690953472214
0.219962847776668
0.212593970022178
0.21670392813555
0.219876820878555
0.220338553251282
0.221463139626321
0.216726634568461
0.217882541477343
0.214489717654864
0.219436582575262
0.212411266479724
0.21153835886656
0.203539099328229
0.205535039570202
0.20618376369121
0.199388400305354
0.191150275728792
0.192937433543988
0.188279327493163
0.190363599288933
0.185082766979488
0.187325288976129
0.191311752247672
0.18549339717633
0.183149748184205
0.189713545191505
0.1836683777356
0.181419920470067
0.18596957546653
0.188367105653115
0.176360870148736
0.182952132118515
0.183508939329971
0.178201738644244
0.176389599060876
0.180424846213172
0.175480249897655
0.18059424789981
0.178587283110265
0.183843459978487
0.175236411567031
0.176900247842788
0.172031516348945
0.175637669861036
0.16825252533954
0.171725621212292
0.169658574984776
0.165962707630422
0.171822561882367
0.171605813175595
0.167824427898147
0.173031380190406
0.172000217178783
0.16811952315034
0.17140278581507
0.16930871749233
0.174491127936595
0.174281621171212
0.174607667964378
0.174485701408216
0.17566364196177
0.171915461684865
0.17757459688556
0.17121655278178
0.173177545509448
0.168371481489644
0.171253917850474
0.180341442406522
0.180550096553858
0.18005731818636
0.187265630304088
0.18319667393452
0.185301879457058
0.191914658422295
0.191408351562116
0.197365145499411
0.195586864534243
0.190530352904834
0.194216225627618
0.196838281456958
0.192942069386407
0.194657205275618
0.204884934842426
0.206306811974627
0.215576862526607
0.227291979797367
0.226158369374625
0.218005870854815
0.225207217776932
0.228844164880692
0.240275368795114
0.245751801398846
0.255850821516374
0.269009158737692
0.259188610591783
0.265017871084389
0.272045800847531
0.286561743988205
0.300174363718297
0.304274080606616
0.309591326162998
0.311837893129343
0.318338415015515
0.31886455740436
0.322246668167485
0.325628106245346
0.324508676340604
0.316568643866028
0.317066834538094
0.308240737883594
0.304638846436473
0.317147359988874
0.328744553096519
0.299429670256406
0.284642719610665
0.301114011657619
0.307937620840023
0.302563797920875
0.308974874686593
0.29940648610837
0.285142638414001
0.309917910641136
0.299234901922661
0.29813480953896
0.276850991586852
0.293416641345639
0.303366033056014
0.300967570365898
0.281798753239786
0.266230888780464
0.28007501074798
0.27989956542626
0.267891858857991
0.268067570022268
0.279247871323457
0.289783926936868
0.287006978771992
0.269098741422032
0.26754759636861
0.263122871185005
0.283027996962858
0.263529659979021
0.263209904377474
0.283768988482293
0.289470998700493
0.279374779241683
0.286829322326112
0.26046875055096
0.286549379325459
0.294996588902952
0.270583261346183
0.285468210486613
0.27319205456997
0.268230903985441
0.287312469758788
0.265716615332303
0.313363303643678
0.307087091752997
0.29286437757161
0.298453166751553
0.288138143728642
0.279911367535262
0.306324294375975
0.276156255619514
0.27981361036925
0.292391788729813
0.298925309782027
0.32734826554848
0.314943294090232
0.292049813849438
0.317334268089155
0.301094925120393
0.316166171838765
0.361604453710508
0.329862917457592
0.330483285012692
0.347093928948712
0.332324170131528
0.346018990005568
0.358006705332203
0.34785608390836
0.368089431299999
0.354201124406808
0.395064067295821
0.364413194756321
0.407052487046313
0.369989410615688
0.356605427369887
0.398083553761272
0.369744495507409
0.390501407553272
0.391075683055003
0.386397031124534
0.368438678346372
0.36335501511002
0.351723909145259
0.430686848347122
0.423338074878611
0.371722037721366
0.378098548154517
0.401583641163102
0.310630800700103
0.380455964750421
0.3897493484234
0.339793386625554
0.383605574674175
0.363525869957552
0.354022324566755
0.429259073218805
0.334484059329296
0.325725752868459
0.371828322712417
0.34429942843135
0.402119344671576
0.442061287798204
0.352060434836769
0.380620789381231
0.30432687019102
0.285089372251054
0.349086054273775
0.387176766072826
0.405734769615354
0.361358089995764
0.47543524058575
0.409080919868808
0.36512228787765
0.468974139632456
0.317888491007461
0.443016548276532
0.396125321454636
0.387257366845801
0.356242413381496
0.454616593353736
0.339976104952937
0.461700540407447
0.410940993826473
0.387553470081923
0.401126302723119
0.418335180991046
0.596254527691763
0.300056411388908
0.34951215680361
0.520854007857073
0.326844772308165
0.684262041181442
0.790817672795382
0.468305537671935
0.305657972208438
0.460802295120219
