3596
4000.36533379555
650.420452594757
1
2
2
0.0342039939156931
0.0411843334010736
0.0345969300613104
0.0327621422345568
0.0365565440491161
0.0337457957446422
0.0344806806438098
0.032552311885838
0.0274713712193416
0.0197220087929874
0.028324948759044
0.0226871528319883
0.0225759852891469
0.0308163899175118
0.0266087202684993
0.0256336840304024
0.0281626524554977
0.0229651233159927
0.0334241456413691
0.0257813198904694
0.0324597958269035
0.0298090128383237
0.028232135942324
0.0192065144987711
0.0268465542116713
0.0278561805119507
0.0319225887335409
0.027580415988878
0.028109782031885
0.0265355789839772
0.0318011200043067
0.0267015726940192
0.0296187916026557
0.0294288739212211
0.0311341021523229
0.0345672218024366
0.0328002529445658
0.0247336305960195
0.0274008209202837
0.0231075528335382
0.0293997653872607
0.0329330214466533
0.0311920962707926
0.0238953125485139
0.0246404307518464
0.0264348118243985
0.037497325096333
0.0350746041209146
0.0333229749674569
0.0270815435856236
0.0290621798299344
0.0257970518044474
0.0341822417582956
0.0381394001476808
0.0224868095288654
0.0293488618267581
0.0412985300056898
0.0228575981155028
0.0261881551137171
0.0244789344869202
0.0334083753518679
0.0273753218207518
0.0322464107895324
0.022225453668313
0.0236222392921959
0.0259770137546621
0.0307112374840018
0.0210851356502447
0.0318226621056134
0.0275010751319766
0.0228635311278458
0.0245705596231843
0.0294867280418003
0.034306441217866
0.0310025709711269
0.0291522052621235
0.0280062756620064
0.0286280139776628
0.0241329842776717
0.02321055806542
0.0312938785957573
0.0268683208856364
0.0267384574031563
0.0204724376340273
0.0279294502543348
0.0322959090039731
0.0253562172431599
0.0240385542655525
0.037717558707315
0.0339815797478133
0.0220871628998335
0.0244182908788822
0.021754802120971
0.0302467665060867
0.0209258556856457
0.0253597699167163
0.0297232025947903
0.0251530128834522
0.0246973863371437
0.0376345363800216
0.0150673197977011
0.0285974289133707
0.0262444426457398
0.0370529904813068
0.0343973120410732
0.0178416277147707
0.021215355846262
0.0274175568710915
0.041895933751424
0.0285227652482418
0.0338539279541066
0.0191028199387871
0.0215720579704204
0.0219318090195556
0.024687324586619
0.016901240407437
0.0358310129278643
0.0262346292404701
0.0270512656557051
0.0266794134513635
0.0118440714785592
0.0359604557903151
0.0302147100706999
0.0337318779536483
0.0241134015515929
0.0335081152422112
0.0176422357712193
0.0334419204934804
0.039093768106416
0.0295977579719935
0.0194990061940597
0.0262939171852189
0.0107158029491716
0.0177549290356105
0.0283792733229121
0.0268203478400926
0.0193925634754112
0.015053838454625
0.0261248904400867
0.0402274280792843
0.0291655992349275
0.0273633186797078
0.0143402180987163
0.0206040432354329
0.0398590280799597
0.0301195837834815
0.0165807531020468
0.033120141369286
0.0308846945964419
0.0319779618754367
0.0172999724244229
0.0226226103778798
0.0273670511983779
0.0215437318880368
0.0102250859511002
0.0360035719978136
0.0222596328606623
0.046129976816152
0.0198012253089999
0.0358865790416219
0.0215070210027242
0.0291735815007572
0.0178918711824178
0.0213619905853106
0.0161684692972245
0.0179494123059893
0.0207351561655478
0.0356669900170025
0.0270492199450473
0.0228084660846415
0.0332209578456543
0.014526424986818
0.0266559212879312
0.0341290682191257
0.0284246879284703
0.022718482831463
0.0260947021340308
0.0292945693683433
0.00867495337540717
0.0276938408986098
0.0284078299190888
0.0283202253577074
0.0242285275335061
0.0248836217404568
0.0156827924337389
0.0352773739311103
0.018775928300029
0.0310324369029312
0.020007420281468
0.0211726196767078
0.0157454305052424
0.0521795410174936
0.0281191065505936
0.0329790263290702
0.0159348027884475
0.0220706701048604
0.0301663500467484
0.0418218369880304
0.0271329107440258
0.0210518992502226
0.0172051819521148
0.0245064646434623
0.0194733344169834
0.0259533191999483
0.0110811846900141
0.0151437117057271
0.0162106477326596
0.0437682943238292
0.025169148915235
0.0273234200086989
0.0139450568154692
0.0257093203885905
0.0325347665800625
0.0339496346407175
0.030593599465114
0.0260751095637535
0.0219833539410546
0.0234979165433301
0.0387537229271741
0.0319232455107879
0.0176100167441615
0.0253887574246721
0.0233882600619751
0.0257149310985294
0.0249116999127391
0.0240628897668423
0.0260052194074608
0.0236233346655636
0.0165869965817387
0.0196251047384476
0.0264662268989635
0.0273127967193514
0.0258239805178946
0.02274180063952
0.0125475449813706
0.0284723449611461
0.0293726218927048
0.0347111857382704
0.0219146089403038
0.0280944505196574
0.0162717806714453
0.0280413360079393
0.0240688305592907
0.035314190466292
0.010277071856531
0.0253817890369259
0.0151216186393392
0.0394554926665772
0.0126243255289438
0.0201502773618203
0.0211743787631619
0.0247664635731146
0.0287288559041704
0.0232123037300212
0.0270155570641722
0.0178943495051556
0.0232873309197787
0.0270243302752373
0.0283138115521402
0.0268903536191852
0.0312607397557858
0.0161968343655287
0.0263802513595548
0.0171780779697155
0.0132639589794072
0.0391909294483827
0.0279403965030036
0.0247999650334165
0.0354072991538649
0.0303564665746398
0.0275716042948183
0.0175463879573944
0.0210115023037377
0.0413462508559698
0.0414399323001064
0.0283571369080228
0.0208131611011567
0.0304933565975727
0.0254851813682348
0.0204185743911572
0.0200274259593745
0.0383441489944289
0.00509878353872004
0.0689431271315032
0.026056964430201
0.0241845768348315
0.0249037084317761
0.0465472310307425
0.0299986301675036
0.0247831284414487
0.0144993624522063
0.0275615924770982
0.0293060690217985
0.0315372305785134
0.0378228853392435
0.0186062785461621
0.0378109110505666
0.0411369841180475
0.0317479652423815
0.0210503240589494
0.0313502505720873
0.0260338560845037
0.037794666404106
0.0226924807320767
0.027231445002694
0.0300402644450872
0.0169713684915872
0.0308552311401876
0.041123172827887
0.0337554564947326
0.0308870031691316
0.0355640913797601
0.0396958436805323
0.023963706078195
0.028904247696813
0.029880326880095
0.0316834489629706
0.0209221170682237
0.0228684708400678
0.0399563902174464
0.0323280030517002
0.0290091301214026
0.0276747399143546
0.0357583374454169
0.0288855403086955
0.0348902722319383
0.0259539598415421
0.0332229870773405
0.026260185008014
0.0277641928732558
0.0440048175341811
0.0295944466364978
0.0259069912342891
0.0452442842938589
0.0335002481531213
0.039665622578725
0.0316615136519799
0.038713293819285
0.0324047063253812
0.0370279091844588
0.0350148331486985
0.0398081210398075
0.0293539515035112
0.0496885219563841
0.0367129683575913
0.0370697842666124
0.0112426542224378
0.0646134118410356
0.054964848421794
0.0541765810603247
0.0344772047638605
0.0322113025589629
0.0449298812081692
0.0443513503024102
0.0552721937699378
0.0438013190487763
0.058100196793959
0.0423607118603263
0.0529494079449154
0.0424392131522143
0.0529123575430237
0.0533489389525361
0.0548885703759756
0.0490575413111752
0.0539437599015277
0.0573283559142171
0.0515807786182998
0.0608675661211358
0.063033725413152
0.0704040610834627
0.0620804979322487
0.0670984346468669
0.0603343201073467
0.063346329535302
0.0675545725430176
0.0847612642339844
0.0570689121959036
0.0913158309451721
0.0717426414557195
0.0876431379666861
0.0685457681339034
0.0808416269998373
0.07517730921683
0.0799455419267039
0.0762495502597023
0.0824486179364097
0.0817231203003931
0.0902434762072675
0.0864099442439724
0.0927308897691186
0.0809690083114859
0.0952082027004025
0.0927388055318568
0.0994448336122071
0.0854043846734667
0.0943408099697363
0.0914039400804709
0.11290010233366
0.11057735598252
0.111966684858701
0.108048741087794
0.105757517522201
0.122293746425848
0.112864504006601
0.113000997901736
0.110892717397649
0.116040199969173
0.12621971277073
0.123697573304214
0.135186989593279
0.12225952704893
0.130367280460527
0.128753817886252
0.130807679439867
0.138824651908945
0.145633029463766
0.135287108080541
0.13954212835557
0.153447201375658
0.138219415278378
0.155007463240611
0.147994940388299
0.155169949051968
0.152359731403305
0.160502448455722
0.159378314647859
0.161448851512339
0.181759989146406
0.159132512616298
0.180529740351056
0.161656574116659
0.178735297255473
0.180645255599416
0.188243807559641
0.174445728600608
0.189025375234737
0.175568965128959
0.199277826360426
0.185550353348109
0.200803718336445
0.213439135052195
0.211802902914047
0.216718385896713
0.212940483276966
0.205041019940254
0.207788237415231
0.214286358789642
0.219232987467117
0.2234032893149
0.224342293833574
0.22276598530644
0.240618177808533
0.227325420955117
0.241689941535537
0.226728483457898
0.246650916614719
0.237603755301321
0.254599995296469
0.241938364173364
0.256770140056375
0.254361469099667
0.273703804385011
0.269822721547628
0.277221295403811
0.278521763655348
0.284314611231555
0.276049544687801
0.27574844914538
0.280574555484434
0.285774196517805
0.291031918928228
0.286808443562255
0.286103315083235
0.31131571717978
0.290674547927611
0.31101139471399
0.294809227010567
0.326034033933251
0.319372675846144
0.325813097404982
0.318635084511082
0.335432607684523
0.327763698030759
0.344993820344476
0.325250231247731
0.353733481804221
0.320121856375512
0.347527970919847
0.357629260207019
0.362053531889813
0.342571167964191
0.365880335254296
0.348414895816892
0.386569650509646
0.360188854502315
0.375943023378738
0.342068975140264
0.389241986018125
0.392060074527471
0.4021410348721
0.387323360169831
0.395916903374104
0.388322187224263
0.423068429694879
0.382967155739377
0.413189552538802
0.421791543379571
0.414885732533706
0.395845074148579
0.448124123013507
0.43114948213276
0.46054908396167
0.436298514885087
0.454867641443183
0.436131345586876
0.46656161498371
0.421585383336637
0.457713189114091
0.449665277338184
0.477963742697742
0.458292841585792
0.488815030324601
0.472881482838352
0.5067588054768
0.476715588088835
0.502117835625529
0.488589604869284
0.512978254248829
0.489560066253978
0.512610421828077
0.48674612994225
0.516106098041032
0.499812608270959
0.53410458145127
0.485359507259953
0.56058743941088
0.524446177103126
0.541367617196312
0.513845711683305
0.555383376988314
0.531379173509628
0.58920139946494
0.546397897048316
0.570676066350091
0.535510961013069
0.612094521620128
0.563796650338487
0.580532769343616
0.564830556049033
0.614331231966513
0.562211804572366
0.612926361415739
0.578144967846908
0.619187469475016
0.589793767760698
0.61117044198271
0.601894095808985
0.59781456797625
0.592642858270155
0.648851809331774
0.595655177081994
0.650405983012503
0.632913011846391
0.616429541437747
0.612020482569009
0.686978795576964
0.640022730115758
0.655368473884123
0.596460880378491
0.670964327759774
0.625713140944267
0.665572537397535
0.630432821956475
0.709087632310961
0.658619775830604
0.736548720800705
0.681465370941375
0.732930398980474
0.666040415659923
0.726897502245492
0.697543745262748
0.723666664263124
0.695779331102996
0.725499102990809
0.700508796040436
0.727155231894691
0.687463212911845
0.74545544045041
0.685348112566738
0.773352548363571
0.729673776625307
0.766138074606245
0.716651855920698
0.766973758780772
0.746939521770522
0.780906221677825
0.716435072693238
0.791581123003037
0.765246979059833
0.781251799525262
0.738991511986717
0.78433186633903
0.749700272403244
0.795530955732113
0.749047836817393
0.77717461220522
0.785969154465859
0.831644022745979
0.777120424180264
0.865775703681411
0.732004014625214
0.833351775962827
0.793166180415479
0.868246394239639
0.824165259799395
0.916354929402287
0.84062880752782
0.852777211465514
0.815739340757149
0.86183907676969
0.80255136449711
0.911419903973925
0.814506776818767
0.869964883788802
0.820187785342441
0.905355630973277
0.853848564884325
0.856873982951334
0.792458942724586
0.867345334425015
0.817113969475306
0.905624664905839
0.836424008553296
0.875913292038452
0.827901343823192
0.902107316475161
0.845941273116471
0.938097865417251
0.870148407049888
0.910279652238461
0.844011942257423
0.862530573475332
0.853844867250738
0.904025672042373
0.896479745457574
1.02695043715344
0.916173311624529
0.955391624965458
0.870807428566177
0.960686421527188
0.864732615990314
0.961400292599508
0.911663059620961
0.98548485835484
0.910171195472945
0.973944742772405
0.890868161701874
0.943645974540479
0.912816011337301
0.954093902857007
0.912924379895849
0.961264756438609
0.898839451817929
0.983345205637009
0.890449343031093
1.0363117308699
0.90904907251966
0.992924201519458
0.953136728068824
0.986523657665698
0.958817917327864
1.03257831159039
0.94032420513981
0.987461677358427
0.917117845066703
0.980675373903224
0.937490349513475
1.04847153604913
0.979507033427327
1.00222029501989
0.972311939086135
1.04313995023128
0.912536044701656
1.02614610731123
0.94838772320024
1.03020556541691
0.971090190114331
1.05623194824353
1.0041808105767
0.982380256687019
0.965144270836104
0.981859969463772
0.931646513907269
0.99461697629902
0.962543037028167
1.04932253079091
0.978201888775923
1.04354648593712
1.03281812226787
1.06940181280188
0.934017134227526
1.06445901421217
0.972809335778212
1.00180073182382
0.986540775973244
1.02976998295228
0.969638811929514
1.03943569201484
0.943060113060223
1.03224133833564
0.996955443648445
1.02998815007024
1.02964801129232
1.02447728208314
0.988903219678814
1.05251680750951
0.970231576804321
1.06421282349918
0.979266430687218
1.04035648720525
1.02869686414448
1.04805434826624
0.95348620311677
1.11657815274528
0.970050637754605
1.04484390922953
0.962157095708754
1.09680582730118
0.984322719423346
1.04426229645058
0.993172763406158
1.12718029860784
1.01113524196773
1.0657790190283
1.0034696185113
1.00709080989431
0.941414565443337
1.05303992037642
0.966980240129997
1.07018730321005
0.980722521649084
1.08338095806721
0.938851420287515
0.982354845867124
0.933188715535632
1.02014827591325
0.961725374018041
1.05124620225625
0.996190210802978
1.06397072019494
0.956315219634623
1.11299500772903
1.00392266104648
1.00790975978887
1.01529496451294
1.06883987779857
0.987560660597299
1.06353496623014
0.967828114426669
1.05464045474892
0.975315305938375
1.06732548279901
0.998837522144454
1.02232085530139
1.00371326465815
1.0131870088861
0.972953106558975
1.04194001897209
0.967610854417404
1.04780448668341
0.977410565648044
1.01632736186387
0.980812203436162
1.06174583409409
0.995646994558012
1.03846226010783
0.965933805655609
1.02908407294698
0.961935064496407
1.01988006031291
0.978041527968499
1.03028699986371
0.959554145154076
1.03085006457219
0.917427914561747
1.0067970729235
0.98406793941837
0.960481403951808
0.955716508366727
1.04246589379013
0.96063737669693
1.0049974009373
0.948621380134208
1.0051402349938
0.95289529992637
0.990501866184172
0.966536221958379
0.98126966282308
0.920586325905681
0.954389344074449
0.964790528139273
0.98940078477164
0.910714355379451
0.942218920939251
0.8962648861804
0.965458508257107
0.895313511473309
0.957051717866083
0.899641676091913
0.98010301270757
0.931539176378738
0.978899737851185
0.926159645330656
0.986337614745576
0.915686140693725
0.959377646199631
0.910574061543487
0.946838157775541
0.901641179860202
0.969848831264378
0.900255504720129
0.950315262185855
0.911340086325837
0.918705605837528
0.90500855842993
0.914951241166675
0.871359859664937
0.920639225873022
0.910254077227582
0.914202637412465
0.874726907688039
0.88545229006062
0.882957757917596
0.900184430532895
0.859583670916864
0.906262694470457
0.864750185646151
0.889820919690544
0.859776645316703
0.871126577667849
0.853102016817853
0.89077887739591
0.864583541855312
0.886275150068435
0.830536524482301
0.879171321996659
0.833122053161506
0.887673119604774
0.825059960883642
0.859867766722913
0.817502264814756
0.855750254043686
0.8317529460051
0.845182850384995
0.825195537014542
0.853460374711174
0.812750755348366
0.831713726590226
0.802136103760747
0.863852941396236
0.77961667004378
0.844705567398196
0.802904593258932
0.800857153455369
0.769160389357274
0.814047780416942
0.785153714541942
0.821176078279282
0.774040507780378
0.804138337821655
0.751254200572203
0.817197016099882
0.761650088916504
0.803887489216979
0.760733221898532
0.782283089304949
0.749594306125303
0.792957746548263
0.72548119411786
0.778278341183516
0.714196299062054
0.755970041874352
0.725434383337555
0.771538075535046
0.716057152388901
0.743328365646724
0.705500644858379
0.731001641545072
0.71578781127529
0.754630494044443
0.720476599263309
0.720136561329154
0.684224104680647
0.713207882757275
0.698690194336688
0.692184336738739
0.691092259616782
0.703911348860892
0.691300972960072
0.69584523202238
0.665655534470567
0.70598522687459
0.683701223423732
0.68143630497888
0.668503715919196
0.682242284191003
0.64532203956327
0.654389818416769
0.647235085548391
0.658718409864446
0.651059991608734
0.664618793106953
0.644366206797565
0.655212811758323
0.625899982049877
0.654936036777416
0.621695774161536
0.633676287584721
0.607314501060525
0.625648713471139
0.599269197026045
0.627575984561527
0.60443625459511
0.630579379210875
0.6057202822161
0.62895259134977
0.597645541627355
0.602181337277947
0.592002471760261
0.598057134129288
0.58618919939849
0.588815739650977
0.578392136147533
0.583370920999721
0.568420557553449
0.572404852488191
0.555345172127521
0.574044313429987
0.568683972958066
0.578002618640446
0.554905172004914
0.570868142093669
0.550410569241063
0.553055095327285
0.535029529101971
0.556827838777595
0.532354888123067
0.553348635153159
0.538638998365483
0.547377159449368
0.525265879412957
0.542531627694415
0.526062192984348
0.531737784166208
0.517775200815509
0.514445629246064
0.509601298672025
0.517566078339682
0.511517604678943
0.513972856740102
0.502237867086979
0.503979054645223
0.495089490444468
0.506305871110296
0.496435325284643
0.50293864318012
0.486128300004778
0.501527782291107
0.482750223541346
0.484076559933064
0.46462729172327
0.481099689919024
0.471516539632202
0.470169981007291
0.4669881000824
0.472494973616021
0.463000701234358
0.46545975591674
0.452988301220149
0.461846249530661
0.455314640260972
0.455100274805029
0.450103677694722
0.455815048056193
0.43860095421084
0.44782719928573
0.429125212095782
0.441829145377665
0.437303524613646
0.452859151797542
0.426696350810096
0.438302778651877
0.432216661391571
0.437244537285956
0.420932896641879
0.415039896934057
0.417588051272351
0.422319877946243
0.405783545443904
0.419235754411016
0.401923307633643
0.41955656743063
0.404105605376816
0.410822141738216
0.399961832299677
0.40785580052402
0.3996897742388
0.397485584989272
0.385018860135034
0.395440974129231
0.383446799837419
0.389585793024381
0.375058955002585
0.388420739252806
0.374603889868376
0.380203344525941
0.371156348167577
0.377787517779409
0.372348340905058
0.370620696910278
0.361880286689689
0.371909049419863
0.360783766799338
0.366725285692873
0.349066648698378
0.355128369151563
0.343120401001565
0.351999113997575
0.347629367801509
0.355219587583331
0.348776954412631
0.357399294058887
0.336395786321756
0.341482427114505
0.33305238929022
0.342343541957943
0.333681958927925
0.335305313332431
0.333495395618552
0.332862046354067
0.328329845747748
0.327812722916982
0.320281346232629
0.322491441023536
0.310011023976076
0.324235176958791
0.318058705563286
0.318444773070494
0.305510864977447
0.317186514535543
0.309622452813367
0.309249759031991
0.305227624416215
0.302503359782728
0.291526970399123
0.308138321840388
0.296987266921639
0.302007554695841
0.293261556016876
0.304153136315852
0.290384761365908
0.29880398973855
0.291140109202533
0.295206870043755
0.286726608484862
0.298877783539319
0.289620400078207
0.293736951422941
0.285329040661686
0.292873726500712
0.285074926205615
0.282463242610526
0.280151320590245
0.287541278952511
0.282497839680589
0.285094620488929
0.283700414339201
0.282361932438099
0.276036912170565
0.281870316390966
0.273814174193642
0.28832119924237
0.278406701751133
0.28536728882575
0.275851793773857
0.284129311437925
0.276327119712826
0.28773111406739
0.280255026203814
0.283782913384916
0.279580044072013
0.287636154853931
0.283212006949473
0.292283740716525
0.2854323614686
0.292879878709095
0.278506222931966
0.297380940107082
0.290373977691436
0.305433150982649
0.290397753728917
0.299553182052122
0.295311336242511
0.301286764767
0.301061283541915
0.311349988477499
0.303547793597073
0.313957547225555
0.307737146401594
0.315637124604363
0.312863021205788
0.312192007115978
0.312385167360499
0.323030059870157
0.318101206065708
0.328140358016526
0.313412106782286
0.329389588454594
0.319303033480563
0.334881438039073
0.329114447332695
0.331595023993091
0.326446224920875
0.34065518273398
0.334160802055824
0.343606191500339
0.33821649467383
0.350654334781448
0.343084548229401
0.345679531031368
0.349275550234213
0.356538734650488
0.352067225820882
0.364756642514676
0.359089050968139
0.379239260770764
0.366957931789314
0.384131682830749
0.371490741731854
0.382181665909566
0.375818871769264
0.387336212676524
0.384682747928439
0.391698696632699
0.386894760939265
0.390656704215867
0.377008434486589
0.3965704229361
0.387051883165773
0.40082680552407
0.386463355425792
0.395701192823669
0.387092054067864
0.404633036255102
0.388796924177726
0.389831715598434
0.389478952133944
0.394315017545755
0.390566401194173
0.398724731265366
0.392902575804407
0.395863122953616
0.382215103834405
0.384814675588606
0.376961686264227
0.393398820432071
0.375504851316457
0.397203302756348
0.380487288917924
0.386758299644402
0.378688909022511
0.380050080571359
0.377279943941122
0.388806910744249
0.374985111324704
0.379322489489105
0.374017995908757
0.387371136382015
0.379509619728276
0.382745857489388
0.371442486445461
0.383113256402742
0.372004011639666
0.383855647837788
0.38245573797943
0.38681292991286
0.376118605994928
0.38654661105734
0.380224722886221
0.383798177303996
0.37189456218582
0.386319265892667
0.376184108649365
0.383082792474142
0.376271548700537
0.388462053892252
0.375202713903871
0.376654362689523
0.374222994276345
0.37660887283931
0.372180523771358
0.37892116360102
0.371705044734333
0.38434153319683
0.373170500748161
0.373233127036768
0.368005325791555
0.370564170083586
0.362121944228629
0.365575057398272
0.36165795144119
0.36727640878111
0.357201223703992
0.363542927058779
0.35287188107194
0.363183804080429
0.349391450534223
0.350550097009043
0.333202732670402
0.34264518480841
0.339007429657661
0.334196426420859
0.326115518608659
0.330078153586837
0.32628191666974
0.330638675004988
0.323278060089124
0.322981078008252
0.309953017316039
0.31282348044016
0.305964593061844
0.312397413018636
0.30382936386761
0.303172958383184
0.293574457046814
0.303824089311911
0.289653351255324
0.294933560860071
0.285133353647225
0.292795547241285
0.281622024345246
0.283568809650991
0.28031930839902
0.281814216063771
0.273588331243335
0.279595040795684
0.274408675009984
0.269358807063029
0.269144914119945
0.267630016010747
0.257117687234489
0.269884405678186
0.259162801415282
0.262807663312434
0.260539100232578
0.260923557045452
0.251880416282698
0.256507645237536
0.250137762904934
0.249772060235535
0.246554059095368
0.25240357245362
0.241237147686628
0.251501363916868
0.240746146113526
0.242980518818492
0.234183902210202
0.239004639514439
0.232304697469107
0.235445704153502
0.230789804843253
0.236734130521753
0.230424754775814
0.231149223330419
0.224610739950143
0.237162316261359
0.226083539889885
0.227858042625756
0.223454062224449
0.232037976290998
0.220153377343768
0.22188221783927
0.220594479368708
0.228142143135483
0.217534246366924
0.225056298015016
0.216999065201851
0.218473995936248
0.209357796881833
0.217466028581303
0.211205809259813
0.220049977330478
0.212429091242625
0.217414520414424
0.20885109541218
0.214542515945383
0.205780686924766
0.209808434820741
0.202355912773871
0.210066712915356
0.204300214663386
0.209627799940681
0.205016926715722
0.207005363908308
0.20041726694511
0.203031153052075
0.202940497303333
0.202936297524549
0.198457558320348
0.202932802175625
0.192933658272191
0.201081579142386
0.195981077598256
0.194066305338277
0.191999080047754
0.196418975206966
0.192201684369995
0.1964614008096
0.19491424120512
0.195233333284974
0.186785207039777
0.194391284767667
0.185925997353295
0.193881731101578
0.188720857964455
0.185217043365704
0.183490811772062
0.192501228047864
0.183316254566902
0.190717139909623
0.181598275730458
0.187699238670789
0.17689943020076
0.185853951450691
0.17797020236966
0.185816521348106
0.179465661509242
0.1809476442746
0.176361050169576
0.185651084429886
0.17939217028373
0.182910684603764
0.174846770861119
0.184670698134315
0.173047712747651
0.175547787976252
0.175474829940791
0.177009147033185
0.17133427970626
0.177486145119525
0.17229027811595
0.178822736439851
0.176347947109158
0.177774565226781
0.173767179253947
0.176396945127351
0.175398148348142
0.177492690616102
0.172264251476316
0.172987313416005
0.166068859153315
0.173624172643214
0.167999387286406
0.170658462156588
0.163736649215678
0.17457866087526
0.167578466943982
0.17035107694997
0.165606983407555
0.172769112242461
0.167028541126538
0.174196909766337
0.165736511449537
0.17070152347268
0.166236427887648
0.170225252589501
0.164720275566323
0.16844389925587
0.163184136714126
0.166972984857327
0.161234737911853
0.165990761542501
0.159512029215626
0.167380795231343
0.164469291444049
0.169965372540547
0.159416541226463
0.1635502338572
0.158708252685696
0.160413312306167
0.16099931543449
0.164811649162678
0.157087210468038
0.16456450221245
0.160387333000018
0.158305171098611
0.151189561516747
0.154036482224942
0.154196469838189
0.157766569159926
0.154219798945126
0.157238777628826
0.150952347575262
0.157307525776993
0.152921074716756
0.154011916234688
0.146498221317847
0.155884072238943
0.148432387967946
0.150115355512417
0.146657452147688
0.150411322815375
0.145787827539003
0.150861116672183
0.149029759592257
0.148852300669081
0.142887005649319
0.151466350358964
0.143519020682191
0.145648694677207
0.144293593120995
0.147894489178547
0.14319932394184
0.145940832639241
0.141297969311537
0.146746282959526
0.13782092682516
0.14191791977566
0.139725709213602
0.146546687325951
0.136607729673492
0.14260570699474
0.137985569049995
0.13943428423138
0.134752603246062
0.139221635668351
0.135118667987089
0.134815915680381
0.134290816830247
0.135515688638625
0.126790609117289
0.136040147720542
0.126119525291123
0.130353483094043
0.128620183228232
0.131669333166136
0.129932365714978
0.126703319460524
0.124731236799375
0.130071947709261
0.125275366773086
0.125119889906114
0.122702993792551
0.126716247833006
0.124609314924766
0.124983431787929
0.11938472696418
0.12332138425976
0.119650044131024
0.124415849117054
0.117525573765339
0.122605443699471
0.117749345605942
0.119650186262709
0.117409266638869
0.117318506543713
0.113287890716737
0.116219885739126
0.111943798373877
0.11413206036562
0.112001722461074
0.117430252041701
0.110556695048258
0.114134048362279
0.112330620818039
0.113901304179055
0.10941107127581
0.111667990457486
0.109507706210624
0.112526404971413
0.107803411451229
0.112287739193631
0.108042178053277
0.108965667593398
0.105583499309199
0.107817509135288
0.101767448816294
0.105959735021313
0.102288078472961
0.105918621703013
0.104386698353373
0.106809150538585
0.101385082321072
0.106348387166507
0.102061793975375
0.104713047819633
0.10073592129579
0.101774177178858
0.0984351282303085
0.104590269026521
0.099517693946984
0.100939152970326
0.097342946965662
0.100658002254951
0.0948017784796044
0.102145791491543
0.0967120919738436
0.0997097092700107
0.0943053124324081
0.0971037242095213
0.0941695322516936
0.0964521820346947
0.0932978947624239
0.0966402259137769
0.0947130412011575
0.0956295642420348
0.0918281734692002
0.0964195095703364
0.092364726375734
0.0928745401038253
0.0890092685861665
0.0927846734728117
0.089290882375254
0.0934708020185294
0.0918310524204851
0.0944348346788497
0.0896973219286665
0.093896466801315
0.0913674757864334
0.0903381736897629
0.0898905332045142
0.0915769565507121
0.0875989581712643
0.0922002926998619
0.0874153706283547
0.0889584938931413
0.0877734513341752
0.0925967012072847
0.0857093230460101
0.0913329220668664
0.0909528165872185
0.0910936679629688
0.0874070052595772
0.0880659016624765
0.0850311208789554
0.0896787456044535
0.0863318728389268
0.0882219942595077
0.0850547314692976
0.0887518479505517
0.0850730211770765
0.0912430607488891
0.0863445437723058
0.0863201514709922
0.0847639130701813
0.0857662654185765
0.0817335413670709
0.0860577472096915
0.0848893162967592
0.0880998632275541
0.0823193998515359
0.0834982182716141
0.0830326671554827
0.0862131790176
0.0841513289320543
0.0830558809942678
0.0799888247698324
0.0832266973064401
0.0820243802424414
0.0805130245637323
0.081771228622002
0.0852119092497098
0.0804957326779185
0.0853425313247748
0.0785241479178016
0.0792707152863067
0.0779905180324661
0.0817918103875209
0.0788320405683177
0.0803816347360935
0.0811323471324575
0.0799898576091072
0.0758390043550306
0.0817319009471034
0.075057781132987
0.0800978439572529
0.0791612487729286
0.081433579046329
0.0742789068104032
0.0791363630628264
0.076547225566278
0.0776788301447203
0.0737349225965468
0.0782020197970329
0.0756501104698147
0.0791666718690433
0.0766974673886656
0.0770078135287549
0.0730210814628904
0.0754014584953358
0.0718103085463002
0.0746350180423001
0.0729620723466965
0.0762930058717095
0.0699347612637979
0.0781946306993722
0.0759814253628215
0.0739059988113845
0.0693891697584491
0.0755446280820826
0.0727368134596038
0.0759615092364892
0.0724138299077455
0.0731234061428262
0.0720948450272951
0.0720752044801655
0.0698770518096073
0.0725373454147633
0.0716243819780292
0.0724356761091402
0.0670796533738263
0.0706796480125053
0.0691940155467342
0.0744497347355667
0.0697861182237272
0.0708658676324152
0.0683147760716455
0.0736878351950371
0.0673592473057302
0.0728742347540566
0.0658864094220031
0.069030347794585
0.0682458655492169
0.0680559143008158
0.0646703886987082
0.0684795790206294
0.0650175508503757
0.0693094503406169
0.0671340343270009
0.0672802624400143
0.0645031489980788
0.0668293367361319
0.0647438296770328
0.0669141293769807
0.0612445590942677
0.0656594316956005
0.0632890387775033
0.0643682960108563
0.059392901111183
0.0635384419302394
0.0619178156968496
0.0646377877064593
0.0591561565609037
0.0630615064906034
0.0599942894875676
0.0636900560509813
0.0607738721225927
0.0622842922131023
0.0599990502425179
0.0630509353288
0.059527486470296
0.0601463758980934
0.054484252752371
0.0612753640764933
0.0584339711010322
0.0593245053696068
0.0559997821223471
0.0588067035849605
0.0573557211519769
0.0590458505990584
0.0572526011592891
0.0601741260807199
0.0552018860653771
0.0608058049179928
0.0565027420375724
0.0576680590423201
0.0546544657007607
0.0566179748041846
0.0538172172691803
0.0571695469396304
0.0516699987658385
0.0593870552778737
0.0536799965330551
0.0554892417650507
0.0523317297271208
0.056023828747691
0.053195655899566
0.0573089107935106
0.0525256123831428
0.0567096907353634
0.0529353510416913
0.0543322048709724
0.0518483611194262
0.0546980335096737
0.0498543487653643
0.053152301960682
0.0484543916578804
0.0518478110568784
0.0497945958266856
0.0557684353531943
0.0512202669330445
0.051535785034851
0.0492021660421093
0.0525680159586779
0.0471112524946042
0.0529184253710576
0.0476470633690699
0.050145887608298
0.0494846897925148
0.0525887845953681
0.047824358216394
0.0506806989726336
0.0458877032912617
0.0506812176234535
0.0475298527090698
0.0496940155835775
0.0449704461662542
0.0494282643878892
0.0465321048117708
0.0477476051658082
0.0453311151759777
0.0480457788497386
0.0442513568590334
0.0487953645258233
0.043115382063009
0.0485759389808802
0.045872472961018
0.0486694764664692
0.0443671952489154
0.0483572517558811
0.0424338388326364
0.0473013433225872
0.0439329708985417
0.0459158299527621
0.043900477860199
0.0512138584849769
0.0442972287745558
0.0492105676224904
0.0413012304554845
0.0474758349545955
0.0413462167942947
0.0476632046696689
0.0406984307730168
0.0476257825661385
0.0400639411098923
0.0480538660148528
0.0414037314146986
0.0449574020513793
0.0411097611445901
0.0498952600752002
0.0372865842660925
0.0468876845848333
0.030534956929826
0.0462318794438753
0.0408878540594049
0.0489891409711754
0.0385717593890107
0.0461071913674751
0.0357601880354718
0.0442444228781709
0.0371322190612353
0.0513595176193325
0.0373572817410329
0.0453019791229709
0.0347594800509146
0.0525458206057491
0.03226625199138
0.0497348431583337
0.0386454225819344
0.0491432746207192
0.0400220693537269
0.0487549727270121
0.0308386615164954
0.0460522477890591
0.0283688874964911
0.0478997297420251
0.028711374986271
0.0495719274731216
0.0324839463848236
0.0512099014751782
0.0282083929481943
0.0531130517762284
0.0272395532799637
0.0503448167653816
0.0260123906418003
0.0580408802729335
0.0270437275134601
0.0539552972406326
0.0235830724782248
0.055214205559516
0.0252893164868382
0.0575587639577702
0.0280385674134381
0.0578367153283204
0.0286160527645954
0.0517575095008663
0.0253342736227861
0.0573803463705124
0.0329853636293704
0.0439804511912851
0.0330561369889254
0.0441275349665103
0.0444939669814173
0.031425477158477
0.0488876590403138
0.0297279916183455
0.0564819980272044
0.0219461921285754
0.0587648730013066
0.0227090907715262
0.0576195915249936
0.0272530731982127
0.0546763609633676
0.0305507939255341
0.0484747590227001
0.037595156011053
0.043483378306056
0.0379188062145
0.036985857380892
0.0397278507175042
0.0389503977182388
0.039036631126375
0.0396496306933755
0.0353762185891977
0.0433149237565546
0.0363575937345789
0.0419175292619451
0.0364807698387945
0.0389243774776392
0.0371322318460427
0.0405607156636781
0.0408823801159559
0.0402105367669155
0.0382292441059363
0.039091098931768
0.0390367910106026
0.0399287195516108
0.0364598014378214
0.0406963001465015
0.0384139177032232
0.0401832768996557
0.0372129679479792
0.0407069345541319
0.0381640180097483
0.0423909318912415
0.038972211004816
0.0391521584005724
0.0407742812500523
0.0435347311160513
0.0415805999789007
0.0403480710368623
0.0373914174183679
0.0406981461395205
0.0387421165764436
0.0400521629372547
0.0399637527513629
0.0408970820074258
0.0415354466363862
0.0423085153676355
0.0389920884455412
0.0403774102118814
0.0411189107021757
0.0445286698850805
0.0402244452476474
0.040649166133285
0.0395974113996371
0.0403737049597976
0.0394606207975295
0.0417270923918902
0.0393774082341388
0.0410271248930914
0.0383194932099428
0.0410291881723325
0.0400460010128823
0.0405364316585708
0.0371501393172125
0.0407109333650505
0.04202921897319
0.0415866398703176
0.0398965229301618
0.0402386588224026
0.0408038762575572
0.0408054877492707
0.0408139250096158
0.0389850166570006
0.0389317754132397
0.0411262016592924
0.0399179335220551
0.0394758657210358
0.0397730116988625
0.0412270053821873
0.0391651079948524
0.0391120305859357
0.0393881710720412
0.0417324908553015
0.0409268653980644
0.0394578386158778
0.0415543966755466
0.0410967001298093
0.0400005148114647
0.0407609087963027
0.0401211325548134
0.0421675734484037
0.0415977508232188
0.0404060213329279
0.0403473000821345
0.040422755054513
0.0408838625568706
0.0396638761719869
0.0425945500761954
0.0426117982503382
0.0416852233074061
0.0412158709644058
0.0414517171704216
0.041239293486515
0.0405594248685428
0.0414125696237235
0.0436025722986412
0.0425222431423456
0.041605950305277
0.0418507865099553
0.0426971712863648
0.0438027035459177
0.0422969188122955
0.0410295068627699
0.0407091877750589
0.040206645987879
0.043078763860241
0.0434142836304113
0.0431615023624672
0.0430672632893953
0.0412349201033015
0.0415453704056623
0.0438058805151459
0.0424659310197082
0.0435656990204726
0.0411710700683925
0.0417525197095499
0.0422704150714545
0.0456082153732587
0.0432202493574554
0.0403777527589534
0.0430677563385214
0.0426266512559719
0.0434048221006205
0.0446772523539491
0.0440695692918611
0.0442869371332041
0.0432993515834369
0.0451761760302075
0.0425339030091114
0.0428782701119862
0.0443363224289617
0.0452991112813046
0.0419503796526249
0.0431859107469916
0.0456802046923278
0.0453176943903197
0.0442682521126514
0.046067038068869
0.0432326038401081
0.0443312777419892
0.0448029554415049
0.0434545934689026
0.041499191298771
0.0463609363429034
0.0470191646009096
0.0448913105816237
0.0461211584996736
0.0460761692639192
0.0456829576424582
0.0445261281167615
0.0453739515004784
0.047794023191859
0.0464152037839595
0.0469663341319277
0.0437814803637819
0.046345785298218
0.0468783294586132
0.0468088250255963
0.0441570329507942
0.0454541384249707
0.0455145988715612
0.0474338953928387
0.0456975788626718
0.0447951162239792
0.0427704691548691
0.0467963046350651
0.0444315930486374
0.0447937643686168
0.047480100248035
0.0472379013758737
0.0443846980494958
0.0475353383672805
0.0456598498325846
0.0465443916474862
0.0446112194299532
0.0456010099375449
0.0465352357826706
0.0450857213870678
0.0438565380952965
0.0456421619170849
0.0453846194312185
0.044792194629807
0.0427648172557768
0.0465879122342331
0.0452398250443113
0.044477491572223
0.0439128567115503
0.0458718532983377
0.044173668263949
0.0446737897520054
0.0438690489084622
0.044709986616134
0.043026793263026
0.0435058134602403
0.0451414203861735
0.0463863359043593
0.0431047932170823
0.0450914978168131
0.0424845961184348
0.0429708864812022
0.0431749353459318
0.044963442527356
0.0443091817451789
0.0447605641709054
0.0424357289890275
0.0435594759133202
0.0445773597100051
0.0425615869202459
0.0415111504455505
0.0440666215452517
0.0441048101048146
0.0455629956528857
0.0418988593562273
0.0440685503572912
0.0412445740867593
0.0417396664309928
0.0415887187909387
0.0423331930535303
0.0427348549736188
0.0447788625909126
0.0401827098897693
0.0439483678782624
0.0418909764330341
0.042485931583788
0.042914027197498
0.0437797229997536
0.0413801816757985
0.0419540648894787
0.0408684793587322
0.0422484251599513
0.041769156630905
0.0421335811436375
0.0413912007777228
0.042487870774777
0.0419886133472029
0.0426705562089113
0.0401593061020565
0.0426830987298455
0.0420986836331877
0.0439950603423076
0.0398495724706404
0.0402044376506366
0.0407881512035736
0.0433460963670504
0.0414472147384101
0.0419538304692863
0.0421342191562839
0.0420860107326254
0.0391016120643652
0.041073993414236
0.040650956935997
0.0420301493759325
0.0412343161698074
0.0421132975457758
0.0413438738270072
0.0411453214589215
0.0394173829560087
0.0409293528611446
0.0404952094658038
0.0398197535986728
0.0389011213437478
0.0422938575549036
0.0394905214933615
0.0421656429728257
0.0398081771414131
0.0413368295877076
0.0403171192117861
0.0405979436566061
0.0383356559107343
0.042177550855155
0.0398184141645788
0.0416865425636293
0.0413161472870898
0.0413682644664307
0.0395886860859583
0.039691710325662
0.03980050459053
0.0416448344547515
0.0404188879227523
0.0392557805252624
0.0400956235681413
0.0402970845110968
0.0383240051894567
0.0399759231885348
0.0388013172606058
0.0387817699338873
0.0375477324570314
0.0391962819160498
0.0391288620654904
0.0404964195768827
0.0380549390055952
0.0383589473391761
0.0387993821598491
0.0381595155805422
0.0364198649175464
0.0376204306858322
0.0376260626312064
0.0376712623927477
0.0382568846443448
0.037937229268077
0.0377775811118901
0.0369115608310204
0.0367757390485543
0.03700484300452
0.035576272397301
0.0360225859141409
0.0385903762572538
0.0382498689016307
0.0343197569270328
0.0371063260155226
0.0346263545146699
0.0342643073300889
0.0356681668961958
0.0363309326162753
0.0338416477036354
0.0369870769065077
0.0339766004904116
0.0364132757250414
0.0335334835786845
0.0343700801990179
0.0345239609235828
0.0367717062150885
0.0353814275991
0.0346241466544435
0.0332405772568516
0.0345481518446441
0.0316760609888582
0.0346915879976359
0.0341661812906826
0.0367261369070661
0.0346937789729327
0.0349841466058762
0.0281605875622482
0.0352845832434144
0.0319613253460364
0.0342367522793836
0.0332373231768111
0.0354502586036501
0.0322386489493155
0.0334138067625952
0.0329947087377355
0.0336447967015455
0.0314750894037063
0.0336931710604581
0.0328099963163728
0.0330557845561152
0.0309404918425551
0.0339766325912597
0.0326287899824868
0.0339127366378161
0.034508965013603
0.0331918867099136
0.0321417558549219
0.0355160336099005
0.0321180096769828
0.0324564611130494
0.0302333425411527
0.0330067297643871
0.0292897296478327
0.034590346555918
0.0333012266784924
0.032101972568941
0.0333238576467374
0.0342070621013868
0.032046953506129
0.0302032294310216
0.0299423020988005
0.031910477508202
0.0319766836549566
0.0307481236146587
0.0299723764979688
0.0333449416194934
0.0319135555024241
0.0321492350385256
0.0301590827365097
0.0304732721129381
0.0303784959212498
0.0317341166293181
0.030977037628226
0.0300285634258803
0.0304021098738789
0.0325715501660623
0.0318810003548949
0.0316612405996782
0.0323199779570286
0.026253158031246
0.0357589033065559
0.030155919699906
0.0314413836615058
0.0291572162439689
0.0304262448091748
0.0317970302911892
0.0292580289028984
0.0294220343900222
0.030510402700731
0.029248033822481
0.0290054485099552
0.0303077118550559
0.0309857853895674
0.0285340301463493
0.0273893804756148
0.0326142375473629
0.0310460829392883
0.0300066613539084
0.0318670228956284
0.0312417738049514
0.0272310213648133
0.0328079446714608
0.033353820124271
0.0274951187740518
0.0325431817506105
0.0229541312801425
0.0285228344388194
0.0344379595923153
0.0270655358843896
0.0327154518585828
0.0274773523192478
0.0327247739735934
0.0263216573529404
0.0321586200991543
0.0256094506962987
0.0356703096613038
0.0273498061319033
0.0322839749793783
0.0293317763154616
0.0310467399937213
0.030603526261655
0.0296484782240199
0.0298080818485918
0.0305636880512076
0.0309742156058275
0.0310507361599479
0.0280294913965333
0.029002306038221
0.0277782683144408
0.0306802534881985
0.0260075484813799
0.0343787344983956
0.0273005005016958
0.0316233027321271
0.0287008871716672
0.0329848821420077
0.0270109500709021
0.0366588980099339
0.0258182279582004
0.0325084669196717
0.0284656266572557
0.0318614756706778
0.0289421746134934
0.0299277078842549
0.029639809024721
0.0294363453766582
0.0288379263301926
0.0299268203830139
0.0302541509944297
0.030137744263662
0.0289378323453369
0.0303988624704871
0.0298026409624956
0.0295404546200854
0.0294662825197974
0.0266342593277472
0.0301435833558807
0.0280901808787431
0.0268294385530435
0.0379422216531364
0.026085042353449
0.0363628895843338
0.0299506622792772
0.0338424872583166
0.0289688079028644
0.0324147970480607
0.0258123279636955
0.0342967668013038
0.0282286937548497
0.0322743516505607
0.0280377490750028
0.0320971549474171
0.0277786520627718
0.0321684765791407
0.0271470290583761
0.0321441349702393
0.0267661710845422
0.033594253263453
0.0262769725338035
0.0323784585133522
0.0274287848535874
0.0338280710780586
0.0301190927780208
0.0335118133783029
0.025943205748788
0.0267284074420776
0.0450396126228841
0.02377846131249
0.0358672314654497
0.0276727139757509
0.0319090774583531
0.030117157508605
0.0298333854681564
0.0287381911143037
0.0305951576370602
0.0304740400467289
0.031247531342956
0.0312890871249282
0.0321849003484292
0.0296912607931491
0.0243565446782064
0.0409724168136825
0.033607390780267
0.031664424003374
0.0352090204811863
0.0223089238823992
0.041537873749851
0.033244057115443
0.0307564876441647
0.0347536955971444
0.0302654338996762
0.0336152201143914
0.0303313119170637
0.0321966129573445
0.0305807587573375
0.0343086099387169
0.028117818021458
0.0355193390535213
0.0293583022902923
0.0346299120065196
0.0329348233711092
0.0339487165436757
0.0358792527975174
0.0324857361964893
0.0317837214977644
0.0352452181297441
0.0315763659166347
0.0349299522252631
0.0317852993981913
0.0337732397531228
0.0322173939437094
0.0395372267492088
0.0321723927708797
0.0381665208120818
0.0383817516521436
0.0313217541511306
0.0323497808395485
0.0366646307923799
0.0316841319975624
0.0376643072866716
0.0205186608086582
0.0527425738163613
0.0273721241055675
0.0462132676924273
0.0304594817437089
0.0394521197846997
0.0328017233388071
0.0393994956392099
0.0304055231088877
0.038722877334797
0.0369814888662369
0.0351939634664702
0.0388438013591019
0.0335383452192308
0.0432735505777589
0.037566349900843
0.040087373788845
0.035203070508711
0.0389651262898853
0.0359447767384601
0.0445299783957051
0.0268814232310087
0.0438166049114126
0.0462496019030707
0.0395465770423615
0.0495194026078072
0.0271584559285358
0.0496001905542744
0.0419983909140153
0.0401291348592025
0.0413489088893316
0.0405034986926226
0.0452543531112911
0.0331377546395108
0.0501659750308268
0.0470959842502066
0.0360206970724531
0.0474415010107205
0.0343701853181668
0.043153887010835
0.0475609945773328
0.0436696144513779
0.0428296679064131
0.0465734167382272
0.0375933720639032
0.0440697610408882
0.0619740529982937
0.0365626169462475
0.0592345972260938
0.0433133662434024
0.055532266424136
0.0454558294467801
0.0523101393398804
0.0463867342396497
0.0568498776320809
0.0500926244851509
0.0509203052480391
0.043862416289592
0.0685354273654002
0.0488502118304043
0.0558681822423481
0.0548317144268508
0.0465254705671557
0.0513900254107538
0.0775252988040372
0.0641165296724596
0.0618971181148862
0.0524526526366839
0.0650626363033586
0.0653040524518971
0.0599228462175585
0.0643635663580941
0.0631217423905421
0.0655082416535082
0.0631549877594958
0.0686900907073689
0.070119379970182
0.0654518234989516
0.0722053975942432
0.059826092835393
0.0735945737376778
0.0703612732314036
0.0914937185264181
0.0675149084841015
0.0832577800529646
0.0834998227359141
0.0770221563180802
0.0812283960575188
0.0752737550457116
0.0821276818228218
0.0823976895991359
0.0857158303760808
0.0849904430428561
0.0881422873900076
0.0987886980549159
0.0756802393651552
0.104994877138317
0.0881177180683527
0.100139763976419
0.0633126436985828
0.13492873804375
0.115753679861959
0.0992616476753434
0.11642887063661
0.0876882375589153
0.158886486454243
0.123677684043815
0.12766900910054
0.131014186503339
0.135850793478016
0.136859938816792
0.151401270737159
0.145977198238709
0.157553011016631
0.161628172712769
0.161885876770315
0.158417305284593
0.203083045319147
0.183774048487829
0.196339598378472
0.180062691687672
0.20073421272816
0.204946352890856
0.20814382978303
0.210041650530132
0.225582513448466
0.200861604214477
0.266633708513517
0.228826993483917
0.246693587476296
0.240613205454152
0.267528313818795
0.25258497402321
0.269163847223143
0.289868552284096
0.269055990656972
0.288342108011743
0.284239038960355
0.304492369262099
0.293692967900011
0.320402186630987
0.321206634419971
0.312254644076446
0.32121832249449
0.319650181601921
0.332877940973609
0.332405234283688
0.3430496170373
0.331381676229953
0.353339845208674
0.356943733124126
0.388480749967425
0.370691331586111
0.331746579344028
0.35144689642573
0.343992387191892
0.356401460614484
0.351373404578501
0.349615053804775
0.367311775114822
0.34419024398941
0.360766206327112
0.350513098813755
0.357113947421183
0.354049116992077
0.356626722884165
0.342739381217122
0.353934656896469
0.35691932198853
0.330609797377812
0.399056795871722
0.346309268421127
0.353420727072634
0.348488202188393
0.35314531508598
0.344436406077737
0.34315792953557
0.329427507673906
0.355003989248948
0.334413833925254
0.3364079125147
0.328864279367543
0.333176698996857
0.339566652305602
0.316425287467862
0.313480911085815
0.3012386704212
0.30722850586455
0.304188563547014
0.283358157243717
0.330406430341835
0.292173076224313
0.289494641354391
0.284456867122575
0.278887269685912
0.280593522454932
0.279579805000639
0.280894095968461
0.279125992280841
0.27070768564316
0.27394385661963
0.268915015129163
0.263670069259364
0.263412398862596
0.262251218387749
0.263047532859167
0.258908185638428
0.258918406303376
0.252844757047193
0.255905747222046
0.25515049077873
0.258379370170141
0.25472531319579
0.253609090043102
0.252560500577522
0.251553576396071
0.249553327914439
0.248798800628896
0.246979123158558
0.254372683465247
0.249578746526367
0.247699254752461
0.24570295115553
0.247982663182128
0.248230151712421
0.249728760666377
0.246543238435815
0.246296342004031
0.239431475263964
0.248967473356552
0.24024338926805
0.246138055892628
0.232510915436491
0.243806205150568
0.258106980361297
0.23167928200699
0.248144854908725
0.234316535043844
0.240866710982195
0.230109528919416
0.24280218464888
0.245423633304675
0.227992174681557
0.233439585037038
0.231060071428444
0.229007251162988
0.23593265553852
0.225147751195512
0.227802879603344
0.21781710445435
0.208667766932683
0.270058359708329
0.20642790350913
0.263749099380239
0.223697958864257
0.226139000094432
0.207893898468812
0.244858717425022
0.218743451277547
0.224468825517302
0.221184236532867
0.222222494148926
0.227161775309987
0.211097193753886
0.217076241273223
0.212113071789134
0.215555864927445
0.223933807594631
0.215126199726875
0.207484544082159
0.234198434090105
0.208337781964199
0.207704973676571
0.232332778329568
0.218086269158118
0.201054298323228
0.19776690123568
0.202096511680308
0.192382655620197
0.217008732452347
0.197426390753893
0.191243711804706
0.19362402073228
0.180310795642441
0.191802174377796
0.184504120254758
0.192433604027444
0.173948301879972
0.194764384808559
0.17691263003522
0.172896659672747
0.190102575827766
0.179483815494377
0.198446324645967
0.176424041324051
0.173929913500551
0.162962209735796
0.186265652235714
0.165820344001297
0.171287320162676
0.165619924067343
0.159279776032311
0.169394784651598
0.162643328016686
0.152046794529726
0.166516442072179
0.151309120326243
0.169359099756335
0.168991747596392
0.17091155875659
0.16223645948955
0.151367792085428
0.154022102268662
0.153806872900963
0.15129991515362
0.151870137114878
0.143303018059748
0.163988924518024
0.135716633059534
0.173176252150033
0.158630436023828
0.153012548169125
0.157483839062488
0.159166890190201
0.155369521768838
0.167405529770562
0.166068403887193
0.166950823917256
0.154587574776229
0.178189332594468
0.166113936546689
0.175208175120271
0.169852741421645
0.178894972813693
0.176144459836374
0.185891124229703
0.189325315173936
0.195404646453261
0.19255176564244
0.202464356037823
0.1915107453679
0.227847666432167
0.206608440709094
0.22159304987592
0.228617774608103
0.22895474256743
0.236362191361013
0.22991041185808
0.240515524212188
0.245804899470503
0.250390208686046
0.25466065954736
0.249387930082632
0.27785503587955
0.260331239931111
0.267250055643798
0.265404651399066
0.271233143875179
0.271317668000058
0.278654210173361
0.286831731986526
0.2720959844227
0.307409945519894
0.275207757264278
0.29308732301766
0.289084556182202
0.290076949027438
0.292975016794984
0.291755558595364
0.296567252188575
0.290077933238354
0.308500127476359
0.299947386652674
0.296022275352189
0.305353861615706
0.30319748142449
0.311677893877965
0.307544183948659
0.308772261395737
0.313821181928169
0.311182261483995
0.317700347314293
0.305393459921818
0.3427195702464
0.333425600362597
0.319462906015036
0.330645491175168
0.32589344596294
0.337008688669444
0.330331310246273
0.33588717702782
0.345802464614084
0.340772559823283
0.33956872040623
0.341162068213341
0.349050398546757
0.342346864765834
0.351869603520038
0.352497458214939
0.351087822780138
0.356311343924593
0.337595201332754
0.386467748336568
0.354851850429945
0.37016237841835
0.36191471598474
0.361488603040362
0.363701522994469
0.368232847798662
0.361195726740185
0.36797940808056
0.368592581858368
0.370621976805181
0.367569791580919
0.366028036776238
0.367171628255264
0.361726886181978
0.365112618200706
0.364739991572186
0.364143139376362
0.367556996018318
0.361718135501253
0.360010567843499
0.371009786074049
0.375963757963487
0.359638881320196
0.364918113148349
0.356240224178308
0.36446851589492
0.371504558645316
0.359747281838519
0.362147077961184
0.366597464787068
0.362207449797755
0.367543871565897
0.358116992378728
0.376930462694767
0.367179767802603
0.371006586764613
0.370656459317604
0.372425974126473
0.372298037208241
0.377643870527107
0.377624508192339
0.380911414816041
0.379090905818116
0.382527334192094
0.382107859727309
0.382417150477203
0.386643215417033
0.386536641878118
0.386983130281553
0.382564172343604
0.380183407171363
0.377870652683038
0.373772705162509
0.377483129294568
0.37186535805363
0.370503777150394
0.36412088731543
0.365114450980234
0.352784042051311
0.365873034590253
0.358159935191953
0.350772709568541
0.351942908653926
0.340817066931029
0.344820158276034
0.338174532748051
0.343744836470377
0.337378591540875
0.336763417458692
0.331650223359932
0.330701973756413
0.333366896803109
0.331963383897961
0.326585723897979
0.326559860878811
0.324978206044949
0.324955496370713
0.32536211116701
0.324894000514565
0.324735978326045
0.325473341735021
0.32332753669042
0.322994177775142
0.323768476919239
0.326964015178203
0.318812178178075
0.322645022499112
0.320091410947555
0.325233334069049
0.320490433035694
0.324145458890078
0.324233564659001
0.32303235064145
0.320174182334005
0.32101192335801
0.317979227975872
0.319262291863655
0.319384630653831
0.315034505819081
0.313545406123317
0.316927984311305
0.31766307682788
0.318813316860854
0.317972366095158
0.315756250038651
0.313626378099785
0.314627448016028
0.317800014224298
0.313885255870646
0.315782182380639
0.31272746906976
0.314721584145261
0.315186820006997
0.312093273568461
0.312331727613625
0.314924959914963
0.316494725121163
0.315355379123008
0.309727005697869
0.310978185641802
0.311729457319135
0.310505610993436
0.307365646887824
0.307157435265175
0.305467131293473
0.302035739000066
0.298972930621861
0.298626225012488
0.292382907152232
0.29287724219464
0.292841963894369
0.288632190165471
0.284715552079048
0.281126161250593
0.281887212605
0.280462258673647
0.278688507685137
0.276437375890962
0.273133005262282
0.272631236687665
0.273180515605047
0.271696956496768
0.269503753434001
0.270206654257759
0.27116666884984
0.270506718187144
0.269497633127313
0.270176067403563
0.266536403606081
0.270308796703431
0.266732211554209
0.270502212458118
0.269633542195606
0.268708346505198
0.270675198176244
0.274222376840473
0.275021332002434
0.272975250561424
0.275909528295689
0.274220018639707
0.278089238832395
0.278414878182217
0.279828627215137
0.282268631291812
0.28289789650912
0.284753483089369
0.286800427474847
0.286079805828436
0.286684946870976
0.288609516326553
0.286927080030374
0.286305323854365
0.28544958215428
0.288795005363807
0.286653274660071
0.288202585056694
0.284566181841694
0.284134958332156
0.285965025571803
0.282876714339355
0.283080588329443
0.28330529102103
0.281722552905563
0.280757107619804
0.27985038601175
0.279369468091503
0.279077742969369
0.277638975008334
0.276905596236136
0.277076803691008
0.275991615805846
0.273652064989117
0.271670558703511
0.271077615811232
0.272011170630058
0.270222609152016
0.269350308273846
0.268253954485694
0.268618679020297
0.267155789232412
0.266565710849317
0.264376672431785
0.264097588682917
0.262748065956706
0.261753052219547
0.261465749571365
0.258490036736295
0.258352692696162
0.259264152365354
0.255537620616627
0.255411336615325
0.256119987129064
0.255192818530472
0.251684778078077
0.248295005796076
0.24795219534699
0.247739103242464
0.246059744800189
0.24471001658813
0.242129644096964
0.237914223471107
0.237045176198339
0.236525001966464
0.235916589411395
0.233419341855595
0.232243915421054
0.22946641358859
0.230116971487738
0.231568100162292
0.229115798943051
0.229748361698646
0.229641467547884
0.228896798682309
0.227869241459688
0.227927307565888
0.225325398718732
0.223317755242192
0.223617965115609
0.222084312164821
0.220357535656162
0.215504273402334
0.213389247075415
0.211845159722583
0.207173166420629
0.207285344314909
0.20454107724482
0.201096737628359
0.200300922293833
0.201839922123717
0.201046510561652
0.202867674939124
0.205767994383688
0.208451397489005
0.212698296552495
0.215197365744316
0.222387476327718
0.228564132469471
0.23767596240281
0.24464930628812
0.252620436248672
0.26487726171763
0.276612043765801
0.289404767659736
0.299236536481352
0.310783191494953
0.322418111275297
0.333623677440599
0.34579127477449
0.357213622391434
0.370935303240564
0.382456825256986
0.391062660096877
0.404891145704455
0.414315279438403
0.425849498003049
0.436775643120265
0.446426278877961
0.457945646194102
0.467017662537192
0.472430645279444
0.483765132232483
0.489782196351114
0.496734431430093
0.503373527778569
0.506955197931965
0.508872623355589
0.512095281997586
0.514829784374549
0.518496805091959
0.518493249636524
0.5174018803337
0.517928320472308
0.518504863493991
0.518937472070814
0.513921431013247
0.514898704254467
0.513577863300449
0.515005404774033
0.51427679287305
0.515598657668125
0.516977689069417
0.518240353953821
0.520963045311883
0.525583539150461
0.529340454218069
0.533250896255519
0.536418181732595
0.539687166587141
0.548354565394369
0.551434880062527
0.554616523865289
0.564154072282578
0.575756440284072
0.57843438220781
0.588557358151945
0.592295115946329
0.601404295924111
0.610995464681225
0.623008019192113
0.626779518844691
0.636015533714137
0.638857448073525
0.645962927403668
0.64769108610942
0.647881772179809
0.65040088306569
0.653291111467233
0.651859013365706
0.649894968806715
0.644045364015386
0.650601981904482
0.641545160570483
0.63992911647939
0.644829083762407
0.648383841899722
0.64641359945155
0.652646983675368
0.655343277856366
0.658065829088068
0.676807926960801
0.688378640906121
0.691471840614222
0.703030506050688
0.71514837627173
0.731518843548059
0.738904627470795
0.743834444093278
0.756572812097314
0.7758635806498
0.779905370710888
0.785681977936596
0.801315360329545
0.815390057121133
0.823664010907128
0.838339487691465
0.845271801950925
0.864892733914148
0.87974165398949
0.899563250594536
0.925218911517555
0.945171680409056
0.944445770531753
0.961012218786122
0.996874996545806
1.00546536135496
1.01401474452007
1.04013734718996
1.04700321903658
1.05863003068795
1.05915346043705
1.07107914917839
1.07030166820657
1.09610133348508
1.09043382023765
1.09172636713339
1.10447329733232
1.10511536666103
1.08136987644341
1.10034028222069
1.08829143896086
1.0679235373023
1.06425065524571
1.07094386491127
1.07907416061857
1.07189216980273
1.0689100646391
1.05223338328433
1.04797889125498
1.06799434796988
1.07321067953692
1.07442373161835
1.0716695098808
1.08850916561175
1.10713147561542
1.14015398543431
1.13243025190235
1.14859916699558
1.15282992404682
1.1754535183333
1.17305697714787
1.19122093779452
1.20302901957014
1.23004364778408
1.22462113685861
1.22486751163096
1.23713978812039
1.24038374441847
1.22589217352888
1.25470088457834
1.22758208931556
1.24312768918274
1.24896511351448
1.28033996790902
1.27725264123715
1.28027159324321
1.29314320700339
1.30498074690296
1.25588774816235
1.28050992019745
1.27081941609712
1.26231072780813
1.25104427099038
1.26682304887886
1.26269229264176
1.27110594404791
1.26266885693664
1.25353264443539
1.25424526673094
1.2314379577894
1.21827769728055
1.2075003530992
1.16164102988218
1.14928147416911
1.10395692502857
1.07826937039777
1.05130931883738
1.00784636299897
0.962324960261725
0.941381681056713
0.906358855651497
0.866978438319705
0.828333758153933
0.794498684480448
0.771531726162039
0.757405813309543
0.73726694875145
0.723530939341807
0.710834461476367
0.703197253363596
0.687134194523071
0.677694387811325
0.677530092018079
0.662049456502847
0.662844445277447
0.663396365049289
0.637749662592815
0.638324165406496
0.632496252834104
0.616941126997483
0.608911011228874
0.589266844014644
0.574835592744364
0.568292204897736
0.548360229698461
0.539544080033449
0.515581510816321
0.500769048703335
0.482717486503019
0.464960424714626
0.450064844347759
0.429819783637265
0.409327046297888
0.387767122347794
0.375593375549548
0.359022231779266
0.337745783918729
0.320600145623637
0.302702419345831
0.290175811355735
0.27487025893963
0.261756334977941
0.253233030904556
0.243469983619175
0.232531872455319
0.227312200930166
0.219325962031108
0.212960759226313
0.207361905669306
0.205676573364777
0.197023904274749
0.194459863817019
0.194793810274347
0.191273587555627
0.190212866266067
0.190455973912481
0.18852139286001
0.196398277412662
0.192516436518639
0.189225379100821
0.19308329641686
0.197097611329542
0.19356433192595
0.197789444803624
0.194280039522159
0.198462139116486
0.20119814937574
0.203039008230555
0.201902858777788
0.202782199754721
0.202434046522085
0.20094491777721
0.197628461283152
0.197508302839294
0.199027617624947
0.199244097897736
0.197737325129993
0.191422695519134
0.191083122276288
0.19045984493466
0.192984450712921
0.190684665715339
0.193022401134666
0.196527314808243
0.196878500586123
0.197134443507902
0.199027599954853
0.203470711578379
0.203249151051004
0.202251927782194
0.202750958980192
0.20761660626527
0.206199542540497
0.211191964778011
0.209774559121459
0.212170649485358
0.218141995201772
0.213236967498308
0.211621861760008
0.214651262096763
0.217120600143568
0.217898321404184
0.215009494011583
0.218560486560029
0.21521940760575
0.22119991732035
0.218898611186713
0.219654705015255
0.226101585445242
0.226485486818783
0.227363848859061
0.231498638462598
0.240054988727703
0.242555921529843
0.245461665967639
0.250252267239163
0.257050218595124
0.269342290376481
0.268407338030645
0.282880180139341
0.284778065689381
0.289053923704985
0.294299071222693
0.300428754338649
0.303567300621436
0.302542449294452
0.302153502210963
0.29342263967119
0.289172944214651
0.281596470832865
0.279843659519028
0.277348408676398
0.269995980034843
0.268800512164139
0.266219359235078
0.264784055441444
0.259908584342088
0.264879554562281
0.262116071311433
0.265060251739099
0.265981117380476
0.269271032557568
0.270154061494212
0.265668542612918
0.264451212402377
0.26180718297288
0.261724349255219
0.255030688464015
0.259680113379754
0.255544132593008
0.249918631559311
0.249003125554495
0.244614583401662
0.242868051488853
0.244804617365488
0.239794518835733
0.237384489562343
0.236837285264371
0.238243648655145
0.238710325150664
0.230937436355879
0.234593179099052
0.234138658956355
0.231292844790138
0.232542908704585
0.231361585322302
0.232734626448393
0.231507849609809
0.234558763639888
0.235765749194426
0.229559283251351
0.223650164609425
0.223959163148464
0.223735500179464
0.229807606473017
0.223905958940743
0.227065952438221
0.216108281004456
0.217775933280198
0.219510575044245
0.219867198042034
0.21669292698032
0.208021080335746
0.213454704183546
0.218241933120566
0.219824194104045
0.211435417741776
0.215958978075973
0.209443269033173
0.2088695463952
0.208633841117382
0.209779466201443
0.209517199434025
0.215926977044893
0.20879691394922
0.219321662905373
0.212698554956489
0.218072317949814
0.209775531435003
0.220063420219859
0.218118770940891
0.221732118845867
0.216136318417787
0.214408880181267
0.222688405430931
0.22385824118807
0.22204845863466
0.235111817498248
0.220490176412452
0.225367746784671
0.230803863839717
0.234313508551146
0.237705605964618
0.234962411651701
0.227671917179315
0.242085606346855
0.244713872804347
0.241444276706887
0.233169789813838
0.260144577588573
0.263492338904133
0.263689514075437
0.267208095194309
0.274299426182782
0.271894619398167
0.280533453866776
0.286767364088225
0.297204320490364
0.298520673309681
0.293800142218165
0.302830465872327
0.329390404710043
0.338686230376102
0.345524047605399
0.351589271022632
0.357294606485143
0.359132042992264
0.39440889572528
0.378738368860889
0.378327779781521
0.374422763614034
0.388989152707286
0.380061089927818
0.391354438466139
0.380366732930575
0.39229656791109
0.37818664467998
0.383200780689626
0.392071489185153
0.385582610483178
0.3622369530587
0.377328311353796
0.376059430287548
0.401491716062763
0.379345389019577
0.379816381823905
0.363081788376684
0.360563117469042
0.36358699461402
0.377128813144937
0.346867377030777
0.366121287782295
0.362239815036981
0.378137627354285
0.381543632687864
0.363535721713403
0.338076693032477
0.348343193440904
0.343562703381303
0.335988503656112
0.328260792730206
0.357275724378721
0.330093055558274
0.351647334518274
0.35103625527958
0.346877591154317
0.320189701732003
0.350178583487858
0.340600575108467
0.34695329563622
0.315120169362252
0.335153521385105
0.333599473508829
0.329267611749688
0.355941792838831
0.338198530694645
0.346868239222642
0.352121396179666
0.317123591531034
0.340572762257698
0.341366068977554
0.340396536357111
0.336115155983214
0.359997884782422
0.359990851767423
0.36223388148202
0.344012221850488
0.37872033921373
0.375058317449498
0.357844301732444
0.361288878527605
0.391171738157357
0.360905617364035
0.370199148139019
0.380491830764595
0.351696706561177
0.386628961695017
0.398347300018809
0.362742672254557
0.378147173017318
0.465616028663381
0.405006892958556
0.39196226988962
0.407716272916446
0.386779826839557
0.408851958504923
0.416593592420243
0.44230592232296
0.452715437783574
0.487289041028176
0.428346517749136
0.447609244891381
0.506371915320646
0.480025719255802
0.456176082571142
0.473817305490772
0.410615770037777
0.460063406214128
0.420570322518384
0.483372640774872
0.471116521487446
0.562010335820036
0.48214293812928
0.504256284070104
0.468577271099708
0.537716537415249
0.433513085106849
0.450238056275399
0.452954548002701
0.46359542552913
0.47169726613251
0.451682252739674
0.453912301037344
0.493020330074414
0.361658549318563
0.385694396904646
0.492187619556212
0.442805771678607
0.417582098944621
0.548161444690692
0.443388282439835
0.498666775928161
0.456105698062823
0.488723167764085
0.465417527606039
0.436189791582464
0.398348334240557
0.593632135618393
0.51074752906209
0.566974905284611
0.380720185812726
0.35530496035624
0.405592025630298
0.516261466754232
0.379901772463626
0.589414390302728
0.412287484481031
0.315394114707786
0.540082163905605
0.514763660064876
0.495383919079254
0.668579676082337
0.527474032558041
0.552139757434162
0.352345869874244
0.554389370052513
0.443096633770946
0.504057761680443
0.599335950068581
0.499658310617444
0.536755821295611
1.04086801390891
0.396795737139607
0.94131784191974
0.523829701338996
1.23385467356583
