3596
4000.36533379555
650.420452594757
1
2
2
0.0716452837436623
0.0634374436397549
0.0742052753497462
0.0656480065961965
0.073871369239768
0.064436294481823
0.0737218851874825
0.0593107634112401
0.066355075937985
0.0523832093934087
0.0696980897788925
0.0559668419363822
0.0656091559187557
0.0598825827086998
0.0697686542123987
0.0550681894726403
0.064083041400437
0.051718697438806
0.0615620539496934
0.0498615529042299
0.0755612859418405
0.055557876209774
0.0714967444338756
0.0469042730626337
0.059742396186318
0.0616732880358234
0.0757696429580605
0.0605444881600696
0.0692131775440833
0.060235734393502
0.0696289040605776
0.060361205620714
0.070017230455993
0.0497585070682139
0.0699410831699011
0.0533927622949699
0.0682948516923856
0.0629860789203411
0.0728941201678918
0.0527225883618861
0.0687533437845657
0.0590707411011304
0.0728774427897608
0.0565603608343784
0.0714547301436821
0.0663610634591694
0.0730946711243192
0.0658201985446932
0.0691357774406857
0.0538893510983942
0.0657931792526276
0.0579564586588046
0.0758930411211403
0.0582680736566857
0.0692739107325526
0.0643593868061682
0.0787388498588915
0.0578578620431647
0.0657672118997031
0.0517731574311178
0.0721867817209462
0.0670894142424063
0.0792499181551427
0.0561051573713099
0.0681489403890048
0.0531960131096257
0.0705824877870999
0.0495148034013689
0.0731730749393462
0.0566385577921212
0.0618437466647555
0.050581618586524
0.0753572273638162
0.0652810819960202
0.0727169446857394
0.0569302598337434
0.0698847876106597
0.0508778129635219
0.0558360393830329
0.0559431661782931
0.0837977330663535
0.0633696520582869
0.060578510101423
0.0523212240092025
0.0727576175342038
0.0629601063713225
0.0659090293445122
0.0487037105844828
0.0780694903360588
0.0602878584146486
0.0607843948472719
0.0542175360431171
0.0595650259868114
0.0523909397638995
0.0627087767842563
0.0523789470610066
0.0734067060238741
0.0560173364283834
0.0657319942384911
0.0669901363620203
0.0594723103407377
0.0633592808435603
0.0798374407126902
0.0619825742681628
0.0858392812674945
0.0560544129039568
0.0509135327601426
0.0726882475326321
0.0806705363991137
0.0536492817323843
0.0718984908500096
0.0460269382813705
0.0659247049184515
0.0523522186600425
0.0569382952230613
0.0577214385380042
0.0895071736083284
0.0569737815531558
0.0598250821170709
0.0543249619191946
0.0488235672581562
0.0575533622646242
0.0886248433385591
0.0571107838432861
0.0732453412560914
0.0570239472731809
0.0520124376274694
0.0744735197260545
0.0883524878396475
0.0543669772464864
0.0545452335192512
0.0535282503924818
0.0519370534605774
0.0521032453491547
0.0762153101751336
0.0612198264664472
0.054443545395173
0.0369889504939792
0.0687344581449204
0.0880606811275376
0.0840120103092575
0.0546707565238037
0.0436245054234332
0.04904005387418
0.101225713233354
0.0562711907696866
0.0592176215729588
0.0670670090930072
0.0678061263558812
0.0555001794675962
0.0557672841927267
0.0512040848452399
0.0765662697045904
0.0519026042705949
0.0342524558148662
0.0719596500431838
0.0910029747038385
0.0776685648419723
0.0788268416666977
0.0750522307090232
0.0572271565569195
0.061006444112303
0.0583691167502144
0.0487097437050425
0.0554919138253724
0.0527833699027609
0.0629456784916977
0.0701232685030541
0.0598127686414603
0.0502018692406387
0.0865579058647002
0.0478184849572548
0.0645397400569311
0.080985728432415
0.0744066941950154
0.0428856227844306
0.0761314551452111
0.0607427541136202
0.0530532228842913
0.0584956300801487
0.0809487475263976
0.0633923464246536
0.0586147957150714
0.0547435836023111
0.0585296664776548
0.0647135623336123
0.0612258008596796
0.0597475394000074
0.0607510660617723
0.0534052685201332
0.0635484270712874
0.0918822653950824
0.080865182303143
0.0631629891008191
0.0501696421912329
0.0436020338209991
0.083434152746574
0.082779836238815
0.0587109797797257
0.0455157308164247
0.0541047461290017
0.0439345973540102
0.0475340347439944
0.0543224133796573
0.0463935183329764
0.0387336603752362
0.0818250288008153
0.0818166750015158
0.0599850732015392
0.0546295116935828
0.0483685023390281
0.0441727982833919
0.0963106886010563
0.0758998658066213
0.0644214974629602
0.0446883513958703
0.0619304860201368
0.0633825187556871
0.0781711294374339
0.0556978967466965
0.0584616154933086
0.0553867273268804
0.0585574568374002
0.0522766700129806
0.0650128823088808
0.0505802672021139
0.0606910901639129
0.0552828594474328
0.0576633080903556
0.0520810031129935
0.0715385679298057
0.0543883448456183
0.0619614495969656
0.0496178205021957
0.0504123027289819
0.0670761311901064
0.074399575971238
0.0638744961573566
0.0596181780357476
0.0574703375091998
0.0547836020382802
0.0561695055220851
0.0604280508588487
0.06430460729756
0.0470261330258069
0.0510448446367769
0.0630754407601743
0.0706718371634334
0.0578440276794874
0.0447213540079777
0.0715590781754549
0.0629098685964662
0.0606626831123477
0.0488007249274836
0.063506101957309
0.0468744549631465
0.0542280370279496
0.0657574251392907
0.072907915285794
0.0492817974954989
0.0707077954036481
0.0572600877614746
0.0680299593170103
0.0346492526356817
0.0469321176418396
0.0865469919529063
0.0731478668363433
0.0522436187201088
0.105820785429988
0.0711955093147102
0.0727698167932527
0.0408210049951949
0.0397458721198369
0.0948202142898936
0.118706315971032
0.055444751480801
0.0615633183062752
0.0608516182780165
0.0691559634139829
0.0567635963312939
0.0602145664539027
0.068440441488814
0.0591199578470226
0.0954957888020081
0.0824098621812322
0.0479422486721445
0.0727267722448922
0.0843405747093261
0.0731193831326404
0.054385221307839
0.0576776571461796
0.0531343267231999
0.0687827850971472
0.061338954399649
0.084355173389818
0.0577882375787457
0.067206614259667
0.0764648617224245
0.0792520676639461
0.0486806522417757
0.0726495578767011
0.0549915442810033
0.0747382075841301
0.0550688617942564
0.0677259389338578
0.0600139355666414
0.0484840783336972
0.0464176055761469
0.102566444971602
0.0698711086622558
0.0691916240005836
0.0724100656781602
0.0802872007114047
0.0548014942671793
0.0653912898607877
0.0541943279967453
0.0732111061926717
0.0469820403179949
0.0590368469805549
0.0684795871844975
0.0776101145538231
0.0568713476060472
0.0635767122060217
0.0580513021032079
0.0692560117572427
0.0574688916661034
0.0683627847629493
0.0644524463915436
0.0704229073753984
0.0453591575881728
0.0840400244984998
0.0699384015287321
0.0581382397242195
0.0752828292193548
0.0970586964209924
0.0679506610867268
0.0727767816779985
0.0692752847548384
0.0754561793150853
0.0686543735942075
0.0752263999154343
0.0682042617643765
0.0763440037139426
0.0772728024241603
0.0841395180578388
0.0678111595832563
0.0662849387182481
0.100868527262317
0.12380803355359
0.0948385134290698
0.0790236603004139
0.0566735207239305
0.101217657009613
0.0885225623394675
0.116602592837975
0.0858502928743227
0.094240285885319
0.0739038970040845
0.0932580105156357
0.0761564353700962
0.0945571572894457
0.0793160494142466
0.0934236921060421
0.0803043072420155
0.0955544948276949
0.0914115264622633
0.0817184163051647
0.0822112132295827
0.120968355828618
0.106331275216863
0.107325348634658
0.0931144546619627
0.0984245381476427
0.116356515468286
0.126497489472785
0.127308295632021
0.120861624508664
0.13500067766161
0.141951208891611
0.125335838873723
0.11693813433514
0.114089657146753
0.11871488873282
0.120329370313427
0.123334901892455
0.12327979292569
0.120619294983331
0.122531168973888
0.128304627743343
0.122241319072
0.126518720206816
0.133324133770891
0.150615016355046
0.141719735480739
0.14213490130732
0.126241900036384
0.149842195299025
0.158528787717001
0.206506756442625
0.150984410067137
0.161323201573995
0.140136911583356
0.167734259674349
0.146700905826972
0.167957799853919
0.152851693935454
0.166581550768977
0.167915462470836
0.183353015118824
0.176347081412354
0.188143497331725
0.164292518575264
0.195307633771578
0.174100023798401
0.198328566178205
0.187074031345858
0.201521625655101
0.176443292717562
0.22519726499958
0.19374531952726
0.230138064228346
0.199111841250862
0.209071436931897
0.192993554607875
0.21689831686413
0.20112637083931
0.220609927350989
0.219202033900333
0.225171696495595
0.223998266458386
0.234347931408912
0.221802179270861
0.238872234644443
0.238975723145116
0.237689172084453
0.232280600550758
0.2465205502109
0.241586906586527
0.259748469010137
0.231495434914139
0.274313098715311
0.242477030206903
0.293037162598293
0.269225785968091
0.286106039753673
0.250491526885341
0.286771288957225
0.254465052766381
0.300447081045146
0.274031965442416
0.299764646989555
0.283990100915306
0.306708787660934
0.292801381967897
0.304237385874807
0.300055866236123
0.314821546573235
0.29875633300674
0.321043635097822
0.293021878632246
0.329595805245822
0.309186521923625
0.366843757263833
0.333655889860094
0.388720374445581
0.328598173654804
0.360263571357721
0.328546094799357
0.36651699978712
0.331782897366227
0.353266138188031
0.354651862631355
0.381830967643557
0.352249286131422
0.404967326789029
0.369803754588235
0.389417975842857
0.372153106155107
0.408722155564361
0.387043237377299
0.405804386339489
0.394945544371785
0.418565628278087
0.401874145800662
0.422530529142356
0.418576994848606
0.412429570921747
0.408831886359979
0.454365323430973
0.418235245625384
0.440854428310701
0.422553237566218
0.446054995997521
0.438009457047702
0.463443034579923
0.434213334701612
0.461105290975624
0.445969179810683
0.483444326902241
0.459328039639227
0.478120098447487
0.457046705213166
0.502654037958839
0.47608576938706
0.526792056483417
0.492437986169966
0.53574253989517
0.492007068120826
0.53576681159517
0.495506300757412
0.533482873178988
0.512545158340217
0.563482863983034
0.488282451563142
0.556278557282949
0.511722621650296
0.538603332038138
0.519018557771789
0.574017844780866
0.558534777054889
0.564494136342947
0.554576461843456
0.613286819701359
0.588947015935306
0.596087369228865
0.55915985779358
0.608586209301998
0.57340112036051
0.620702178539368
0.586534450144632
0.612576069559575
0.602464031572606
0.63682219767574
0.59036913564644
0.64169765551253
0.612998428308678
0.648662154778482
0.603950111182098
0.662734663805836
0.649693874446341
0.668833693898653
0.662942628915943
0.705564644418656
0.620663889529125
0.695032568802869
0.672397633097562
0.704184273887423
0.650180566468564
0.719789439736542
0.648264112517194
0.701447820639062
0.676904307566119
0.741723590033646
0.728811917899585
0.750244277977648
0.722066829191507
0.763709657275818
0.686498810347739
0.759158785871772
0.75989131596073
0.761043699948966
0.756044302928292
0.791446585174011
0.746667905359392
0.79420074571308
0.742399995869821
0.802609096189688
0.720991670813316
0.775473802255512
0.758059865712717
0.849104883403775
0.749993287237079
0.841730892663494
0.766054060010809
0.853261431658448
0.813909287646026
0.857389405009135
0.8173296845895
0.838379088390805
0.847956272366675
0.894426652350067
0.855536572812046
0.899714321483618
0.819044407936743
0.914038705463459
0.855574471643052
0.899350252429307
0.822727067893221
0.952698878361934
0.855792914992819
0.936797173750748
0.842652015572709
0.918353965137701
0.89878226391199
0.965611669220171
0.862167730714734
0.958640189574356
0.863165768553768
0.945573623429105
0.871838958957443
0.950444790296182
0.867125031171801
0.940194155535831
0.916734700543223
0.970684327781656
0.897317941882769
1.0226830952528
0.895350302373581
0.991023977535542
0.942632163352029
1.00307429512518
0.904562421765253
1.01424688224497
0.938910269102452
1.06379821099214
0.968653735350857
1.02856593870095
0.976619779813351
1.02018024038301
0.9741202266463
1.00404297462222
0.948967852586167
1.02198775656766
0.959972055038002
1.006847947719
1.03200962200817
1.08095955862382
0.940264679336995
1.09797681908903
1.03099908148665
1.09812615435995
1.04263621105397
1.15840749210417
1.00356445753852
1.09598117020856
0.995268583992395
1.17517825158466
1.05591470051015
1.09261207795926
1.0046773982518
1.09737138086095
0.983096417976743
1.11390892954896
1.03592981022998
1.17676602717818
1.13057266624624
1.12908213752383
1.07097616565037
1.20447255569956
1.05186729487001
1.14894939032894
1.07321260465479
1.12702570691086
1.15276911180952
1.21068514627511
1.10175033356065
1.0964723813738
1.06312094481692
1.20553993168734
1.07338664861134
1.20023682679214
1.0646436606564
1.18227999706469
1.10855151744778
1.15010461336594
1.16127399894035
1.24121754218551
1.07324297113557
1.18307748359367
1.15389646758788
1.18309732235193
1.13449327357952
1.25498219783186
1.10586820356191
1.07878959295301
1.0903059444394
1.20144345305555
1.19659511647837
1.24513203561048
1.16367592026766
1.29077442251717
1.09373165457227
1.28025650596374
1.15714284990913
1.29380756351705
1.16054014669988
1.28430010476129
1.1663906223761
1.22831204933805
1.15092627610453
1.2490061178069
1.12999261226983
1.28954710758306
1.14290866642938
1.25387193418202
1.16380008412186
1.27717599577473
1.18993656294668
1.30916221439669
1.19032496166808
1.27437304142041
1.13617373498646
1.27679725511457
1.18422510929194
1.26880000313929
1.19626540139962
1.30425817388971
1.15662025488249
1.24105197368478
1.22707773979717
1.20233384498139
1.21451934552015
1.23969315508077
1.22784407044428
1.23054300853181
1.2287015220776
1.25609609561671
1.23004360038742
1.24830768334821
1.18755851726625
1.28599106231967
1.27298585052238
1.26633846661658
1.25122431787954
1.37581305057993
1.28403956729693
1.25300395600935
1.15401017556195
1.28301927206245
1.10342884907521
1.24090716924962
1.26263670379493
1.3265529844819
1.20294469252331
1.2494255346016
1.18669172014063
1.27127700225965
1.17868484521064
1.3128865259722
1.12138114223011
1.26260118797745
1.18775637857726
1.31695565430431
1.21967541831356
1.31170716107794
1.24000600504296
1.1895019739377
1.21792124140535
1.24966804974028
1.18722022024469
1.22034661819884
1.19364853573284
1.22570594737309
1.11906087714272
1.23460727554328
1.21221716708786
1.30298798909639
1.16898096111188
1.24850573278728
1.19361211282304
1.32919445565971
1.22134529903538
1.32020205719981
1.12374366341398
1.33285778692444
1.20076535507098
1.37948383997779
1.28725318008716
1.27476698825581
1.12634801292087
1.23814591754089
1.19177184542694
1.22361557571981
1.15256527940437
1.22761414583288
1.20440105754412
1.28551192289844
1.15314147181293
1.27907640683335
1.206970101123
1.26617088575242
1.16552205609557
1.28964433473483
1.18648544624692
1.23814102074333
1.18455961101448
1.31481886517357
1.19337338745619
1.27070369999394
1.20698562653846
1.24996998553728
1.21455273033166
1.15306150603797
1.15750423859248
1.25159536294887
1.16138339006142
1.24899131197445
1.09857363462425
1.20810591257377
1.15292780720264
1.27112969545703
1.18356802690773
1.17075924256294
1.14544892268552
1.21674230145083
1.09948966698331
1.21075691918305
1.16981344024587
1.20059330035311
1.13322194015687
1.19718192480511
1.15943173319702
1.1670321404648
1.11433175239429
1.19846467026572
1.10068687421464
1.16961155935981
1.11345866960618
1.23056292505907
1.13373855584379
1.1659957733301
1.12802469780161
1.1713650295328
1.09665260296996
1.12785890237949
1.10208016015205
1.15093739416881
1.13889890038435
1.17252466369167
1.11552887737645
1.14397377556066
1.11180853233592
1.09649693313508
1.08231374780913
1.13053408669996
1.06790236080777
1.11495165657487
1.04625572989382
1.13364064437556
1.07448521641913
1.13944428714913
1.07212587463004
1.15375340339049
1.05004094938184
1.06345736728898
1.09779278288289
1.07431745109662
1.05296176721257
1.08927874132789
1.05113862617613
1.07402825424272
1.02983869000918
1.07174309128107
1.01857282400781
1.05263217958351
0.988849181513741
1.07152983938492
0.972946512703219
1.03237202760206
0.980379567519701
1.01029596132724
1.01889074337438
1.03482164705815
1.04423839597242
1.03920889285332
0.990651093282333
1.01324295748876
0.987038563522839
1.01348228015985
0.995400152873395
1.01165619846514
0.989747595196287
0.980326051055088
0.917791019306285
1.01745959998966
0.950254135416647
0.970290640075616
0.914844761384264
0.954018366081768
0.936550414942595
0.957699341940281
0.900604853240093
0.947949755724872
0.91245499066352
0.957944435370455
0.900119247851674
0.918871333469382
0.91141701779966
0.9349821328315
0.907089544532255
0.913607875192513
0.886096544393904
0.894575576531068
0.875898229503379
0.896560352952975
0.859975015808586
0.90150321679583
0.877065295241976
0.894074309000513
0.868732193510572
0.878585239712074
0.830371667629884
0.860107183338973
0.868579245639068
0.876263018611898
0.828974315094316
0.842884249132139
0.854672279513586
0.841022052203764
0.804277990009608
0.845937823740923
0.779871172206128
0.832462465687987
0.807260693337956
0.825675345830568
0.779103155861397
0.811329951288531
0.773323008995781
0.807401384224994
0.781470241873957
0.816997720742703
0.751865403472581
0.786484092800374
0.756166364751873
0.787774346992158
0.771092453386688
0.771346982996867
0.751817665461409
0.767781637151532
0.758099565668811
0.760292832750616
0.740414727908981
0.748396898800156
0.733195933414883
0.721669195926844
0.727625654018701
0.732474788440496
0.699516357061383
0.726731243138557
0.714707221369213
0.723767986969816
0.71061681772786
0.70208907105283
0.700149774113571
0.698441302803582
0.694141482312633
0.713062552309358
0.681431457684727
0.702703660983106
0.674929993453662
0.679230009245301
0.671526499323911
0.678121626735194
0.658650299250148
0.670361177688748
0.637224404568386
0.654747664122838
0.635608601106243
0.65843130273024
0.641392420697061
0.658712465808552
0.630082165398521
0.647094363395464
0.63199154129067
0.651348858055688
0.624868583178231
0.628194177178699
0.612852155868211
0.614972835004015
0.614608799374869
0.622004424293674
0.607997428167787
0.618488178732394
0.59966948467417
0.596877282823669
0.592895462114696
0.595303379433496
0.581149720033635
0.589088264688221
0.584104947790896
0.59112825734673
0.577854910886808
0.584146864246966
0.56199021401555
0.584707599528753
0.56666291158332
0.569607307660408
0.568674046777808
0.569099978392144
0.544097556587187
0.561957957989421
0.543897714037793
0.557855440777991
0.550771419130173
0.543628361573469
0.531787508296848
0.551144038457242
0.536051111488114
0.539669220397267
0.523821500200489
0.531011056450022
0.512181818036647
0.522396533383527
0.510528363715637
0.528327057123034
0.521714854635875
0.517191906956776
0.508132931685647
0.508900527683389
0.511383838970555
0.504820763531234
0.485847334191991
0.501852160733007
0.49058543559372
0.500964315514447
0.482585019689462
0.487063736313216
0.479227326243574
0.489902267269499
0.47880297814046
0.481018721641699
0.465395584061407
0.476397731560561
0.471056231276035
0.47198384370704
0.460323438878667
0.464440575586354
0.457518544597048
0.464972445048785
0.461862084031722
0.454048925332494
0.443049389505389
0.446389080086522
0.446197777821821
0.448161868364005
0.430647705426345
0.44632847429879
0.432514082325714
0.445767199953949
0.430725845729557
0.436467211896061
0.432316221532268
0.439461821454626
0.420335661633108
0.42816054920316
0.415361355589348
0.422217297342123
0.40934307550464
0.422006906512555
0.407095996076734
0.417803224556658
0.409021223869252
0.418210231117351
0.398495350180017
0.408130733326713
0.394823764463533
0.406221353366261
0.396110551013569
0.396377061026873
0.388067934815517
0.395833742140942
0.388871501218422
0.393157410733177
0.385884975250177
0.393673163096497
0.385448778849661
0.3897631106926
0.381120351951482
0.394340543549356
0.382353531926079
0.394402804983272
0.381186670440265
0.385494743561502
0.369480309364399
0.381257919159007
0.371962962423254
0.380403999894936
0.371860395948355
0.382325184636284
0.370770100257334
0.37358997406423
0.371011477993689
0.38373810903229
0.372081466852311
0.383033233876088
0.372478390606165
0.380918423068416
0.379861758859023
0.381715949278965
0.38014923499312
0.388068998624743
0.38014710899526
0.390298860348362
0.37687684094551
0.386595783111463
0.3769795657507
0.392123944630801
0.386847540736163
0.391194258610829
0.385363039150934
0.398070809511742
0.385557433382026
0.398711004918374
0.406728542369855
0.40490462542815
0.392092142006095
0.40878676002133
0.400094143769158
0.414371979642183
0.402643020313011
0.413150192885637
0.41331476547165
0.413371331924705
0.41097235895724
0.422359558551702
0.416064747252373
0.424243752917694
0.420005973395683
0.421851180403086
0.421851831152203
0.430761185620054
0.428914733301434
0.431714422877758
0.421858259694633
0.444796897643164
0.440580145673371
0.447993554417032
0.444425818307953
0.444801394306747
0.452126355545658
0.457264216661449
0.449608699169438
0.460029679746725
0.467598525712008
0.467780755504785
0.470711174206308
0.481814105287563
0.476231733067522
0.481607045342012
0.484446528205131
0.498022231979231
0.479312202600486
0.485545302386083
0.491404416659367
0.49245268020789
0.501299388926466
0.509274852509562
0.486524101421197
0.49452570449563
0.507476281566077
0.493209347177918
0.497402272710716
0.49738898989159
0.495227150758139
0.512964204939623
0.503018213716457
0.496615555548695
0.498583878490189
0.503948035107821
0.496505000573638
0.508252727734283
0.492824779526715
0.510640856724223
0.500626541438062
0.503470824101737
0.488084594697145
0.496368334312279
0.488249364709423
0.494169288910827
0.490350269777017
0.496280654026567
0.488326666079751
0.491816839050869
0.491692561273702
0.504433500546039
0.487203222718199
0.497949855650046
0.486202313985945
0.49496286227583
0.495838224846152
0.492429096124548
0.485333427306195
0.496927312982203
0.497489421660995
0.491352656574437
0.486796943620416
0.497838265928691
0.487671770977124
0.506336902191223
0.495527438484228
0.497275632295664
0.494766925468799
0.500918284307531
0.492978888969778
0.501806186688846
0.494795805641163
0.495989114072638
0.492054502262511
0.499422842738556
0.491818795496071
0.489694075970215
0.484822661053131
0.496902701656884
0.493552608014628
0.499807064881642
0.486551355553111
0.494051914854241
0.487092660158593
0.481163398490132
0.469775137687453
0.478952559939413
0.471713908236986
0.477053040756507
0.465045082113787
0.474765338258541
0.470067917492435
0.4748398866602
0.461430851439372
0.46007023523624
0.452127552991032
0.447399462419421
0.440709261902643
0.44493837660936
0.437090206220688
0.441358765164156
0.429771539927136
0.43672401358362
0.428901113475949
0.419059604632027
0.423333570209264
0.424387715325787
0.418198459428849
0.410579356727297
0.404559535079728
0.406268669041738
0.394382738583971
0.404562474133611
0.391847655970211
0.391583491053682
0.387337527003506
0.386374790628114
0.387669476728202
0.390450362893304
0.381862249642282
0.381564080771149
0.372731213953359
0.376267072890845
0.369492076417493
0.371019284525315
0.367639446519998
0.365406885653397
0.360327975538177
0.360137004545284
0.355303852645136
0.364758433272103
0.357777440261539
0.351633036018654
0.346413141239926
0.349340883889461
0.344584129593968
0.353108726735321
0.345993154591992
0.34851680115927
0.337872204482708
0.338269926552506
0.334443561490768
0.335676933939829
0.334913539104213
0.333282066103258
0.329773138291574
0.326804660152524
0.325761513549286
0.33149495695847
0.326608225405471
0.329157291246657
0.327876474170453
0.323737680882717
0.318344715957725
0.319280230478621
0.31515594983775
0.319415576893587
0.312713686145434
0.311594808017469
0.312638576932589
0.314824511167528
0.301759750548678
0.306804346927535
0.305146851323522
0.307463484389514
0.30639597119679
0.307577488899176
0.303495323069028
0.30713840461829
0.303303110570684
0.303692582960793
0.299232121446822
0.304037724862953
0.29804886828523
0.295071189894262
0.294628405691357
0.296281621204815
0.294426223273756
0.296851151485829
0.294254583595265
0.294756461835176
0.288606384429014
0.291495475546228
0.28610811534583
0.289304541731135
0.28840805101434
0.2913617577876
0.287811262029032
0.290547407485193
0.281912131901358
0.290011091602034
0.283674900884862
0.280937276061448
0.280862860321672
0.28640249067783
0.28146247779702
0.284290760311059
0.276290700168598
0.281615339779677
0.275045838196471
0.276122259890701
0.271709456969377
0.272557181465207
0.27691427708543
0.274791755792369
0.271719674558926
0.273185486732023
0.273135008530268
0.270957961226351
0.266156486331121
0.272763246678862
0.269889305147486
0.266238076011628
0.26723294930808
0.268929696809707
0.265815664296067
0.265256978499851
0.26652162837452
0.268266355691815
0.263120465278281
0.263880542534464
0.261176912395987
0.266971540035478
0.261898019945017
0.261463696381084
0.255537875421852
0.263398594940788
0.260541100021879
0.258546087630263
0.258612132989855
0.2623196484663
0.261228767758853
0.259773279404081
0.255576239442325
0.25617310138565
0.255363616390077
0.259633615592825
0.25617192547625
0.258764793198171
0.255041192735964
0.253944915911341
0.251775334011896
0.256572080906393
0.255654920045655
0.256578073752506
0.254013512829821
0.257117512935797
0.257333423610118
0.2588238852539
0.253845495440819
0.251910317344924
0.252516194596853
0.253533554193578
0.251578736144501
0.254150458794888
0.250351028797549
0.249781458394018
0.250404281547524
0.247840108666865
0.246494406011291
0.248397275841227
0.248567791255552
0.246944474475021
0.243062261139175
0.243706699352949
0.240812669580012
0.246201831709869
0.250064616312109
0.244703825367972
0.240638617179505
0.241891102881449
0.239614561628372
0.239658593435614
0.23898613101582
0.243200719684041
0.237349554325495
0.240740966567312
0.238976480812081
0.237283507719451
0.237884983601009
0.238307464979274
0.234857900638094
0.236394300236256
0.234964531735739
0.239365905480695
0.231447355425399
0.233524087555603
0.234726614031164
0.233637139503503
0.22751097341938
0.230551833650591
0.228837634304689
0.232317272988451
0.228152906050361
0.227697206268278
0.227560864842049
0.225746415754193
0.226749388032541
0.226999562567692
0.228347461721741
0.227027081111821
0.223796836863901
0.223670807658639
0.21710056714912
0.225610776120532
0.224347187959341
0.218247427602782
0.22001821121514
0.218733307836148
0.217901269823864
0.220745046214297
0.216786269709266
0.217805770988144
0.216569668362984
0.216738635993019
0.213305437113065
0.212290847080851
0.213004098489818
0.212146481418362
0.211390038478326
0.212448440650733
0.211034909173635
0.20906840982945
0.208461721141457
0.21002804760198
0.207072634294418
0.208656427399035
0.206203536996603
0.206658248015525
0.20422899868915
0.20638309490439
0.202805373231109
0.200855113225893
0.200207969997821
0.199222012954717
0.196441356495775
0.198939916552843
0.19907600146885
0.194777137593004
0.196190849479056
0.196427368128554
0.192664236401913
0.19339168372507
0.19662144960678
0.194250537032938
0.195597910125232
0.194623156976242
0.193536495832697
0.192622264440466
0.190284156179127
0.191158238379126
0.188730039157063
0.188287094790882
0.189622374092086
0.192099502711214
0.187465152910731
0.189318643701222
0.183870927045832
0.182773580737377
0.184867642610305
0.185620147175768
0.180964096969054
0.181967176940809
0.181359991684115
0.181020753356041
0.178935451666519
0.180384327441526
0.180113467858714
0.181166472696107
0.181311610169024
0.179198024443832
0.178598106984544
0.180075778097587
0.177762357328435
0.177871061379061
0.179287013595389
0.177225567380801
0.172591448458801
0.175070698536034
0.175659318437712
0.173038205503168
0.170288146496129
0.172745057294531
0.172874626745044
0.171833354720365
0.171169456856452
0.173534496767384
0.172127881551652
0.17348638527196
0.17205870193778
0.167815955218605
0.164165321263459
0.167275092390675
0.167327696151642
0.169295500919624
0.169326584141388
0.161304461661642
0.160763682951792
0.162526568252888
0.162460847552742
0.164337665402648
0.163068461596619
0.163744104350536
0.169205164941705
0.166528088779385
0.160904969634915
0.162780715398339
0.160631954766152
0.160999804883456
0.162539217027227
0.16148186128904
0.162309535860378
0.162156292560353
0.161063478307609
0.161193283290756
0.159103671847132
0.162371546112586
0.163556190385009
0.158473347370788
0.159557635389722
0.160043847500439
0.158007596718923
0.156585989309679
0.156500554911066
0.16007385874671
0.161000597802525
0.158519996382023
0.158662743182545
0.15831672783044
0.156342687822262
0.157942648135979
0.157551480338153
0.155754217553927
0.153982713811732
0.15650727738328
0.156584395118042
0.15508086834843
0.154804889570322
0.153144817649222
0.154173386649439
0.152898180812105
0.151043943315288
0.151150101500982
0.151083591921666
0.151532962733565
0.152498669092412
0.155331297537
0.153312201874272
0.149935151249309
0.153787711732067
0.155209805542207
0.149146591862712
0.148562915318139
0.151351875145815
0.151165722658112
0.147476522670086
0.146514180813765
0.148320418762162
0.148913440373849
0.14994436552248
0.146294721643699
0.144838070817283
0.147170142455758
0.14660096872859
0.14450804127448
0.144739881514972
0.145253531891662
0.143896158260435
0.142091149970956
0.1425603351305
0.144130108009239
0.14666070526628
0.145710821131039
0.144099929783661
0.143304251756598
0.144175013036932
0.143482177618882
0.141432711551129
0.139676144797239
0.140922404667858
0.141711042878832
0.142616185229635
0.142767528866156
0.138664718068368
0.138005234931921
0.141184461589449
0.137348458855856
0.136381510924597
0.137776721816459
0.137669662075278
0.136880255213136
0.136493943964274
0.138807718096643
0.140295898055786
0.139877494175544
0.139587176091053
0.136177313329256
0.135354048947123
0.137877675518667
0.140496966536714
0.138067285479321
0.134109671220011
0.132645589310896
0.133957996896526
0.134025303370868
0.133198913243002
0.131481246642397
0.131413134801528
0.13252179499848
0.13242683936074
0.131284347929297
0.13123043111064
0.132089217656439
0.131597574310957
0.12953095806854
0.130235349691336
0.128463235432239
0.127656418271719
0.127480643565354
0.126723292450461
0.12517795608692
0.126393425394624
0.126716265236455
0.125239557456845
0.122410021802134
0.122746832075935
0.126592194250135
0.125971207602742
0.122608008912598
0.122583130562401
0.121082552305907
0.121470387488783
0.124040038718161
0.12364741158656
0.119698132337625
0.121310948222373
0.119740079787946
0.118996074216079
0.118088607837067
0.119624154348661
0.120218748426364
0.119809138783471
0.117750869049341
0.11496546419747
0.116591427562386
0.118681077278535
0.119677554129401
0.11843253114895
0.115275321796218
0.116850735044435
0.115008315707839
0.115253757692769
0.114463769978031
0.114570124496883
0.113638121210791
0.112329009540236
0.11431426021325
0.114220163994974
0.112784687462836
0.112209460075785
0.110655960929444
0.111886005999258
0.108974824664227
0.11294072928131
0.111458824559557
0.112487879214053
0.111708630953412
0.108270879345682
0.11055047122134
0.107988202475438
0.106038393084071
0.107544574032732
0.105691815995278
0.108874762049841
0.10755953843034
0.107355702888301
0.107019689081715
0.106597634750075
0.106002169471083
0.102760077325622
0.102800384748695
0.105838631645203
0.104441931287663
0.104673439887971
0.104545601369824
0.103211987013589
0.103085064780454
0.104951518069395
0.100010111781452
0.102641220134039
0.102525079788285
0.10079462292594
0.101112126219106
0.103805421654777
0.100921316236909
0.0991762725967645
0.100638012175542
0.101057699423559
0.0976787835577514
0.0990084569741036
0.097918786525247
0.0982772462416149
0.0998571253889402
0.10102149985417
0.0990437718312906
0.098319558855278
0.0975099118153807
0.0988487544480891
0.0980112087202668
0.0984892464035297
0.0990051164265578
0.100916534909123
0.0982466285405127
0.0981916296136521
0.0979541572745081
0.0995814126533462
0.0991032140045739
0.0956232134951419
0.0916083956626857
0.0948268652804823
0.0948412866719347
0.0926372250056284
0.0908882403340724
0.0931573998848734
0.0926803481750747
0.0954255669280071
0.097375054373038
0.0954701318598937
0.0875484202780569
0.0867363106785589
0.0891520670416792
0.0917236070954217
0.0904820343154706
0.0860765603417764
0.0887824663344636
0.0889240267048128
0.0839047714894083
0.0905043537834291
0.0845534099379104
0.085665385810908
0.0884071067179363
0.0949366121175485
0.087581838927022
0.0849797225299055
0.0909833781456513
0.0953166117418063
0.0939592135853376
0.0941062736640352
0.0875702300581616
0.0826449939118452
0.0860688084464958
0.0903650206698106
0.0833089706923685
0.0854450058835173
0.0894913343478956
0.0858254568611847
0.08748155850657
0.0880750577901223
0.0814660276658298
0.0822672283894213
0.0799038543307848
0.0846559766184408
0.0852030804790926
0.0914801336874283
0.08792987057308
0.0927687994937784
0.0800281981137855
0.083251940187236
0.0786156257372044
0.090734261163256
0.0895804143648302
0.0911177352353586
0.0745336312279253
0.0908429518724238
0.0844517143909344
0.100057810729816
0.0760826281503599
0.0932041025076473
0.0866559135416837
0.0958863868450442
0.077436448619824
0.0921245531850594
0.0853820979179447
0.0882614175012937
0.0846134369907067
0.089011029972065
0.0870822711683021
0.0910807577849447
0.088540192168052
0.0858848513663345
0.0855815342686467
0.0871730954856867
0.089113031599813
0.0885318496856208
0.0832550878272724
0.0876056504843529
0.0853599236150664
0.086857762521074
0.0824513387790374
0.0851080800582858
0.0849780155525009
0.0879091212358721
0.0843997355297485
0.0833531993848294
0.0835329433799865
0.0847190988511634
0.0822919202336513
0.0868848372204106
0.081539404079659
0.0836059366647034
0.0827253490320143
0.084167702614324
0.0829167484184316
0.0818232008703767
0.0838965972240319
0.0859088651205079
0.0821205030868744
0.0837302450748519
0.0845940013684235
0.0862705717326652
0.0815372697386371
0.0843982149017929
0.0830762310669903
0.0840713088504263
0.0854381114882858
0.0865751544030173
0.0826680301928208
0.0848697151902646
0.0838567422608281
0.0835476686375639
0.0827401902666733
0.0860828600858193
0.0833124302953882
0.084714124546099
0.0839510519618133
0.083355595865419
0.0815743847129092
0.0859656824334961
0.0855172182417198
0.0845654124000865
0.0835494234929345
0.0847575311416191
0.0819969499051936
0.0831167610867158
0.082746270370859
0.0862146580991103
0.0834516391441266
0.0847886892874078
0.0842990168037901
0.085943918233255
0.0805101946432295
0.0815107640840628
0.0831260291813786
0.0856892200381401
0.0843654127612697
0.0860649710916875
0.0821194620428177
0.0855669964041805
0.0821010462944712
0.0814521862019417
0.0806092235929327
0.0817884487904329
0.0816053453029144
0.082403076942958
0.0816615611717119
0.0844309368450947
0.0834601818503988
0.0846999119364371
0.0814170410624143
0.0817667465394604
0.0820705647641873
0.0818300565199114
0.0813292601534708
0.0840135118157101
0.0819488946541747
0.0846963529174516
0.0825928715672767
0.0835297867955995
0.0835911033406657
0.0830706617285936
0.0802071897443413
0.0831286864007206
0.0820227592845118
0.0832682559940146
0.0831669556887535
0.0853450080574329
0.0847228018642129
0.0857722965714506
0.0827363311049566
0.0851708990265125
0.0849256030842994
0.085227580733716
0.0805431928818193
0.0849162276451966
0.0847258708136864
0.085907781678761
0.0850041058693274
0.0863924945142714
0.0852311422711553
0.0860059776451485
0.0829155472478993
0.0845127919756695
0.0835442229973888
0.0853363999210488
0.0844289678935607
0.0854728283263941
0.0871917491090909
0.0854274567632494
0.0832942232646222
0.0858591520443214
0.0828940273030601
0.0858860700892364
0.0840948496264885
0.0850678068072543
0.0831315970506197
0.0873105142403879
0.0839398748892239
0.0844501087593297
0.0854209809100124
0.0858732828950934
0.0864338031457755
0.0878555183300239
0.0836605730802537
0.0852666846394658
0.0863359043825763
0.0866595768416666
0.0855114728854602
0.0887893492118159
0.0857168444149628
0.0878284411302046
0.0847521383188867
0.08554931236339
0.0857138430273744
0.0865489903480473
0.0823550961426177
0.0854609189742004
0.0854152155276488
0.0873135227845962
0.0851461130531186
0.0870601659377248
0.0827373895895461
0.0884205961329838
0.0864653955666664
0.0880715557298384
0.0865454080673343
0.0879785778360334
0.0867586809433099
0.0863255048307823
0.0855735323224344
0.0915622753968928
0.0880257503167923
0.0894791396128505
0.0877657721022453
0.0898406289071883
0.0887621941950431
0.0893042579695582
0.0894046574302821
0.0891475190092847
0.0847935591047679
0.0874639462420222
0.0882465499990618
0.0886290727926162
0.0862012364084066
0.0900542384900028
0.0870965375412331
0.0861656453252765
0.0868850773249352
0.0902685641205739
0.0851152276009721
0.0891673216862136
0.086735375102368
0.0872632872066891
0.0853567890176793
0.0864135624678499
0.0870129749964763
0.0860528230892017
0.0855253999044714
0.0865256796480036
0.0848333675344202
0.0851517560305378
0.0826057138486582
0.08789479484044
0.0865994256781049
0.0877448096785431
0.0861082304387101
0.0881875279250952
0.0839924591498185
0.0865223927793397
0.0811272080460064
0.0844248919338785
0.0829676308857148
0.0833417175614038
0.0845822730471133
0.0858590892259755
0.0813043191750972
0.0842785217601944
0.0814033819359091
0.0841053325446048
0.0826240874513032
0.0852694613047822
0.0835171264566143
0.0839108146039968
0.0819304856557497
0.0822385873657378
0.0803794291209881
0.0841117995229866
0.0839428312277905
0.084324816520396
0.0818081565707087
0.0850627280669296
0.0792737019955208
0.0822007067426366
0.0793363454834837
0.0801890703591243
0.0792705089297524
0.0811240403993693
0.0789104212744773
0.0834379204138516
0.0800972244859181
0.0839603025606948
0.0808793905413562
0.0821879175572387
0.0812631119433571
0.082688970265963
0.0802307776628318
0.0814668994348619
0.0789695404615725
0.082581764600159
0.0800096356068374
0.0827761255144923
0.0795483331929254
0.0836034409472274
0.0791884440060323
0.0813744655936585
0.0775600273930218
0.0798611009178094
0.075737682171219
0.0817525097234834
0.0773980999165944
0.0778515344037329
0.0780383128908839
0.0812998959944564
0.0785940823460537
0.0816741937833791
0.0775088557138135
0.0792044595669907
0.0761781395506062
0.0787870152123647
0.0777511701110227
0.0774791594129783
0.0771750712911767
0.0792247603459532
0.0801986968731275
0.0811302940883004
0.0757722886869139
0.0787763342581949
0.0782158012709846
0.0808178627279783
0.0774181815098378
0.0815756788338193
0.0740737328618447
0.0786519267910658
0.0769320580309903
0.076682937930505
0.076946667100392
0.0763011444061753
0.0743336937120134
0.0786170065668995
0.0752164257406737
0.0773996951408563
0.0756862048568705
0.0786923920099554
0.075069923162981
0.0778094435185603
0.0763082894632249
0.0797160445831455
0.0742872285759248
0.0761605099842132
0.0747158289773561
0.0777198308198513
0.0747327988403733
0.0758806966232506
0.0733904708531031
0.0745726281654713
0.072749908277179
0.0743801915326612
0.0734095494969139
0.0767149934354282
0.0742831202859046
0.0741096095718193
0.0722808341247335
0.0739052236515842
0.0710446754749016
0.0734064492014797
0.0720801808857871
0.073485844173221
0.070123948318693
0.0722932217884499
0.0697794432989342
0.0707658911966542
0.0689196125438051
0.0713610830380078
0.0702699953462645
0.071555270741801
0.0743626605886258
0.0732643975834553
0.0681792601954399
0.0676962178640141
0.0664770172193595
0.0694809712843707
0.0690407920312105
0.0718038414685806
0.0660437887190852
0.0689392782739643
0.0685936983478082
0.0670552240724284
0.06557514182989
0.0661947811357539
0.0668793406339984
0.0688343890903716
0.0656862068369738
0.067113790439162
0.0669410139911998
0.0663581834711923
0.0638937447923819
0.0669411357401123
0.067229053700688
0.0665243497972947
0.065462016033429
0.0628780441882566
0.0668056716597061
0.0684471911511574
0.0647959712457239
0.0669773081344714
0.0648602857648348
0.066905110397196
0.0629255402413159
0.0669401157092939
0.0600201145895466
0.0644410977446736
0.0626686743944962
0.0691908660614744
0.0639873551212754
0.0639042375735906
0.0627010568282838
0.0647027373304326
0.0629267997949737
0.0646270226492449
0.0628266814114332
0.064169049471232
0.0612979376952791
0.0643602876431065
0.0623149613851118
0.0642785209867526
0.0610793385156621
0.0635406727820231
0.0606547885503975
0.0683961170523935
0.0618305203420339
0.0634653013015545
0.0598518885013935
0.0666651950588473
0.0590381000019124
0.0642093003518953
0.0589210029847839
0.0627113976531204
0.0582038417762596
0.0627537485603533
0.0597309017203039
0.0618543065235757
0.0605307692425851
0.0616528839860169
0.0576450023753904
0.0603624164970978
0.057752455765761
0.0633135366423216
0.0579903916406681
0.0608618560990499
0.0571994859826297
0.0638706481677733
0.056937339567043
0.0650847318842844
0.0572739643036585
0.0611424887267759
0.0684475711015476
0.0628380527570819
0.0582605494531315
0.0570511102159906
0.0584678778048783
0.0599698485040127
0.0584989379054817
0.0574461207433191
0.0600845177525494
0.0573787144452369
0.0583261954116997
0.0588070183791796
0.0596932026380156
0.060236715470999
0.056682031781211
0.0593082130836876
0.05827451775023
0.0566831715319335
0.0593022120280216
0.057652914960045
0.0601652676844442
0.0677346162076215
0.0590742044284274
0.0589935566453065
0.0584227995288993
0.0507147727161088
0.0690448475198143
0.0594543275350184
0.0623549784324393
0.0571413397615329
0.0584258938844461
0.0556934165833627
0.0586534722251136
0.0556123762803792
0.0583275917688448
0.0636278149339462
0.0564650107431475
0.0611379338076074
0.0577181417612872
0.0603425285136508
0.0583822073141923
0.0575361218935696
0.0555930010697345
0.0581523292094444
0.0573907693795193
0.0562250879187065
0.0570555078828492
0.0558964222088136
0.0576859295096435
0.056463850638514
0.0551615918245999
0.0617334653833003
0.0557197019292587
0.0570782045821278
0.0584472195270807
0.054955787249509
0.0567108092553692
0.0705828433606028
0.0533514824053267
0.0598517970142713
0.0501435595206678
0.0597115705311809
0.055017808082818
0.0626887512065258
0.0554624277290819
0.0570253952476537
0.0550790711017888
0.0577525752070631
0.0561922447216174
0.0590816333577524
0.0551761352460594
0.0574097393214747
0.0544141728306512
0.0571230402628588
0.0560059810753122
0.0546774860973602
0.0595103010469423
0.0538502005710965
0.0608023814108093
0.0697959898128162
0.065094426463408
0.0634866787459124
0.0593710922249494
0.0603060541012766
0.0557919716681525
0.0582605506841461
0.052624543373943
0.060071533476264
0.0540891678332226
0.0596934821152918
0.0575737617272812
0.0577299855636953
0.0552694025856417
0.0613734485158586
0.0525984180912694
0.060957251525422
0.0526055348736661
0.0600634073082115
0.0503123276997243
0.0624008412693958
0.0503811010694592
0.0667901370826421
0.0532476311575588
0.0690076648573199
0.0381274287245622
0.0857525017597219
0.0678160665678156
0.060747546811584
0.0596045490391884
0.0545352989534833
0.0577436484823313
0.0558090676140174
0.0552331331482554
0.0603288660715118
0.0576421172364979
0.0602847597195816
0.0589315072167179
0.0595322787555088
0.0608546878569671
0.0541531170062095
0.0518875501606028
0.0816878252102592
0.0580057923819981
0.0683481388235101
0.0545873702648911
0.0601051053929336
0.0729900820056109
0.0574200666484613
0.0642839658964589
0.0602681191313592
0.0613283565747963
0.0600630268681914
0.059403269362517
0.0576393283031505
0.05861126953352
0.0603443739875183
0.0574885612802977
0.0624609601540478
0.0548840304130001
0.0645832453779253
0.0563228619244694
0.0700944264140844
0.0691775940586286
0.0581222651299982
0.0649353766441469
0.061639511604295
0.0598810251460895
0.0611912094334987
0.059694588586368
0.0591887294266838
0.066039267965483
0.0721831509137841
0.0581974826916697
0.0708752298524549
0.0680700558505366
0.0586641717066116
0.0643695587857224
0.0618112122435869
0.0716026516092169
0.0522233980713908
0.0657044821696522
0.0824262348739711
0.0649368439909613
0.086633263951404
0.0560485742976442
0.0739427177893168
0.0561275805251835
0.072881805600013
0.0516660038768441
0.0899093632088062
0.0520585643442281
0.0786031538253536
0.0513716093374498
0.0818941862206354
0.072184552237395
0.0729562297615011
0.0650258671439741
0.0698469024547037
0.0596759555059053
0.0832924991938148
0.0647827177341264
0.0552981963792509
0.0818046066647011
0.0849649987873826
0.0897069140673606
0.0734851196324435
0.0526108596420068
0.103834062964318
0.0668563203366657
0.0778286849392191
0.0594562821475517
0.0794879512540198
0.0652818856917897
0.0682811804993603
0.0893398825265641
0.0747784506151221
0.0713780587470884
0.082644753845974
0.0574130756455857
0.0913980137452471
0.0753488730876337
0.079501464273222
0.0672624782258556
0.0864262741819467
0.0526211972164465
0.126684025695514
0.0769172112534682
0.0922113940736506
0.093112707033645
0.0884517916160272
0.0858883434541992
0.0842669518140808
0.0820774617056397
0.0900219498518746
0.0953298481022406
0.0885175937660619
0.0729076105093216
0.0923355279015781
0.109384875360809
0.0835281543434858
0.0988492756416035
0.0825180394790209
0.0791585500177504
0.112037378095263
0.124085559184053
0.115410851284794
0.0994762273923696
0.0895982226602818
0.11659887074135
0.100535989989618
0.0999975005764969
0.100229534481176
0.100080386832525
0.105156345278022
0.0968316897340372
0.11462775083872
0.101748121409408
0.112837959521788
0.104228840079854
0.103143592182194
0.109348555401852
0.138766132666646
0.14944085894594
0.104178778556985
0.157827523818505
0.131924255312378
0.12939526376857
0.118245162919721
0.117712686042069
0.130673138009898
0.127008785086605
0.132541274528087
0.116000660751773
0.156139187363901
0.140444443174444
0.132517035440284
0.155138861994019
0.136092437377595
0.15314456371653
0.0903478954801871
0.318186388727298
0.148113570962073
0.183160749104503
0.15388541633177
0.158032522632175
0.232868747357632
0.18586719185883
0.19114617881551
0.190993347639659
0.192032102714762
0.200160513220462
0.21650308624215
0.215919329678325
0.229022874755554
0.232588754546643
0.220222747481567
0.244823919308582
0.291343801094454
0.287795706421663
0.283667823248956
0.257175328546074
0.281058040286678
0.294886111138043
0.289693436119368
0.305074803184315
0.298151568943543
0.285061378623875
0.373659182928143
0.317407717295216
0.346405093548988
0.324169074158243
0.403468059465125
0.317932030285919
0.427335890119745
0.374547026184638
0.39349827203132
0.379194349927381
0.399331491416904
0.40631653343716
0.390106628305603
0.445028152046348
0.439343995359562
0.432125371049918
0.445762338854977
0.437546245518393
0.45950577725921
0.454037227169041
0.478879505989941
0.446064914663148
0.516138401539653
0.436024310124635
0.672569102925645
0.497959303399417
0.465119226685758
0.481764402116835
0.472139727582252
0.504088533481791
0.500531038157935
0.530017641734224
0.52478593835967
0.476585479922476
0.508445738668284
0.48256400783121
0.508220241093376
0.478555452088133
0.509888916707567
0.464346353469741
0.536995059453428
0.474959747005784
0.513978077530552
0.554613332014398
0.504682917906402
0.493687105542711
0.495752232985829
0.489529503118472
0.495016133551116
0.481801718535581
0.491579286255543
0.511919128171026
0.469689660404231
0.494025793055133
0.457053005217326
0.493668062402154
0.477023408520812
0.445960389208908
0.461022793097915
0.431489670919332
0.454077437882625
0.414932098783657
0.435680575165995
0.483095810144567
0.412449450806527
0.430203954380703
0.409456364745445
0.413360246004966
0.402276692299378
0.398734877245339
0.397278886405167
0.401356237298075
0.388389800182899
0.401029958646461
0.382141848867665
0.393683637978567
0.378817979375635
0.388893675230797
0.372696413944778
0.377443659044739
0.38547862771173
0.370820433585587
0.374827465774672
0.368782990600932
0.372208127741284
0.368685115533875
0.371434595510989
0.379317156868942
0.367670354986291
0.370666493899984
0.366131816411391
0.366635265360168
0.372998003828673
0.374023170104087
0.368679395988263
0.361998090878551
0.359052337150457
0.371589489053019
0.368095878263376
0.360036426964928
0.364311204093426
0.356858197187397
0.365340260949638
0.351899772970154
0.374664306084869
0.329916863284453
0.427929091526221
0.380468560761721
0.358820439328056
0.367231447924647
0.349669108769544
0.362012795627399
0.33194415764645
0.389016118625941
0.365299311968372
0.357438598304966
0.345375593594879
0.33726548477271
0.356429582837838
0.356535668957514
0.330951918387593
0.361015506481182
0.31010112597262
0.367057714485496
0.367898507236126
0.356602788186903
0.411437979425133
0.351255755393654
0.338839364834488
0.324533991454145
0.382479462528977
0.316521787489548
0.354234776733632
0.31005218794139
0.379817051535429
0.340957106552988
0.327272986561585
0.330732613674151
0.321227840672832
0.339063207049016
0.350733588057875
0.325579606791821
0.332259379129996
0.353414184127739
0.309527635439823
0.343699262983736
0.356913466822318
0.350863671512319
0.309511542229099
0.312982856054233
0.30847734959805
0.285132092539874
0.368348517751348
0.2948791862755
0.314049176092804
0.287823932676854
0.286487421567745
0.288654793608485
0.290665588909187
0.296706689043613
0.26896700068958
0.335885485566178
0.258337392442227
0.296845061478015
0.273948845373131
0.299596403889736
0.298286174819212
0.284181651018727
0.256563503505493
0.278143220471735
0.305501032688726
0.255997055864976
0.283911188502233
0.250118092176604
0.247586980693003
0.276056912069816
0.241614480134104
0.251638145375248
0.257405027850753
0.24025592676234
0.295223249371059
0.269839758571134
0.284257922366672
0.24860014454967
0.232029610885099
0.233386334480906
0.226092457637818
0.240947597168582
0.212056928342988
0.25808429354331
0.24279603710481
0.200295422772805
0.286300336195498
0.232548835789358
0.232359789757988
0.235035782210474
0.231126263561536
0.23304469144797
0.242512553820556
0.26456607801058
0.246785718625542
0.240376198641656
0.276873904437932
0.238376298764747
0.261826580263311
0.243032902281007
0.266699964283954
0.252265282762931
0.27811230045508
0.265466505221733
0.276439758639424
0.276687428417028
0.281677743085187
0.277119194246003
0.336073887546041
0.270400158713638
0.34766399931738
0.295880073942935
0.376340054924716
0.32834983917167
0.333448436395444
0.339251216724461
0.338157534536711
0.34935295849611
0.348946372072144
0.342422818462864
0.400854009615817
0.349664288285542
0.384186147383445
0.355808841592087
0.386807406819957
0.359023686764225
0.420064659923352
0.367279976500869
0.434863923763889
0.431916210524596
0.407826577244829
0.41593279678954
0.394632431807517
0.412793816771204
0.402697703854418
0.401085688163158
0.41329268897072
0.390300021133989
0.4461227482291
0.412145790885725
0.425794452077767
0.410165712393551
0.423840185548325
0.422818046589012
0.427937928774593
0.428247101329862
0.434079601199828
0.426765726044259
0.443692091844843
0.40019797851606
0.525750208703873
0.454551373792343
0.458553814305026
0.449385711631054
0.450434756340357
0.458962442903396
0.449111816923514
0.475228209471813
0.472219256498351
0.465537904351451
0.477988291330113
0.464565742605823
0.490233698864998
0.464707766424023
0.515527627830328
0.469900852530414
0.511919723703371
0.475264325719545
0.499352583818001
0.543281165563468
0.497239115809049
0.519454458977805
0.49075628992021
0.506877906505246
0.503510159251255
0.509532781894509
0.5100200853508
0.514418812849224
0.508812281126296
0.518203883579575
0.515805578031879
0.514191918862037
0.521249312918653
0.500359373317901
0.536103705115117
0.515791748578961
0.516909338888467
0.510437243707851
0.513673420284902
0.496071468830066
0.532037016310562
0.531533309775655
0.504198114019006
0.523044735419061
0.51455545170087
0.525444955378792
0.52379236016313
0.506020746370561
0.517137275978011
0.507616216980597
0.516584888536361
0.508963007648059
0.510839362426398
0.553426232245376
0.51499359156062
0.525453630614665
0.518258768507518
0.529146919263707
0.518864085613655
0.532994713363422
0.534096362503813
0.537580016667075
0.535406471695482
0.543358817953486
0.540676172637299
0.535210042083931
0.543242808055617
0.548485658926526
0.553083637069292
0.538554274548285
0.538765527458744
0.535275636804942
0.524064763261614
0.54203876733659
0.52835478475279
0.52909015754047
0.516938064265886
0.518983977061038
0.494247487844176
0.54166371105614
0.498880139579077
0.508871087666561
0.503020477731976
0.48964086237538
0.489333082983495
0.483508963662087
0.488886474197397
0.477614757066956
0.482950788087521
0.470572690993721
0.470966023588023
0.468116506804895
0.474275697385454
0.469089406411774
0.469508834505844
0.466299396574605
0.464793275131815
0.465071166545377
0.468116928216225
0.459807755706144
0.460796478943015
0.466342045220593
0.455893920147762
0.464410665006097
0.47182807413577
0.469129738310219
0.465794272868395
0.457706351753476
0.466609647722202
0.452559368966493
0.461008303382351
0.453007910830736
0.464983344284419
0.446138968452934
0.455868180221905
0.451196917303806
0.455162448659526
0.452645533177475
0.458129600259608
0.452017471672869
0.46031601132604
0.450056004328641
0.458404127430922
0.449999431720903
0.460599470381029
0.456173121220889
0.465049082756863
0.455938815023086
0.459658460305018
0.461652127136664
0.453802055859083
0.456804164200709
0.458148007932135
0.458241558336429
0.454343900859917
0.454988173486787
0.457952987940682
0.459533906183025
0.454391532322898
0.454270411453108
0.453002870571473
0.452156645013783
0.452173432993878
0.447527777207763
0.448806083137578
0.440764481379488
0.440214740685842
0.436147138539117
0.432555917282864
0.429655372388793
0.426820505144944
0.426613448748661
0.419840213672496
0.41843889956778
0.416759509533063
0.410241758079859
0.40815685862493
0.409977246946722
0.402610458239284
0.396624646429699
0.400894208624429
0.400957878884009
0.396266637334634
0.394184728872156
0.396960023535858
0.391911667356739
0.395315106420299
0.393118767722218
0.39358246431253
0.394634706747962
0.391145124467759
0.394446174567125
0.393970645554183
0.394719943746071
0.397279286816625
0.398734085345309
0.399312286236968
0.402968415000386
0.403597593712874
0.401110040798199
0.402834786936267
0.410814313632255
0.408161985233582
0.414034398028128
0.412146750945861
0.41436664057608
0.415215618013709
0.41953906125959
0.414349839282244
0.415845178467111
0.424156276454337
0.420723793861405
0.420373948588696
0.419901428804404
0.418175011260629
0.42103117275797
0.419233398467327
0.415640842251713
0.41832236192926
0.412560912436598
0.417197262004484
0.413342644742963
0.41430946622934
0.413500094056851
0.410919350923016
0.407842183013988
0.411961685220789
0.409145031107928
0.402333571147541
0.406959523811956
0.40460557261257
0.401303620301304
0.399136712750125
0.397406626435892
0.401496553137877
0.394817414740097
0.394513374148505
0.394673085386839
0.393981201523572
0.39037834844905
0.387163681898608
0.388004070874319
0.38880797639787
0.385663290194322
0.387081269508983
0.385167609716439
0.383035946740939
0.382154588120207
0.383356317260607
0.38002212190882
0.378122211840116
0.375700731298114
0.375823365470485
0.371593558135571
0.370352044476461
0.365359379233294
0.366694350437354
0.364920678412681
0.360227650213901
0.357692593731183
0.355178229907407
0.351625265952916
0.349386650136235
0.346851608834643
0.34139043334685
0.339342697136897
0.338192856304201
0.339502106223137
0.338142207784801
0.336889341546596
0.335585597534584
0.33443387665012
0.334418840032785
0.331913422766139
0.331969268821123
0.330453329737811
0.328730033599413
0.326883124973853
0.324317160558841
0.32056910444685
0.317882317443396
0.312813546239055
0.312563383963195
0.305199804729031
0.305489288545821
0.300019790746032
0.294850915503581
0.294160464676312
0.293964059202058
0.291525729405369
0.291920630453098
0.295051526225892
0.299841236284382
0.303284864068453
0.309756172408487
0.318448387218207
0.324326693995387
0.336281023431856
0.346491110122796
0.359105465702624
0.373567943569642
0.385888978324963
0.400884949033873
0.413347403799383
0.426216026688431
0.442041224817052
0.461317230100078
0.474636226267975
0.487755833451302
0.502345959873879
0.517473334061825
0.528206820661488
0.540890781860291
0.555720092094476
0.570799741339682
0.579488878497793
0.588508821076401
0.597617080722474
0.610011680151073
0.620021345113074
0.630193272727638
0.635704342727794
0.641511230988652
0.649313213599114
0.656768577638523
0.658563630884214
0.665085151965271
0.66744327828836
0.665290122274714
0.669150296005269
0.669869616963726
0.675146387728818
0.676434067239482
0.668721534928659
0.670764592056394
0.678691452604561
0.674729823431031
0.6722794323268
0.675673678703967
0.682759500490309
0.68566286247962
0.688018436517931
0.693561197580227
0.699107637069852
0.703787168931787
0.710708233001642
0.712282289225292
0.725530949611685
0.731096852854899
0.733231543799457
0.740620677781451
0.747245302531618
0.757111983386288
0.766757389073537
0.782162278607667
0.78686936361809
0.807091139178033
0.810247920459441
0.818188853794784
0.832314535450745
0.840466248666738
0.84475609565882
0.853082791213115
0.862462753413203
0.867091561222078
0.873327929953949
0.870418438220364
0.866235878107072
0.862800565755786
0.859583213225979
0.866876324464786
0.861520218886211
0.846797391889278
0.84953575991139
0.851507678606156
0.851265999927137
0.859350300606518
0.856649752264729
0.872539204030637
0.889634111365254
0.896129395776675
0.904810686209037
0.923808493438015
0.941498261239446
0.953696684472812
0.959120228345493
0.972260778787499
1.0009668330264
1.01527348945771
1.01893202320872
1.04137759397633
1.05130627288087
1.0642611505538
1.06211937531818
1.09536918122808
1.12751777593375
1.1253717450222
1.14182665939193
1.15602538115282
1.18656554986874
1.19974638395501
1.2133097804511
1.2328619242241
1.2785961874381
1.28584455153092
1.31158207725784
1.34110978558237
1.33407496367995
1.33633132778934
1.36509454229469
1.41969436763152
1.40369108055992
1.39420304007425
1.4291264482908
1.42765603093196
1.43535027376171
1.41526508541367
1.48022315400162
1.45906805293797
1.43978056957659
1.44322836577337
1.43365881277059
1.40949458280376
1.41435797079747
1.42210284985141
1.42865181459274
1.40463918214462
1.41891890004545
1.39580820279353
1.38026917958051
1.4147479243089
1.42580534954251
1.43236032206909
1.47742975011514
1.44650226196499
1.46887483517603
1.51448510315371
1.50998670720481
1.45801271977271
1.53832497687693
1.55233729315652
1.56471954714623
1.60919177678501
1.54730045169322
1.57883747000836
1.62883669398095
1.59219141489608
1.59947859066156
1.61284177583102
1.66017395565779
1.64800528423511
1.62237239703072
1.70577580621635
1.66235268945638
1.59713144304955
1.68165044321474
1.73131767044586
1.71700736801405
1.69418024638257
1.68653003067146
1.69866774234477
1.69567903027932
1.63967787182157
1.65029513293484
1.66369115998868
1.67220224809293
1.66664612387717
1.72844773258238
1.71335175884184
1.67710527575739
1.62840502525412
1.67649249999547
1.59848249469548
1.65566015366358
1.61784184538177
1.57306107571469
1.54328409079051
1.53057864158369
1.44443253355513
1.40885038068739
1.40872930893093
1.35846611219405
1.30947763205567
1.27977773172935
1.22021079203789
1.21284641017029
1.19181844704991
1.17455707296265
1.1356014721979
1.14179827229117
1.13462501053217
1.14389805544981
1.11548760802116
1.0842193534496
1.10418525047698
1.10967305878984
1.07256554735085
1.06876677496381
1.07743942235265
1.05352767692992
1.03864474633347
1.01523719942629
1.00281727059463
0.994546003931089
0.961494944686934
0.953145925888905
0.916408988653797
0.915238409600782
0.90040751252635
0.859573277959187
0.830048622276556
0.799490047299165
0.774940353351679
0.759143825313866
0.717047987388156
0.681205974536024
0.653389610710387
0.624586195951315
0.596291862494243
0.575571686886879
0.552164798450213
0.536725768612277
0.512025650678083
0.500383164577885
0.488198475569972
0.468928953771272
0.452731834760916
0.443963822649641
0.435300441093771
0.427259424026789
0.415221637428628
0.413629639321031
0.404722763181592
0.400075003409778
0.396546662315306
0.397162417892029
0.396493649202234
0.392103084317655
0.38837140865818
0.395934545029547
0.393087576131006
0.391456686903216
0.392944098933863
0.39468300567506
0.398461175373685
0.396382359055857
0.395818572247804
0.400986319660945
0.394232534680993
0.393448808994331
0.394555866527266
0.388245442953415
0.384701544203673
0.379919087739002
0.374801968403636
0.376665934790632
0.367169660534918
0.366327148650672
0.362929792542466
0.362899585133339
0.357238020025564
0.357710053383389
0.359301559096876
0.361767208083102
0.368955801772733
0.363621896004604
0.363898465207161
0.366679734724456
0.370257820490991
0.36950060922523
0.369438781197547
0.373022324870065
0.378029219146067
0.377065906263234
0.379795319815056
0.393421725318738
0.381304033481055
0.380148001952419
0.390043653746546
0.3934599650424
0.389781898767645
0.388952463529181
0.389385101328351
0.390719624344828
0.390007819768113
0.390231334187623
0.395246350404264
0.402881475559988
0.400012486281704
0.407171388852441
0.407238811194932
0.413944263146403
0.417821606672175
0.425426822382429
0.43682972886383
0.447333222636741
0.453484946770307
0.462011167788795
0.485527515327451
0.490100942873195
0.498259871600489
0.513713873569677
0.519965224752189
0.535426011269234
0.530025317536882
0.529492098073854
0.523149686218263
0.52096098385015
0.506206446693094
0.494342019758782
0.495913108580844
0.498320612570882
0.48885942146209
0.483219158699989
0.47950491178526
0.472482911053942
0.475825602529387
0.47545929548235
0.475135767860359
0.476341162600046
0.472940851418028
0.480700294949413
0.48001857654784
0.477248469878913
0.468150892459865
0.478664544871759
0.461385117942572
0.454439376280081
0.447624457805995
0.442115668927298
0.44150568820201
0.448393890368936
0.438666795291863
0.438332868918977
0.435140164631751
0.422649778929588
0.41785714160951
0.420635559943416
0.416713935110938
0.415896489178076
0.408867415755417
0.409937178941551
0.411439358845063
0.420095981389793
0.411315686990734
0.410757248330108
0.40623100808827
0.400017392198157
0.402487488127525
0.407323466398487
0.397526875146609
0.389454871097266
0.390443424923359
0.403933187518256
0.383728959789376
0.391436368685239
0.390589698449468
0.394526214651631
0.378433416180146
0.37396871534028
0.376413805762123
0.379733485732636
0.371250118076177
0.369492847958356
0.367301133812767
0.382229940217625
0.372832542218325
0.362579445103291
0.367959589249424
0.374080796087631
0.367652411059958
0.357645390460962
0.372333429133905
0.373322303213006
0.368117136598805
0.366576636921702
0.369227059845569
0.362769080432436
0.369396666026963
0.370851648707337
0.373919021259158
0.380570621004667
0.367982719952561
0.373184907923193
0.382837584383907
0.381601346787137
0.385962319982668
0.38589084303564
0.373132702258303
0.393925224567301
0.405191855036457
0.403315780213274
0.392636203949358
0.403479438546375
0.403616238459502
0.406576282744094
0.405004016641274
0.399020280717316
0.419193692023331
0.435784238146671
0.438923095934295
0.445988525142645
0.43892465318644
0.441110661421637
0.457450204695682
0.470739821987053
0.478740063079001
0.485593182657013
0.487579112956543
0.521660476848394
0.521695360030983
0.537283694087088
0.543334335104734
0.577301617484102
0.584174760971999
0.571434767357727
0.573978841059529
0.58968461836601
0.622628848487241
0.632152695336915
0.637911107549778
0.640770229838401
0.618823278730323
0.647690076622268
0.634869195555423
0.627926343514183
0.651872213405912
0.651914721725688
0.63854151392597
0.623486534219445
0.634562859627121
0.639219563156183
0.635783641297447
0.639209342390302
0.620833551873747
0.601947639444328
0.59896631040272
0.608340431533492
0.572476844421575
0.615469592946555
0.612472506468692
0.576674179536737
0.576581195107328
0.588035651227124
0.577592808148239
0.582504007085368
0.584872604548302
0.588590453310379
0.592917042546522
0.587979401600665
0.560730492925322
0.573666361532116
0.572318130533489
0.55279817928551
0.586090122069831
0.555965718069824
0.53816797595658
0.552819063127715
0.569943043483035
0.557247056724319
0.545679989195967
0.563115750384552
0.583000653457848
0.588324848446335
0.580118959948643
0.567317152422427
0.566004471410566
0.57269033137052
0.579456004910602
0.552322449550378
0.565123514691864
0.568461519051315
0.598813649642702
0.595515347354483
0.595069384797934
0.607744413542486
0.571816137692502
0.578691780850578
0.594600551607714
0.580581057066422
0.604510761425466
0.596418682582319
0.62712300344807
0.626763222733374
0.618172166266707
0.611316698903041
0.587232737842554
0.625482592788047
0.612901829922428
0.69726059748937
0.614402950650002
0.599196883673709
0.716019233167571
0.701192692821732
0.626194902553479
0.699567985694669
0.664109488679849
0.695989837480096
0.724253094464275
0.738556492813176
0.719873883535091
0.697847043671487
0.696340104526416
0.749330204787386
0.756312985476199
0.723267827932527
0.812679589626851
0.754078551810891
0.81052274996957
0.886418692553767
0.775474537886319
0.740786655983109
0.941258012690519
0.786899900643089
0.643194361187548
0.775375352118216
0.933631611522888
0.755812385894467
0.701959835276469
0.673910626050801
0.794848426292895
0.707625579430429
0.724931045606646
0.826150384557877
0.914333324252205
0.883694933881138
0.855403923792314
0.766294658677586
0.732214576874517
0.701966633047394
0.843202552648854
0.647444020139608
0.714808928416317
0.650754060625522
0.601781519315966
0.739346837828075
0.866783343873848
0.635973858348882
0.695067642169438
0.77477671821215
1.81563322930588
0.842627951924023
1.13005639951109
0.816019039704329
0.684858369193081
0.798182403610078
0.47131258970141
0.697780753131763
0.895324464389186
0.67728500719586
0.657668040292688
0.875614410113303
0.820198351552269
0.537160698891844
0.750354180705912
0.781421554740022
1.2216035600385
1.90869333354965
1.46214813069454
0.738826854827708
0.534670301915312
0.531087065228937
0.896097085986241
1.35423878477403
1.14249057779203
