3596
4000.36533379555
650.420452594757
1
2
2
0.0639225722831827
0.0627885423861283
0.0719111237804913
0.0637060877638789
0.0720004162361287
0.0669446007367806
0.0705785485978713
0.0639715075799916
0.0649217618850333
0.0537263102842282
0.0680212619382884
0.0582533119751393
0.0641288123003054
0.062101026243368
0.0634616600959946
0.0577960084429752
0.0691357083653443
0.0527979494905187
0.0676138811190381
0.0606219825726966
0.0655821192552891
0.060006405459746
0.0656595438869593
0.0505631688316739
0.061280836060572
0.0660058952860391
0.0686243192864529
0.0528231347585393
0.0597730000728049
0.0543312056595058
0.065077612865666
0.0612554027418462
0.071803473734332
0.0612837119881568
0.0679482925667728
0.0582420920268014
0.0626596521097138
0.0625206755520382
0.0729317816297968
0.0526545691554239
0.073383021152765
0.0692286092139287
0.0640006884596111
0.0594419890256567
0.0654494581531637
0.0589958425881167
0.0694479829982751
0.0569954526209618
0.0650521308483232
0.0627204719678657
0.0695413876182325
0.0536366125174187
0.0701468488773913
0.0673374060387587
0.0611451265314543
0.0671109406503383
0.079551100349219
0.0632897355817983
0.0636996454003653
0.053049957926684
0.0685999765775834
0.0681654255483203
0.068154056736559
0.0611695723483681
0.0608283866739874
0.0526976198008971
0.0686450120719364
0.0545519114957554
0.0665080371665097
0.0583614235410598
0.0661006551576165
0.0574556669251601
0.079119489586342
0.0668807386176226
0.066687121239067
0.060412386792909
0.0643507435803935
0.0526929115157559
0.0580812303090402
0.0511911317775178
0.073109200594057
0.0655637479304141
0.0593020035849957
0.0461475308328363
0.0630280783359138
0.0675491036450782
0.065501695675912
0.0487573838272542
0.0870009778401058
0.0638296563561495
0.0560823743372336
0.049293220715708
0.0566957476502936
0.0516913439036548
0.0581256499540284
0.0517529302923195
0.0660740489390781
0.0530474601699477
0.0673242424416922
0.0637602418092633
0.0588067308413577
0.0517639068425034
0.085123768329667
0.0647047156689344
0.0858160961573651
0.0660826587299455
0.0472855415038893
0.0836226559545914
0.0808940905709299
0.0570018878010233
0.0652013377072845
0.0468884377009009
0.0589560312969902
0.0548633094602512
0.0557377524598192
0.0641871717419136
0.0909886242672905
0.0482936622565478
0.057709002341148
0.0553479033654219
0.0429030950886689
0.0513957785759827
0.0969968862730136
0.048863465958711
0.0694144660734672
0.0533024749264935
0.0462815683394321
0.0653675232899847
0.0910506802560051
0.0605617652403164
0.0584684202478968
0.051792566879534
0.0498558344205607
0.0356582902483839
0.0780750301222793
0.0651559383010736
0.0490096550339936
0.029979233099432
0.0599869500210607
0.0955527391929251
0.0781225031129002
0.0576263947864875
0.0479944355856712
0.0349575866688789
0.102480348886624
0.0655571178181199
0.0505623163398488
0.0660478480236757
0.0734976813259422
0.0519420152472198
0.0558526885062315
0.0435306326856968
0.0715749379905047
0.0530150222866554
0.0249802548777689
0.0493122430790704
0.103479848773884
0.0621575614289847
0.090143592304125
0.0701286958653147
0.0569986969894332
0.0658968835486518
0.0503758623180775
0.0492055980834879
0.0497391515225195
0.0455996346846123
0.0587021650900332
0.0750554181664739
0.0562586891816942
0.0454816418816355
0.082136703178168
0.0506504597706434
0.0467500187075648
0.0863738851828425
0.0807431892044993
0.035804138262673
0.076937870877702
0.0624023468090224
0.0452527230539317
0.0472607464595957
0.0819447776426323
0.0618207436514992
0.0551756277344286
0.052928740629695
0.0488098688176527
0.0626566803691307
0.0691778619950177
0.0530812848326246
0.0527105469846026
0.0419614546266913
0.0554738203779388
0.0831135850819846
0.0871716975346633
0.0623370109186023
0.0476590563215599
0.0342261115837625
0.0704211842267346
0.0971785892873165
0.0606402665703728
0.0546071501990136
0.0534871805501074
0.0443069345521489
0.0502379020687105
0.0530158292545059
0.0465999097175399
0.0317787981197175
0.0757151144597236
0.0868613022665455
0.0586679836168008
0.0495342347095491
0.0400326903129046
0.0422703937400688
0.0782344283758996
0.0908095743644375
0.0607736884446524
0.050065718046063
0.0521599423856962
0.0577897199892456
0.079605097885122
0.0540831028496237
0.0544282603794152
0.0564026863727513
0.0542607024719885
0.0529916812872707
0.0531684372059278
0.0475836744271104
0.0609093887299276
0.0530754729805399
0.0509964574599896
0.0450668630216745
0.0686164549618161
0.0578899366699614
0.0600247783382561
0.0518857662580821
0.0438603841905612
0.0495223295193142
0.0779336841612662
0.0611499374223113
0.0623359362456966
0.0546595476971175
0.0485645394090624
0.0538416556356825
0.0587381903915357
0.0605317621231241
0.0471748695611856
0.0469201220743032
0.0741560956559203
0.0800050154503751
0.0505422790591856
0.0477812242888176
0.0581976083463709
0.0712288188853087
0.060322037105437
0.0531389676441274
0.0577362272755355
0.0486937053719719
0.0464439074708697
0.0800454071736639
0.0744394211753174
0.0508591223114716
0.0713092652888232
0.0667585161361488
0.0580429960952705
0.0380129404118786
0.0470325774628048
0.0895078432685799
0.0762084877578022
0.0471990018622621
0.106754346732657
0.0837080498646416
0.0693666456393452
0.0444231540464601
0.0344676799756713
0.119714574625538
0.1166433098918
0.0558374166220868
0.0636221753388896
0.0669317169213882
0.0678761636123588
0.0496585033031076
0.0613535593573964
0.068746805503663
0.0666616577768827
0.1001539781214
0.0988743090828783
0.0497154628756209
0.0627780231408461
0.0971377488587079
0.0743669613892648
0.0637566458701899
0.0513000520482423
0.0498429175716163
0.0662216142992255
0.074063272292467
0.0799348330462996
0.0630996434125924
0.0704456583882101
0.0800076348343649
0.0764833192241417
0.0501133048195893
0.0716236310691943
0.0655643893253634
0.0735882746855835
0.0519804338606578
0.0685516426139001
0.0625474789154212
0.0557462901939027
0.0546012489195797
0.102218995132933
0.0733114248628811
0.063512054558949
0.0784832444177607
0.083731400238033
0.0503373909562427
0.0672058485410593
0.0638350501695364
0.0748110337017365
0.0526187476977861
0.055401210546652
0.0709968394086736
0.0834482111604613
0.0593916611004591
0.0706754327354655
0.0610713482112732
0.0674938875170151
0.0634000838020041
0.0699308270115456
0.0639594211932109
0.0670708714585851
0.0546877873966543
0.0841563657120147
0.0822543486891289
0.0630398002143201
0.0799704746024095
0.109575197532679
0.0721598769263694
0.082099737756566
0.0782890070777802
0.0760847385598713
0.0746284009429846
0.0809750820295403
0.0684937695495081
0.0725323986507402
0.0858845950615865
0.0853810924570234
0.0690239225390915
0.0706574171603064
0.114420476015557
0.128343358729042
0.104714434197817
0.0793461933552799
0.0657198298429781
0.0940268094871167
0.0980118367092711
0.10125520028382
0.0937763703068886
0.0998967203249922
0.086481479371739
0.0988254248537615
0.084208914215797
0.101780056559935
0.0893960211047236
0.1018421156805
0.0890193404146584
0.103389897461643
0.0940703066051257
0.0979064806148584
0.0859063354748636
0.131385412068677
0.119213641256855
0.119311222771487
0.108136856256358
0.112399105307307
0.106159473133009
0.132909196391785
0.13382119004059
0.129827229640723
0.144256459209956
0.15259426349602
0.130195593040431
0.121913617382088
0.125913939730171
0.13042227528664
0.131964668036119
0.135576831894261
0.128486557845467
0.131614537292862
0.136398537604174
0.143288825283716
0.135468357415986
0.134272152937323
0.144070917341758
0.15747465869339
0.155874334192593
0.150850038717653
0.142625713619296
0.152855705266069
0.188676168200902
0.200951663712939
0.170871120471198
0.164041827787108
0.155890275776035
0.172374404146668
0.162688386302583
0.174314552294865
0.166431278555743
0.181225495453552
0.177878093647325
0.200533722901473
0.196008606242134
0.199224449298256
0.181711466900541
0.202845636749153
0.193110099907839
0.214908478147301
0.212116849921845
0.207633044568928
0.18484142473193
0.232000502969212
0.21413927272028
0.227095942552172
0.224868932909056
0.223943609034941
0.207552527843455
0.237741389632033
0.227969460871446
0.232634417903813
0.241159908983645
0.242546505657328
0.231354746795739
0.246634969647478
0.236215000665775
0.25122087651874
0.246491394417949
0.250143362888529
0.243547694824036
0.25548795649806
0.245858116679405
0.262023095661059
0.251426610842637
0.288188559239235
0.277094070985717
0.301992827252447
0.281316402023465
0.29150199925941
0.271363192260432
0.292856640313823
0.279077513299713
0.304521511234444
0.288084420071304
0.314863952421384
0.297665598652418
0.320919153077287
0.299662831243717
0.324772948958697
0.310763266397408
0.317228925487695
0.322807632522219
0.333553600177909
0.322697033863325
0.333651592790216
0.316053775734299
0.375765682794854
0.350867191339676
0.400945430018552
0.356430041848477
0.373920945122071
0.354070379535876
0.384818751117871
0.355920502458121
0.386965562721855
0.383382499499115
0.394679756682656
0.396761551086807
0.398031306392867
0.374956266919539
0.397034530149459
0.389464266015745
0.418381651585142
0.417140068469614
0.431549108164302
0.417215288012667
0.430923811281813
0.402127973607163
0.430674710055783
0.424849558971803
0.440241126717058
0.421690978725146
0.452449516776244
0.452368407260102
0.488384112375976
0.455318611049963
0.454878884549846
0.449630042441617
0.479472187112244
0.453208383041187
0.48877836596647
0.462652434084795
0.517534924315636
0.497369959788316
0.501620626843893
0.498284893431329
0.510672341988969
0.485449344549018
0.524528378003595
0.510061978833409
0.521467907935156
0.506014521508727
0.555735665243705
0.52628597012506
0.545409777696057
0.539362996188353
0.571567253311811
0.518752982813583
0.572274594334627
0.572109694044082
0.595317961656688
0.540099796418136
0.55565352654059
0.560575725271065
0.566956272493376
0.555708001444575
0.603428083924817
0.58010077721584
0.601789152621898
0.585831360216415
0.626096178257673
0.612688088225382
0.637307638912701
0.608439420369204
0.635193449626953
0.593961406405563
0.627139064939242
0.648247348698546
0.703021572382186
0.631949327242487
0.675849094379682
0.648714027854852
0.706333342322194
0.659742963066039
0.697423239607
0.66240996331092
0.674950297752091
0.627177038698917
0.675528038507665
0.698901894481993
0.684861931623187
0.699290416068326
0.748565430397067
0.731521535989082
0.747053442215401
0.710410077764856
0.76363926863347
0.716746028969328
0.781900697522929
0.717025332653724
0.75827563116472
0.687276047364142
0.770206082063718
0.753493075555303
0.771322843247936
0.749709912127029
0.782173841568146
0.783832730285348
0.793215044716889
0.747016187302716
0.850235782782621
0.728634399496148
0.791852454309378
0.752016921305299
0.809305086600045
0.778509710454002
0.823580494504636
0.804462464601868
0.854913098138031
0.824988722970062
0.890484710760332
0.797189834383102
0.845609819499102
0.858232365597907
0.885917964355811
0.847607595439415
0.847680492188251
0.826253965775692
0.87462580684507
0.825048470256278
0.900674654203233
0.855822353472807
0.87623771052671
0.874754087456458
0.97670199609611
0.869924288863761
0.87919541821294
0.87538384257005
0.919921235892979
0.923642724694289
0.985663179995893
0.907186045169545
0.990757302346916
0.93229500533136
0.928798273562005
0.9022744475561
0.98341194589416
0.913466106507827
0.991081863914138
0.891523165603151
0.978281775872317
0.947061581495946
0.968779928461336
0.929162811418031
1.0062829052406
0.930707187853401
1.0462466562334
0.970965147567438
1.03911808886827
0.936689024432976
1.06312630545472
0.969048957771889
1.01713892896875
1.01813282605183
1.04459314223003
1.0495061655046
1.12160558243501
1.0391511198154
1.12938045427759
0.982649239605258
1.08932710342856
1.01655103671307
1.05099585987168
0.958088456559542
1.04461375927414
0.998463019983142
1.05872108010104
1.01940168788628
1.02672556565488
1.06614613943566
1.15243412687642
1.03387242723015
1.08892562867049
1.02639482829476
1.13659780003574
1.04653560625242
1.06261381668578
1.04403224679155
1.17645464692074
1.10423911504793
1.20211675262082
1.08344966966878
1.14893226389407
1.07657656485818
1.16797115512215
1.04850517055207
1.11351363534876
1.0873169805957
1.19891898461667
1.08606346364952
1.18087251541562
1.11351819503943
1.13029308524856
1.07096308329218
1.15276271497571
1.14177510793952
1.24138193835996
1.13913159909559
1.18845507673727
1.20822078958924
1.22432830664146
1.15503613751711
1.19682553662142
1.10857480841806
1.16818405265219
1.15480998382102
1.16607935487427
1.12323347064262
1.23493258973216
1.14453169892054
1.15095191034761
1.12985252907281
1.22114459992579
1.1316695046412
1.23678025446472
1.15088758947077
1.29912231371062
1.14766545549951
1.19488345310951
1.08728117603175
1.23837132624496
1.15952753930827
1.33197791886572
1.20112177900027
1.3014859567196
1.17323383955013
1.3306571029009
1.16455128676446
1.23274901217385
1.14364355582872
1.29598725096501
1.22360547670595
1.32334541463376
1.22115952468781
1.28809332855741
1.15008536249805
1.36728816865748
1.1496392727864
1.30691402722495
1.20747066978405
1.22129964304184
1.23277721104701
1.28256939598205
1.22812606213022
1.28255806562117
1.10058834643892
1.23943934730736
1.18128620315002
1.23135494430277
1.18505733759504
1.32870433877871
1.24939470410459
1.32956745261103
1.25953055774535
1.28521708521427
1.20717414025127
1.17985333917103
1.26457441907945
1.26308864106826
1.14554077312445
1.31559365252773
1.21716621080764
1.2156487624247
1.24782313679257
1.31103654867411
1.22364170410325
1.28922800433351
1.23190346203435
1.30139994424145
1.20927374258001
1.29285654445532
1.20149576553264
1.31599735508181
1.17234971453374
1.22545903115474
1.16687867080211
1.21760212841066
1.16086949746276
1.32879350384357
1.2191810211946
1.34355836421583
1.24842118350534
1.28562546873725
1.17735908835405
1.33863212309365
1.21227627715279
1.25763569501581
1.17189757301872
1.29203579210663
1.25485158667385
1.35064036166601
1.17271316508468
1.36866404297421
1.20775626701498
1.37049764369439
1.24569070321017
1.26196665214556
1.22767675938347
1.228901302029
1.28573105018126
1.33537794984957
1.2188223502785
1.26686307350214
1.15240141124371
1.26859161841618
1.26524416204954
1.21812050402713
1.20602379110948
1.30871785660905
1.20624397154398
1.2637422876635
1.17663880955096
1.27668524614264
1.15504527195702
1.31343945140619
1.22358781702069
1.23275159039368
1.1431745070872
1.30947108573221
1.22983814611429
1.36826735353608
1.18787904419789
1.21315174527759
1.21491756732449
1.32468408989592
1.17071667343303
1.26192879857395
1.13285315853024
1.20300823740075
1.15054116742561
1.20554541095726
1.21282850020737
1.20634548606781
1.1939416311122
1.21742871489038
1.14816591637119
1.2898202757432
1.12650112013558
1.19884783657623
1.17298021752585
1.16220311136043
1.16462488584623
1.16912246650519
1.18759046884638
1.23877639404234
1.16811684328153
1.25864375281945
1.1575506611693
1.13082835092729
1.05185506719866
1.19416187237941
1.09470656580801
1.21555123994777
1.14172451040403
1.15544964591515
1.08863241499556
1.15668297055746
1.09494199464685
1.15150347677166
1.1603513944618
1.1490682669441
1.1513295214814
1.18569592089683
1.12371477039474
1.18542928767116
1.08578362461781
1.15765956535246
1.09818277002561
1.10653797039876
1.07961239687569
1.19184270391727
1.06561813527454
1.11974049130207
1.04421884743681
1.08964241015589
1.05442374364595
1.09065325593572
1.07274611591952
1.07436888900534
1.04091218559992
1.13916556850465
1.06749460690283
1.10821516515744
1.06044846739881
1.07690073538533
1.06136111281444
1.10630325185847
1.06191904533809
1.09771020525581
1.01760859333744
1.05578681300142
1.00612281194515
1.06544810035526
1.03252212087627
1.02801076445176
1.00787318043714
1.02564684350095
1.00815173428216
1.01279365679331
0.975277175013624
0.993570129316071
0.984408138979271
0.979498031098081
0.97292478762535
1.00731022280369
0.978723073556587
0.994498452581934
0.954242827761909
0.966144710593332
0.939529291848872
0.979407332877745
0.9430542965954
0.975547721975562
0.904956447089898
0.975572182085951
0.921926691057654
0.972349732006269
0.953040674473241
0.992350249259086
0.900678648046898
0.932166908397514
0.927411644523248
0.943468278624574
0.884235109867783
0.945038286303662
0.89822891395579
0.914350611030549
0.875526938353918
0.909054601319478
0.877056607933328
0.878603631698145
0.886809251996211
0.888729417633167
0.869470500987916
0.876232121172327
0.841000073434029
0.894714404646994
0.840293985327499
0.869371415636467
0.827354117623943
0.839223547462432
0.834514883982824
0.842075405356892
0.806247107199837
0.877875163528152
0.79731726717948
0.832809342799825
0.815907856322124
0.844883669500091
0.802193919610383
0.829683550088022
0.798020879790457
0.809617256372193
0.796136124554072
0.777633610190167
0.788243654580021
0.800980079614112
0.760895143671496
0.773532462813189
0.756892686392642
0.784890443650971
0.755104273502458
0.772221044223791
0.749545816062485
0.776416472132925
0.752701882244531
0.757887465972097
0.747391494482236
0.754589718796494
0.723617332473211
0.737971009931285
0.721969750544661
0.736109861622465
0.696827520107283
0.704967696767695
0.698797459039914
0.704774188122504
0.695187284892892
0.714413255050852
0.693587646301579
0.707347996440857
0.675512984157421
0.685749774220155
0.687482776736188
0.708798809335696
0.681236831247836
0.68712309205442
0.669853890034936
0.675805984817077
0.652416246257221
0.67933661444348
0.644823683719013
0.676191122885417
0.644387398595932
0.665371387379554
0.635771356853815
0.653691075767316
0.64218360271311
0.663006316389834
0.632515907366158
0.647609989979992
0.609492189142704
0.64041056487276
0.618115072810636
0.641592161654667
0.615955207199075
0.626785744717142
0.602174814228755
0.617035701388066
0.600860903730692
0.612690813803806
0.59158943927737
0.603980211591352
0.595039465437213
0.606885393077235
0.590735010693714
0.590968579972154
0.577830697625212
0.594580453355086
0.570959546787298
0.5840545521453
0.573296923590319
0.571336864708498
0.563423488733465
0.572790033138392
0.563970663985718
0.567029605686542
0.549322409305906
0.565977238026605
0.552238587266397
0.557704163986454
0.534379194201476
0.553312712717594
0.532550316009983
0.53595073398282
0.531165374527206
0.535039684372726
0.534633497230713
0.538985854274658
0.522139672592833
0.527718762548936
0.523583827817249
0.527346088102649
0.518114094604381
0.51798074718053
0.503935771318876
0.521106745092071
0.507609918113276
0.516868236495536
0.49160508005956
0.50360873738274
0.493412743281325
0.501402256655022
0.492960810083265
0.503764155778621
0.484333278638405
0.502912916199017
0.482460514520781
0.48360041612571
0.473980695014931
0.489425927076631
0.468065966977236
0.481784263584554
0.471755347483421
0.481561002441485
0.462255287422134
0.470662570914307
0.458205340599709
0.468137879494297
0.451298212827385
0.466428036493368
0.450599818224358
0.460049789146938
0.456796843599564
0.451071069131498
0.431618352819774
0.446685422824487
0.430020087031
0.437055164828529
0.420598804256243
0.433921504163011
0.433462964639273
0.432534163507233
0.429162130633135
0.432453973922964
0.426806976303655
0.424368336606674
0.420213075897264
0.419410878149693
0.414028367071571
0.420341123548993
0.415253759477054
0.413562866621823
0.40928457626269
0.416817972405672
0.408948027803733
0.417884196902282
0.4036128914859
0.417897492238137
0.395829942256203
0.407540764331817
0.405022119426964
0.404782229315962
0.397756809284664
0.402012044085482
0.386726487903022
0.404925804863628
0.388165255825149
0.394689333150653
0.393273154740622
0.404244489335822
0.393036395195205
0.400937403503846
0.394816292361769
0.39939076787461
0.389214617191862
0.397022965982771
0.392086474609469
0.4027978657313
0.386563932503596
0.402806687627802
0.386834808701153
0.397423632026477
0.394233968327216
0.403680678008943
0.394017272394224
0.400377096180182
0.393026717540317
0.409748017458139
0.401841400201268
0.411947203275091
0.410164980424137
0.41236878338028
0.402475622496396
0.41299613886054
0.41302589690073
0.42978437319961
0.411590248690401
0.418990176262484
0.418072626815891
0.426424242147811
0.419501329077957
0.430297899815031
0.426978758043798
0.441959217299108
0.426773524964204
0.431448680856028
0.429427323844793
0.433060781872105
0.434057664470636
0.44439914575118
0.43493593319133
0.439303445959834
0.440825377155502
0.455154139548364
0.441673410043342
0.450216328447131
0.448136740872698
0.461302479569022
0.453820308645632
0.45374659184668
0.45768170655826
0.465864854360778
0.459993076930238
0.482021808001419
0.467594082768861
0.477610943701636
0.477637588229404
0.482743354228152
0.48492379785334
0.496193655519317
0.485018507636991
0.496984293796445
0.497288768499448
0.50373275926626
0.494592145962933
0.506562409324224
0.497837930499399
0.516845640550351
0.504572454770867
0.511245939560912
0.502943969246533
0.512532879306106
0.520931103741883
0.518250994399954
0.505430741138767
0.520841786337359
0.505902310838447
0.512907081165696
0.505160450676317
0.511521734494416
0.506251579014002
0.51486717409404
0.50444207166981
0.512592755149832
0.513198199131537
0.51464178055552
0.502137336238204
0.510464185694763
0.504698582317582
0.505796017295564
0.509651436291495
0.503375833992819
0.493892764207551
0.507723886343912
0.496259304662442
0.505967024495213
0.501052271470022
0.505806420497934
0.504904585494797
0.515449380572474
0.508175615161877
0.512354411274126
0.501775781086985
0.505570942298643
0.498404596762064
0.517455243593507
0.507391283894029
0.507517732705652
0.501791576736983
0.494129925749697
0.494893155271567
0.515198541760726
0.501854008309986
0.496393500746417
0.500391276570923
0.504689949622055
0.498613613225146
0.511488347161943
0.503795718160022
0.505309137907971
0.505543148085326
0.508207668187584
0.502884796947466
0.501444816562042
0.497203652556821
0.511442951305869
0.509434487858044
0.510130139061344
0.491956912791255
0.495464057355168
0.488744779738886
0.501598586115433
0.480106620175383
0.489173407861139
0.483832492647348
0.485676552847758
0.480862103101586
0.488138140677378
0.473421272884999
0.474399041500185
0.462786496509811
0.464376697449973
0.462555983060583
0.468092457063304
0.449903698931035
0.458191456494792
0.448071830439942
0.452440099137766
0.442683356841797
0.438182921085504
0.434760731992402
0.437277057083187
0.420344773984038
0.435546875213564
0.418780366027778
0.421641936566173
0.421446055638431
0.418565825365491
0.40728292380087
0.412101399101125
0.405090612966257
0.414141225427167
0.407107441920037
0.404443628614043
0.393052953583885
0.395945719984596
0.383979701429617
0.396841923772504
0.385394794352778
0.384015654503453
0.382295183908612
0.387587739715022
0.375891541842117
0.383722064665364
0.37839513854124
0.377164516343214
0.374795784907713
0.381225718732152
0.368571854342019
0.371850685742454
0.364426982320636
0.367792068956002
0.361913390455308
0.367024514095463
0.358616362827711
0.358520103260498
0.353437290055742
0.362431222687587
0.349221801237598
0.356891542716115
0.347274953608289
0.351580967956907
0.345766301481233
0.345985144591811
0.339872838197524
0.350289303072777
0.344093804364634
0.34075150471546
0.340079704119647
0.345229536778079
0.334820393598101
0.336022150982066
0.330380602493718
0.337644063832852
0.330242179396017
0.330060646599878
0.32949932183445
0.333452248511735
0.319865833525437
0.330339279266136
0.32548811941029
0.320084689591445
0.323901011469352
0.323588075500423
0.326227008599237
0.327517198338284
0.314249716827673
0.316444091683378
0.31787426797412
0.318378942029612
0.311882528567884
0.314771061004791
0.311025741502366
0.310885462555322
0.313386190714901
0.318054365933135
0.312209072788217
0.316261403829021
0.308370049300723
0.313465372286762
0.305252891878642
0.304496967649105
0.305294358486515
0.30758327344874
0.305326270570213
0.306115418305907
0.301657264010161
0.307029063594382
0.298639069556013
0.304543608600578
0.301087417767157
0.304486833910504
0.296479294054362
0.295782293354271
0.294283333538319
0.29630415426906
0.295446560811296
0.29868637122211
0.287097319987963
0.288840162418729
0.290187508876138
0.29348187627378
0.291135502121732
0.293770314915324
0.28216743249422
0.289756214331238
0.287725843557722
0.287756125837667
0.280341865358572
0.287082666971375
0.282355609160495
0.285481460928785
0.279149050182428
0.290363137277726
0.283446197223108
0.285299656815381
0.284879163122167
0.278374184094723
0.269297494266708
0.281526405562004
0.28216384695104
0.28207026598143
0.279384875656032
0.282853785437983
0.279396114755074
0.284282295411944
0.274117703267223
0.279186045563506
0.278574503811858
0.279712675841588
0.273691767973664
0.27701608787684
0.270245316859982
0.277773553243171
0.271573246698339
0.276357821409975
0.274156972436636
0.277474260300968
0.27508501258053
0.273940799608333
0.274171145981863
0.271439447334933
0.269220336256609
0.274452234104747
0.26710172834407
0.276380906478295
0.268095622213178
0.269514456160122
0.270732633144794
0.274103478847033
0.267015097194402
0.26763310824402
0.265618735241354
0.268765444016856
0.26235120836962
0.26353059575399
0.263448520610965
0.26721066066544
0.267240967645446
0.268040703217293
0.2619697378069
0.26568229616239
0.261936391248103
0.267322610184794
0.263380342385044
0.260428210086499
0.258010720596695
0.26084619019345
0.257302735295762
0.257074980144364
0.254172976306352
0.258922494171033
0.252888701463568
0.258351472637156
0.254850621404373
0.260356023379265
0.254028060068053
0.25471389095819
0.252283600400971
0.25092260898202
0.253552843832359
0.247709156537086
0.250911439545132
0.253649044375437
0.249246693045592
0.25219133831994
0.246385715704229
0.248108411931112
0.247524776775382
0.245840011657414
0.238757665825405
0.244776925989597
0.243231122296065
0.243241934257073
0.245198356454214
0.245295840358011
0.24280386618243
0.243722709037589
0.236518147824236
0.240805844918148
0.237955355993763
0.244267947290073
0.241076798173201
0.239214364271657
0.235602960591627
0.23883737455719
0.232723058842551
0.237722757534217
0.233512690568212
0.237617001875112
0.233128367254275
0.233893164831283
0.230789261700621
0.23316475470737
0.233748286249365
0.22994819029128
0.226067510761144
0.23002608078375
0.22401922136673
0.2250720937513
0.225006032595727
0.225661894277275
0.222497573905144
0.222550529400987
0.221127013801724
0.220300372389432
0.218844526916893
0.218648297040822
0.218529930990814
0.21917969433596
0.214672020079289
0.21383723313446
0.219331845704281
0.217869303792827
0.214599633341198
0.215859958684362
0.214155287542263
0.215005329716199
0.210654319442844
0.209050498926787
0.206579708023592
0.211490622133793
0.207842300004948
0.20714057179055
0.209476694715769
0.207341951852557
0.204583052215292
0.20814453425328
0.205343273393457
0.205554935527443
0.205451244136813
0.206283136870686
0.204383701341777
0.207490033216111
0.202802292524629
0.198490925375284
0.200405000364077
0.200196072809677
0.198384577044092
0.198247891857468
0.197030623118201
0.19609209654038
0.194548108835023
0.197211606814319
0.195107143424129
0.197738037274342
0.195788652968237
0.193475200819351
0.192671157695533
0.193532128132587
0.192770854678172
0.193977774022715
0.191678433055011
0.191208831862835
0.187715847671333
0.190703941840285
0.19066746918744
0.191683971598917
0.188294225705605
0.192270696559194
0.185238621187111
0.185570485317438
0.186678242454169
0.18352128140059
0.185357020245299
0.186621595652251
0.181505945146493
0.182055896514861
0.183268684783711
0.18172788199215
0.182252221456641
0.185642829986203
0.178903527724485
0.176708291996678
0.180842930730609
0.180683070402037
0.178383062199021
0.18092337522116
0.178204450178455
0.180364339872901
0.179774597604468
0.177695945341829
0.176866539297665
0.176950567501892
0.173051212766624
0.174716371666814
0.176445408508295
0.174650399416139
0.173738831353322
0.175588033004655
0.175666614398494
0.17773693576398
0.176130921152399
0.177459727888179
0.176888169636171
0.174706706877172
0.172133845559419
0.174037898918289
0.17292233429682
0.171711281351203
0.172882031874263
0.173961657604452
0.170564619985419
0.171589572393112
0.172688857123649
0.17128069324919
0.168329978733424
0.170383782430745
0.16824822470019
0.169554699659954
0.169279710487625
0.169869536684638
0.169457019066452
0.17014704017461
0.166085273826985
0.167244141203145
0.170557190290257
0.167220565148193
0.162357126966268
0.167117711559717
0.16481485111267
0.166092170197229
0.165804937233389
0.167291834971207
0.165370291512411
0.165762774917262
0.167751630728033
0.164329069781421
0.161113524861413
0.163247737492211
0.160307654906403
0.161499230665277
0.159427078650582
0.160847104807065
0.162065248936626
0.159710621407689
0.158516282609109
0.158621190177153
0.159408651243418
0.161791541881599
0.157618002990511
0.159282426603675
0.1599622741049
0.154493494388935
0.156887618242304
0.154466708159517
0.154631731496467
0.157207448529907
0.156686952155109
0.159829251150042
0.156277886692245
0.155110890157084
0.155292169849779
0.150682335562941
0.153175228192273
0.150391075420565
0.152931697073873
0.154307428048627
0.155561276170457
0.154875873017561
0.150023398422559
0.15262486241376
0.152570933093083
0.148796614939335
0.149183197235824
0.150498752390312
0.148797454611956
0.150579621411888
0.149451895056122
0.149012404455555
0.149196881205785
0.147489302243755
0.149272673515806
0.148757156760745
0.147544073096382
0.147440810451868
0.148862679033157
0.148154508171502
0.145022748152132
0.147376956799445
0.147264505276675
0.146718745416353
0.145737478231307
0.143745676101105
0.142505416822755
0.145039046283194
0.142546076912023
0.140750054340024
0.141555201210187
0.140213591630327
0.143229941245919
0.140896357896432
0.140625057710684
0.139048776746367
0.137168408464502
0.138269764088223
0.137217057739607
0.135210290697403
0.136693012901644
0.13555475296327
0.135491313134235
0.132125004954522
0.134137093684864
0.137286530143093
0.133051012557932
0.132633373892717
0.134193798885302
0.134408217078398
0.132099253647765
0.131468318445686
0.132669790371805
0.13146701727009
0.130838281153073
0.128156712169872
0.126187949933977
0.127960413248718
0.12939298350499
0.1310102130926
0.129825014997299
0.12744213020458
0.127176542116729
0.127102051003035
0.125906551817937
0.128463592797418
0.126956178689816
0.125931056871491
0.128567693571531
0.125424870161389
0.125269981329509
0.12207545604029
0.122339500892652
0.124147794014145
0.123602504368653
0.12251716832579
0.124010502155011
0.122551695699772
0.121042721014038
0.121872899634289
0.121612613822553
0.118635195394541
0.12138808271283
0.12033433892937
0.121109815379738
0.118643989723338
0.117218315510585
0.119209795406385
0.118001242451517
0.119510706247464
0.116937007876573
0.116072723725079
0.115883548264562
0.112843304796259
0.115088432400291
0.11462801990883
0.113986134009669
0.112554738477529
0.11154716175334
0.111981402313854
0.113170815428843
0.110011707944197
0.110424355382436
0.112790064560701
0.112430099088182
0.110854421503371
0.11332788627964
0.110999886793175
0.108717171013396
0.107761286531303
0.107827995839369
0.108773703383514
0.111592065245433
0.107539812703548
0.106617809544894
0.106187699946528
0.108774671777706
0.109227742707421
0.109100123803026
0.107233316930279
0.108176741132514
0.107246332353653
0.105724546776532
0.106140508414298
0.105742167526247
0.106055374508874
0.10587542019016
0.10415341553937
0.106544926214744
0.104804570948646
0.104163931865169
0.104633315068896
0.106829929166596
0.104423238189518
0.105199240438142
0.102958422639228
0.101405584742027
0.100575215582576
0.101589906110562
0.0994270338948174
0.0986949901300566
0.0971794653374384
0.0974558713719574
0.096370173032943
0.102045011250671
0.103299498236435
0.106420883197127
0.0953689334837376
0.0891860612437373
0.0942155482534139
0.0988233596555853
0.0956013710061212
0.093140846753816
0.0957531733803118
0.0937012052229208
0.0927788747635484
0.104367482005266
0.088836687481174
0.0984458596663951
0.0983945020379114
0.0975228674651809
0.094594803010159
0.09414287505437
0.0994828662405865
0.104555688823008
0.0991062916958388
0.0987611889045575
0.094943787287756
0.0924938982183496
0.0872917082506971
0.0961531835985256
0.0890269555003365
0.0962686418053325
0.093460094568814
0.0937287639816201
0.0921726586754054
0.0965322850342253
0.0885943188914098
0.0893865470378708
0.0854438961267547
0.0923794319947814
0.0922333601975837
0.101063415280069
0.0951690874050893
0.098361619574332
0.0885244468308277
0.0922970714241303
0.0854594654025188
0.0942071478100582
0.098108810169575
0.0970695792861148
0.0872095029129361
0.0912390348584441
0.0973205085134759
0.0990437455650262
0.0923417260105234
0.0887967426672662
0.10331610358909
0.0956687727007568
0.0947214433617313
0.0872075348319419
0.101147347396945
0.0859014605188358
0.0979038205451345
0.0913940050207254
0.097689760710615
0.093606388634703
0.0999037017408604
0.093153874857018
0.0923949205954972
0.0964110527250279
0.0917005071195836
0.0930695382247928
0.091482890549746
0.095789886169244
0.0933292112879016
0.0924938925232167
0.091627154766531
0.0918571947304794
0.095022915525343
0.0917465506196432
0.0905057440465988
0.0881562849484288
0.0901589726051407
0.0914938673375696
0.0909000971268368
0.0937074868731267
0.0907953475929785
0.0909321358571721
0.0930961921247519
0.0929516616792562
0.0883266540173537
0.0884020131712226
0.0912608675883642
0.0936480944242317
0.0915092891323768
0.0900509353086559
0.0912504538146322
0.0919320674216676
0.0908624034772533
0.0899213901261162
0.0911874030273006
0.0907795687055185
0.0921856597604251
0.0935000522928562
0.0915257761186117
0.0930260335784238
0.0917275712707346
0.0910857127094912
0.0898782767335397
0.0908024575766082
0.0912476616464842
0.0924825673444742
0.0926616667857836
0.092075770938281
0.0910208661229028
0.0930235374943025
0.0930327635815416
0.0912579593026838
0.0897168701414691
0.0915703559858456
0.0898801280564806
0.090643764422214
0.0914203661880064
0.0914924344627873
0.0916445449621741
0.091478772571521
0.0915774712695526
0.0907855822848827
0.0899039929348361
0.090273037706398
0.0891739141981546
0.0926452998323799
0.0919412862536764
0.091909719929486
0.0900844552204974
0.0911027435163759
0.0905880034872893
0.0908268735769051
0.0910416982056519
0.0903545098217342
0.0902566691856285
0.0898494693221201
0.0890891252261668
0.092659611060617
0.0901068203086909
0.0889583271140958
0.0871498250559412
0.0882409333889722
0.0894467985905053
0.0894427245118169
0.0892569307744137
0.0919965803643459
0.0909778397668012
0.0914823905762911
0.0917840263628752
0.0930054659011713
0.0927828471288673
0.0916719055612853
0.0911180335225276
0.0910145425812718
0.0897785272435312
0.0926001670308717
0.0916210898957048
0.0922924121166311
0.0911894093868914
0.0922780840758209
0.0914344644591939
0.0930514915093008
0.0908110315417892
0.0920102343212248
0.090327705644747
0.0925367305327235
0.0935187839255801
0.0942659362834733
0.0950793195308776
0.0950899747538523
0.0927569650681607
0.0937747996124148
0.0929115369047128
0.0945862109272282
0.0925436088461826
0.0932236095759006
0.0940600452302463
0.0950872628226563
0.0949173200631511
0.0935480082366346
0.0931126363007557
0.0953169141474772
0.0945223270331568
0.0952175154991613
0.0924227720552119
0.0940899677197652
0.0944634294162252
0.0958662634972199
0.0932293954821607
0.0912579466984578
0.0923155778033673
0.0949600068821478
0.0935202856190227
0.0942919024562408
0.0949196913667687
0.0951055893829726
0.0950070572105817
0.0957993479466799
0.09379459186247
0.0961059486195644
0.0940283870346394
0.0975195651895203
0.0953075635141496
0.0949376431892374
0.0954805841335771
0.0960018198769559
0.0952734283462053
0.0952773441884513
0.0948530521429864
0.0965461385251145
0.0946659101612624
0.0974066259883064
0.0929921699231423
0.0968042381126563
0.0968511279698671
0.0944916730191185
0.0959945649499183
0.0992951016912109
0.097018836019291
0.095914443902625
0.0956056187832032
0.0991514282854668
0.0995821413318144
0.0982390814068848
0.0960970713835348
0.0986715752829695
0.0985347160485899
0.0973361421224791
0.0960540059033665
0.0973753581512367
0.095331219845722
0.0981521448151096
0.0973224866916222
0.0985621047662335
0.0968481506138057
0.0998827709218984
0.0969715942755359
0.0958081085800011
0.0982807322208675
0.100028719262032
0.097752293155937
0.0992278198345731
0.096682518302623
0.0981976439118912
0.09646128841119
0.0965018761520417
0.095592737122951
0.096540850285733
0.0951789783284667
0.0963561416607727
0.0928030782855508
0.0951485609406116
0.0928829571025065
0.0966875611935646
0.095538791283609
0.095324472086259
0.0941717747094508
0.0951092667276184
0.0943805133455621
0.0952531161923797
0.0918705533398324
0.0946698160627035
0.0909480561618719
0.0916784384055146
0.0948210600910554
0.0975211741064461
0.0937941727342324
0.095316890652594
0.0938184126754234
0.0930921664354546
0.0929485943362501
0.0937318685251538
0.0917282410605471
0.0934518897848238
0.0915699533491288
0.0923743369145579
0.0915397772152133
0.0919994341859449
0.0919804716563496
0.0931992477931141
0.092426981230244
0.0943205367208989
0.0912635604934552
0.094582721446655
0.0885723218272447
0.0894211753910369
0.0906030328997205
0.0912732669982341
0.0904722566307328
0.0917200046554726
0.0909561707217804
0.0931506076492482
0.0891711854354506
0.0907922912884672
0.0909874861268368
0.0898597764570696
0.0899760434347001
0.092508588417482
0.0891725928859836
0.0901658681458683
0.0888108019936287
0.0907063569441943
0.0879737341182616
0.0892814749348308
0.0898605658015542
0.0911230008308826
0.0867918155495036
0.088691608604248
0.0846835569358858
0.0897374931897819
0.0895611903387169
0.0885677784840395
0.0869026132833699
0.0899086513657523
0.0873572857327358
0.0885780623646284
0.0870049104819301
0.0891141863257477
0.0863800634188258
0.0864074105899239
0.0862606481930435
0.088463977916472
0.0873671611760142
0.0878766959652987
0.087294931506778
0.0867994485196649
0.0854234661175126
0.0869567386234693
0.0856021760213794
0.0860774421792123
0.083193850575819
0.0885426039214825
0.0851600722190848
0.0879276318736536
0.0858588060812511
0.0874528753616462
0.0847323342734477
0.0863299265678421
0.0825025296993036
0.0857182116150366
0.0845468278164443
0.0856953586469299
0.0829732251775652
0.0855961101207131
0.0836855095438955
0.0851204587180798
0.0847965334907145
0.0876295148840839
0.0846513846302083
0.0821835797651597
0.0832824180279822
0.085662477736358
0.0832030633800715
0.0853916296532094
0.0818059410701367
0.0833786638450073
0.0812987909409133
0.0822652488751666
0.0839932379015772
0.0842751974089365
0.0807167913877499
0.0813815257259693
0.0806255401676564
0.0818591036000907
0.0791841405629304
0.0827253448777729
0.0796532387191662
0.0786590600841712
0.0778424866124113
0.0793847957138821
0.0775436630713761
0.0805682840240561
0.0764091784635011
0.0797221084895131
0.0776587485141948
0.0796228626287391
0.0812523271786155
0.0780486646835174
0.0747318174534958
0.0753053385573857
0.0736592119346043
0.0749525734586907
0.0741728461585951
0.0769443189979477
0.0734553469678981
0.0778087130751247
0.0732069046538469
0.074657766529445
0.0725791554443013
0.0735729249760563
0.0730037664614192
0.0743649258145957
0.074061294854994
0.0738836891724977
0.0717118645662704
0.0718663660576135
0.0695691185510296
0.0732886582341068
0.0716768337335184
0.071663745355035
0.0705569011679589
0.0708931944889826
0.0726453308511924
0.0767749684963239
0.0717841657236145
0.0711828358218759
0.0699626191750574
0.074220339214628
0.0696357168341242
0.0710581616211007
0.0694710792960234
0.0711860490026349
0.0691041500538091
0.0718985953497403
0.0685708193813361
0.0674000958790508
0.0665335167016053
0.0712246127848837
0.0672791476280444
0.0700410348635598
0.0700194050183112
0.0677047891775858
0.0679103101249895
0.0679948140722995
0.0655493388082941
0.0688106355071643
0.0648809534942048
0.0700730865322707
0.0686279004337389
0.0736320630445253
0.0685091174902251
0.0700547385569218
0.0653233606199428
0.0705640681780913
0.0651618011099318
0.0675118920652101
0.0629198668549357
0.0666569195819715
0.0639328941478628
0.064192779205529
0.060880717994531
0.0663463771172292
0.0648473458559297
0.0667197101155566
0.0620363101470358
0.0631268666882954
0.0604103885672107
0.0667562780966821
0.0619725952238056
0.0654644234158791
0.0607874599549992
0.0671716845084544
0.0613929395989766
0.0665404819108127
0.0610470563735808
0.0638578138252569
0.0698745412452916
0.0651254250233303
0.0608898756447154
0.0614735723970573
0.0642427068347694
0.0632101799893961
0.0620593872774201
0.0613009852629502
0.0593416594549129
0.0602567656916321
0.0617640146772847
0.0616429801189514
0.0599455388193681
0.0612978018204111
0.0609870217064424
0.0621435225630154
0.060142253933267
0.0614421411065786
0.0617643747067588
0.0604040525106309
0.0617737977445418
0.0708446577646826
0.0650187673579978
0.0654645421772655
0.0618391012765397
0.0535544286138968
0.0717155697681311
0.0628076787736274
0.0638085819958412
0.0601671481013282
0.061569497099117
0.0584623448018439
0.0598448944392686
0.0590195626132843
0.0599660047493363
0.0659087456069492
0.0582091723159178
0.0620075444030913
0.0590048379608957
0.0606992764515223
0.0593483104249965
0.0597347543797513
0.0600899650109942
0.0609716514531967
0.0602813912266411
0.0575604976146324
0.0564146731911692
0.0582298058333218
0.0595081424003361
0.056424128600118
0.0604943995052277
0.0632479822204391
0.0577972428917593
0.0600485492454293
0.060618127396148
0.0549819800434233
0.0568816199703879
0.0687893896468538
0.0565699967298716
0.0596006270359612
0.0561046383843625
0.0607711508955146
0.0581435309165773
0.0630550467092593
0.0573729331797034
0.0573706855662245
0.0537117668071074
0.0601142214518922
0.0576181203251018
0.0601132576870527
0.056035656508293
0.0605321818444651
0.0573501046541131
0.059070967289589
0.0556900309398989
0.0571721128215032
0.0600105871547878
0.0525695785447838
0.0628968093507492
0.0723374856775873
0.0665568559344895
0.0622584971125927
0.0636064449134283
0.0594858945638776
0.0573968972886926
0.0583432890635685
0.055150426483139
0.063265187297476
0.0577433701160484
0.060498394584016
0.0572000678574408
0.0594667175963108
0.0547844097192663
0.0584128089022582
0.054990756806168
0.0592251508334526
0.0526608014628097
0.0612551486481352
0.0518194461651411
0.0612097602563855
0.05262317322437
0.0680646214615057
0.0558886268055639
0.0672524568469952
0.0420394608762868
0.0832588559191058
0.0694931710941306
0.0621092933754644
0.058913124016754
0.0601436124274005
0.0589636618330421
0.057375031293109
0.0562947623418157
0.0638139921426274
0.0587554950519405
0.0610079618951377
0.0567018292621663
0.060704627990985
0.0602195785337489
0.056481758178516
0.0541256039978723
0.0811995938790386
0.0620042440025699
0.067117920140458
0.0548829878500611
0.0649658704054409
0.0752780657329787
0.0611862928305691
0.0634674742824944
0.0639514407658455
0.0606793516310601
0.0603753222914653
0.060796077087605
0.0585820104258291
0.0598517926386382
0.0625887795201129
0.0603829118230746
0.0640066423459034
0.0590843046043894
0.0673034827736797
0.0602672791272907
0.0695006960831413
0.0691295145019583
0.0612948140784074
0.0648636524185913
0.0652842815484617
0.0636159087266014
0.0645180432709077
0.060734693337074
0.0596020534010579
0.067486013675048
0.0747504233567237
0.0634014974968588
0.0751389920820421
0.0716590796813473
0.062151972961758
0.0649488746992659
0.0640394462891451
0.0770889990429199
0.0547191964215458
0.0682410929163515
0.084876931899111
0.0722245324910487
0.0863835611330534
0.0623751686979414
0.0741228960544125
0.0607903815429418
0.072423139744474
0.0546798352469017
0.0895132451758707
0.0575080783772118
0.0776431154711107
0.0560858309033507
0.0856613086024373
0.0737738002963738
0.0747889471876028
0.0699921634519654
0.0716728049954379
0.0657813707244651
0.0847344338915224
0.0691790682218671
0.0631820328231793
0.0808577746342116
0.0935400661582131
0.093998529247281
0.0771122648463254
0.057242054581101
0.102692441813091
0.0730927484817258
0.0833555609809747
0.0677031448883789
0.0838258374215032
0.0658896815340177
0.0716187096826759
0.0969151355735998
0.0799335824327245
0.0756039639489107
0.0848060041122081
0.0649116333298909
0.0961699050090147
0.0807178075857714
0.0849539137052448
0.0743478627694299
0.0898139084213723
0.0587402652371568
0.131967430098032
0.0813184387636038
0.100758214271797
0.0977896027767071
0.0965975329761392
0.0930399698841131
0.0931333165682637
0.0867177609163179
0.0980183922160109
0.102378283904645
0.0985473402388219
0.0781093271742318
0.102305591517146
0.112001110967948
0.0917870397321901
0.104964191533326
0.0939811588884829
0.0825559262730635
0.111668137836367
0.135887382797993
0.127660940927611
0.109047996028761
0.101319040546781
0.125309869183502
0.108706250725806
0.106592389112498
0.107444348061321
0.108993412445359
0.113128872216304
0.101064166390433
0.124014813241008
0.110511129488448
0.122779578541351
0.113826501689697
0.11251808768711
0.109428302653832
0.146404723844608
0.157864760135972
0.116998143077028
0.164608261404015
0.142144437162158
0.138946885896486
0.124998420292631
0.125984989344499
0.139989492369283
0.135425277579895
0.143049601101998
0.125125400205225
0.159913870776636
0.146872359038452
0.143654385131363
0.162296288004292
0.149642857638032
0.157120015017048
0.107282432234298
0.320150496500844
0.165194699182575
0.195252458617478
0.165313216734309
0.178604376030461
0.25171571838002
0.200106736268686
0.202225180542903
0.206023471650981
0.204105953485273
0.215170207534099
0.225287229683641
0.22909806103673
0.248060280768227
0.250863553401672
0.232048401982603
0.261935362458765
0.305309531668601
0.312538312297006
0.297558514032253
0.272890858018078
0.297157809265255
0.308075884768427
0.302256191622301
0.321343499980974
0.311370874443794
0.313200591988278
0.399863859054896
0.342668792857547
0.354596535592028
0.338588915244125
0.414689986437537
0.336695819252473
0.437801274018153
0.397133369058909
0.410166424736587
0.39870181847766
0.417588213654792
0.425708072137365
0.408913514794867
0.461653163515312
0.461690809138595
0.45685183358771
0.461852308931457
0.462276207557134
0.476806533548898
0.472081221011774
0.494748711071353
0.454976674035323
0.540504947987073
0.472259771672874
0.67588365367361
0.524011497727452
0.506731635280268
0.494750129842168
0.49887094750007
0.54066573399484
0.513844807235859
0.547157544774482
0.53808884547632
0.50077636425477
0.535119334118531
0.502894272807642
0.52379508342154
0.506292402671436
0.533845626102626
0.488209079244772
0.559850305032955
0.497797831382934
0.562329224846621
0.594577319289947
0.53261076514167
0.518728022686223
0.512744484435733
0.506345645444648
0.519651477735631
0.502140806978282
0.510273167446805
0.531957518821911
0.501100503094362
0.508251415746237
0.463474047040818
0.497188494176053
0.503335621006022
0.474472889776274
0.476620198464058
0.439038348285236
0.465710738027104
0.424267036064893
0.445735451693616
0.490868139221441
0.434482711114689
0.431687867099023
0.415948869081748
0.419278277770331
0.420137385223381
0.4062489356598
0.413733964686013
0.405691928850735
0.400659584152126
0.403834688553374
0.393498012180382
0.397212724839169
0.386029564216391
0.391700175774065
0.38999722467198
0.382534807844774
0.386291062540436
0.382784071229713
0.380922944777721
0.377182352916826
0.384429054986936
0.377334319414644
0.378617199284854
0.384318184046056
0.381646286783931
0.373659483414021
0.374747544891431
0.380850677861934
0.3766922387199
0.37627657154075
0.372511436304051
0.376532051520169
0.381135650241851
0.367311579420379
0.376250981040991
0.370034192873778
0.376311987974036
0.364804328971461
0.379890461221229
0.362244578389387
0.381411276034287
0.333317122021407
0.429221378217449
0.388018344675899
0.376752500140612
0.370734477847586
0.35751091296849
0.373207049653193
0.341369302837167
0.404421848559555
0.377441315227694
0.365573606581018
0.36869073660975
0.355872099725843
0.365291615061735
0.370138922638593
0.350539590149946
0.376033032623186
0.328570713293587
0.381186976279083
0.396103879951561
0.40414594675549
0.437983251589445
0.368483958789812
0.359904732640554
0.350214953112496
0.401881674149241
0.34240728478786
0.375082969187909
0.328468620783818
0.403188791249929
0.365582795738351
0.354312502425862
0.354593311180161
0.347437584520109
0.363165695903244
0.38473876882021
0.346941924916743
0.363573084485013
0.377876742894965
0.337614523527472
0.382754254411307
0.397852032355319
0.367274536963529
0.332825853304418
0.335714330485558
0.333461073273846
0.31041180327354
0.396940743062623
0.316508408380321
0.347102779424429
0.315552916042831
0.311600175968345
0.315135850566666
0.32046960072199
0.318708891090129
0.300115308430987
0.358329271552737
0.28025960420051
0.317147423872576
0.299515237462875
0.32479911693205
0.330294395141718
0.312067351447838
0.278420391879819
0.307109086280009
0.32410511759151
0.281033934724309
0.30530087654469
0.27081448451607
0.270678481360957
0.296870727829933
0.262968606018979
0.281275252518778
0.276246059051504
0.26447913581943
0.307841465551356
0.296507417760022
0.30204705316355
0.263705208921341
0.248542794137608
0.251042950882518
0.242060887459059
0.258099395214493
0.22400668682868
0.2821855267319
0.254158383001458
0.215549133316724
0.296401579926947
0.246266556780267
0.244578419929176
0.247760069759538
0.245652282753335
0.240054840663635
0.254357017939468
0.275156937659563
0.25933915017836
0.258160667991106
0.28666496970616
0.249774102875453
0.265585754347091
0.25677107856924
0.269878554992336
0.262622695654055
0.285115470415506
0.275902018720996
0.286785351122301
0.284662097323447
0.289184841858723
0.291692511103825
0.343037095759835
0.277862318965601
0.3639621018368
0.302671214320327
0.386808737659588
0.340315587295277
0.339213339649668
0.34416371531249
0.345659055823188
0.35768076912879
0.351315020328276
0.349545225508905
0.408520474512696
0.354603841635682
0.391788605213935
0.359467763312232
0.392345696871466
0.362610377965389
0.434896991417127
0.369831260003113
0.473653460794474
0.43313648398316
0.410348881959674
0.416415229833467
0.395412959257721
0.414468424435309
0.410786528647547
0.411125608230759
0.418658976055684
0.400562795770231
0.446800519143564
0.410878911411128
0.425037847735663
0.421398824447705
0.422057084724685
0.424347964087629
0.428813155539964
0.434427172644606
0.434844867767459
0.432524875390557
0.450294941424086
0.403889928856177
0.516188109098091
0.452974221140175
0.465272268784873
0.44787115253442
0.456580487481526
0.457053787098252
0.453420973208768
0.475925808259446
0.474426724575724
0.465015749469633
0.476754902769395
0.468984151665718
0.485776459425332
0.466034175210049
0.522322339245996
0.473236782148379
0.508362314901518
0.468276079549485
0.514676807638413
0.544020103399525
0.491035768321477
0.5232956316152
0.495040743584786
0.507280024395012
0.494379004374759
0.504207676194769
0.503984087516639
0.515792611258573
0.504346538439011
0.518325793944812
0.516281271621971
0.510937469616611
0.514650486012187
0.496858280789981
0.53873036811255
0.506604840048855
0.515097407043787
0.506564250561299
0.514839214767802
0.502851092902083
0.526629747425729
0.516159707470033
0.512660494674829
0.513007665087858
0.512298097663156
0.516023018433731
0.528958567863334
0.502489572322346
0.519659925157443
0.508787837563032
0.516961327039101
0.505419868908649
0.511173228858818
0.550233866178715
0.516428029766961
0.52961182498109
0.51921463140491
0.522674871285696
0.518815232529373
0.526324421166869
0.518493195281253
0.533377806524082
0.531963397935237
0.533084835930765
0.537124889463197
0.53288388444106
0.537962697485316
0.548296640754412
0.548012557831073
0.533160085652284
0.530648816286102
0.524523508844296
0.525911890450606
0.528954061840019
0.526944071435106
0.516284794414448
0.51217034957824
0.517510196925648
0.493752967023819
0.543939968559079
0.49149480711041
0.505795138364469
0.495915737965085
0.484608627978375
0.487350671274698
0.478839030547939
0.485137605714754
0.476372545299512
0.481946678134352
0.467387009706161
0.471727966200498
0.467072240787406
0.466550531969589
0.467388661100339
0.468406438764471
0.461136868196408
0.46386683290128
0.4626954106769
0.464225942258704
0.458311340916141
0.46154910885936
0.466470977409125
0.447281727922414
0.466930511176927
0.472133587506588
0.465966455494183
0.463076233079486
0.460005837276226
0.469167042943992
0.454884528205463
0.462694451634468
0.451148675313362
0.457529385489652
0.452924700256488
0.462554639285158
0.452260931188626
0.460583945802129
0.453475446955747
0.459960165483861
0.452518503966557
0.461740137803129
0.454167809410708
0.456086356578938
0.452786543409313
0.460616399974269
0.447954763401665
0.461224967606337
0.455436248643706
0.455688211677836
0.456719783836919
0.449642080181443
0.460547302762833
0.453836528029042
0.460147238305362
0.457888569455358
0.455903587377018
0.45559471567289
0.453180060492149
0.454361037674235
0.454089677243979
0.454854161870258
0.449437201470892
0.453687103332026
0.448712839897519
0.448676758880229
0.4392045935972
0.442027734390426
0.434435079249312
0.432977744886012
0.430733181907996
0.43157775449405
0.429148876367782
0.417823709797168
0.415942275907432
0.414212048906214
0.411765397537946
0.4095901025723
0.407615823631501
0.404167916607721
0.403338479459877
0.405384321459305
0.399502587311938
0.394625592829244
0.395305241969164
0.396405239226381
0.393290400035909
0.393427144154445
0.395260233038116
0.395930144253127
0.397797212429302
0.394983312608134
0.397139262403646
0.393135582239032
0.393602138601794
0.397598497719849
0.39592685781842
0.397457163100783
0.402197517512389
0.403916996216463
0.404154017791852
0.40710812035793
0.405408292575265
0.412280770570822
0.411932204559208
0.410885021532023
0.414677041255903
0.41515758714419
0.415805559251209
0.418945877111158
0.418322305684413
0.420573976258655
0.420184578303364
0.418803837072953
0.422430267450292
0.418796491456056
0.418707625228074
0.422597350747329
0.418991871512308
0.416339947764161
0.413590310579545
0.415223513560719
0.413913919578302
0.414728302844097
0.411556886836348
0.41375835957817
0.40980896160029
0.412700772901617
0.405884806175532
0.406541863440929
0.406637578067332
0.406507985078673
0.402861745399608
0.402784239037131
0.399239245005599
0.399414242318674
0.39607152952086
0.396642138772815
0.394258859959829
0.397412939617674
0.390497980620287
0.390884462212466
0.390688525632418
0.389131310865273
0.387207643527316
0.387846054512577
0.389969011697246
0.386544672546454
0.381244496941206
0.381518599189844
0.381434806358204
0.377911776457238
0.375286789560977
0.37593395308256
0.374731492587706
0.374599104328335
0.368359653552632
0.363578624229267
0.364322000973903
0.365531820554452
0.359709494382878
0.355264950616234
0.353702181751452
0.351495269875729
0.34819328394359
0.344462822005712
0.342365509207161
0.341477205735668
0.339210319919034
0.340588633025529
0.336986214607881
0.336304140337647
0.335226849889784
0.336287095196247
0.333714463545969
0.330026979235059
0.329835970685969
0.329451498891229
0.327302943612211
0.324978509108016
0.321974298749919
0.319614011063731
0.313446918573537
0.311128407449997
0.308361338509236
0.306370392447205
0.3021344400582
0.299191889187203
0.295354999644178
0.295179752672404
0.295698824313941
0.296754439669733
0.2987771760548
0.300067647773075
0.307130268124974
0.313517425840267
0.31913069109088
0.327536716229343
0.337872921655401
0.347050871715012
0.35620057940992
0.370496469659474
0.384009917935282
0.399400355088732
0.411466378630807
0.429001799568438
0.443859746093846
0.459601821696808
0.469595393936804
0.484012094670074
0.498630047978974
0.509902816603803
0.522953471138236
0.534571330830027
0.546366125343668
0.561312788607819
0.571908885904201
0.580829385416048
0.590927166212109
0.607874079378625
0.606864177843384
0.614864716128463
0.619328553679094
0.629512114682849
0.636068065194829
0.641683596509708
0.648617233699254
0.645997304493487
0.651532124337828
0.652555924666993
0.650943838074603
0.653917173511429
0.655409872122126
0.659198415331855
0.655469829339583
0.654624203292772
0.661978381257788
0.658899483993247
0.659324396150162
0.662950533358005
0.667807314437982
0.666984160468756
0.672317473030657
0.675977544904104
0.684626906595594
0.689415340914634
0.692906486984793
0.70308358015914
0.708040120374572
0.715748243894728
0.718778571714599
0.729562194132823
0.738699642080057
0.73841397567912
0.746092559392634
0.758621785156642
0.778504189333733
0.787289263578842
0.794746102720946
0.804023996746912
0.8243297339845
0.823560836523388
0.836464331204152
0.837531320160786
0.840970963084506
0.851773908694158
0.849326449931578
0.840925820730253
0.849365070011756
0.842676678785553
0.835935907210378
0.8435927197907
0.839387997636667
0.828231650886463
0.824287752104927
0.821017419270056
0.83123725391522
0.832278191448517
0.836034357141075
0.849082609151359
0.857302288313703
0.875314888051354
0.883420053833087
0.897320613347884
0.912299335837027
0.911168558623136
0.933825568006227
0.959779710309924
0.97292669885551
0.982462533007927
0.990645760028199
1.00735135509877
1.03141189605892
1.03591611945691
1.04932037031367
1.06009148660617
1.08044940226827
1.10576313651387
1.11539213828932
1.13467454947378
1.16215211842954
1.16770922057154
1.1810594133234
1.21241266049298
1.22411508289298
1.26738345290977
1.26355331657213
1.274185225412
1.30668562024077
1.31267585689624
1.33165346273792
1.32330533332604
1.34993138007804
1.35140097303471
1.37303401543556
1.37579178504294
1.3814367455157
1.40063688134818
1.38281029513477
1.38277428856196
1.37698388052663
1.3629901863644
1.38187749488824
1.37117130192696
1.38025200306821
1.35193583123131
1.37437282355212
1.35948103201122
1.32256820461295
1.34531290654203
1.35569425196174
1.36686422271804
1.380908136591
1.35433020226601
1.40158895282685
1.39677930944554
1.41129902109269
1.45324479900614
1.42277995786554
1.43801038833767
1.4987998749982
1.4512671287433
1.44341319476997
1.47637490569975
1.53602595433049
1.51777680898875
1.55135514237848
1.56441223391549
1.53960840803642
1.55033017192525
1.57919790591628
1.54103634217673
1.5453137894835
1.52907646610149
1.55918724008723
1.57397182843415
1.62506615627009
1.51100749653549
1.62427437468773
1.60256726969455
1.61163135468774
1.60339493562623
1.6055280835347
1.56988812378005
1.60275774687432
1.58947986480085
1.57045653670189
1.53834813089274
1.59415539954725
1.58833091526896
1.55901704431746
1.55130793111308
1.54088075380415
1.46696739633336
1.45462236087934
1.44573857352286
1.42739499683131
1.40475411801808
1.40081449716438
1.34259040957442
1.3573600624499
1.30614144125648
1.2479631194376
1.23277755521038
1.2011844442755
1.16059457436577
1.12592009808961
1.10745698801363
1.10649997570356
1.07811240972
1.07446611159697
1.07013347463783
1.06206929262152
1.05200810370375
1.02907568244327
1.01940716519104
1.03770420860565
1.01838160486124
1.01331873388411
0.987734089750445
0.99070439701859
0.987392716738941
0.975215305187522
0.966516026030402
0.956584359106199
0.932884636213372
0.916528547869599
0.899486013619132
0.884413203015894
0.87584569522822
0.849366451793299
0.82872663904792
0.817524883744527
0.789949490499552
0.762443176449758
0.724028673706348
0.710529926384128
0.672365517334988
0.650079010564941
0.625930163704183
0.606808726735836
0.576567010273522
0.554415837904426
0.538077973085344
0.523299932026557
0.497662369788314
0.482620598670712
0.47222513367719
0.456664319506818
0.443653209450549
0.434380012129865
0.426587131092648
0.419237666209229
0.409380910492701
0.411740238563952
0.405235991885137
0.400651709093101
0.395409809148449
0.390569571156802
0.394947579675498
0.398578966089659
0.394546217621698
0.3974054349902
0.394572982078904
0.395624613242674
0.397550789705749
0.400097057859899
0.398094111850139
0.397713894460087
0.397367958696729
0.394885441194843
0.389031754887599
0.385363908550353
0.381946237122814
0.381999752293401
0.377513825780507
0.37549972064761
0.373231422233803
0.368612655259781
0.36202331017079
0.361958515288597
0.359755076454901
0.364512687880474
0.360067024245999
0.364003902957827
0.366325363739402
0.368945670144899
0.369102494849425
0.37114155736582
0.37185261683208
0.371337726628757
0.372528375417697
0.376562315067036
0.384949061139624
0.383611217860139
0.380453634541365
0.389845911587656
0.382884668346302
0.390906612402469
0.393988795830896
0.389989730733747
0.395563039752184
0.391669135443524
0.38952302003085
0.390888825713962
0.393087482166465
0.396365140535753
0.395265066578848
0.405746012870293
0.406783771650259
0.402162711735262
0.406182230750231
0.413948829363593
0.41491727655285
0.42828006401136
0.436963222738303
0.447154042150047
0.453939839614904
0.46326953379996
0.481297925998494
0.487031383215941
0.493634223546668
0.512367368771416
0.514751047347883
0.518599832542946
0.518273678719098
0.515836276111946
0.511799097934885
0.511765215034747
0.499048837826464
0.496506448238087
0.492334132027092
0.486033712615409
0.476276016729353
0.480653641259125
0.472717385292175
0.468125326404167
0.477949045956455
0.478552955866916
0.472547042659001
0.475017445793694
0.471472432727598
0.480316720828054
0.475068282576087
0.473960642982473
0.47120052143272
0.46948258757565
0.463247223996578
0.466684905310744
0.456422565621579
0.462605552778964
0.451293093989963
0.449950693603914
0.441338822374589
0.434174677322488
0.43129739182661
0.42427977915998
0.42119945194903
0.41773708774846
0.424274629340953
0.426483574798419
0.417443327804659
0.420534383045835
0.417506356332759
0.421945803375981
0.415508948855008
0.424049095749457
0.410395272283636
0.414932469503157
0.417218417996891
0.404315482087077
0.395804252041459
0.407395010830835
0.401840911293487
0.399612989438611
0.396707362283686
0.406529688163336
0.393488221641217
0.391856256124025
0.380836091812428
0.395779953469703
0.390394098676462
0.392549971815994
0.389414541290431
0.382326030912486
0.383295597293772
0.3864640346842
0.386499334458599
0.38753752789957
0.380122385415966
0.38324839963619
0.38533336743109
0.385460220977255
0.387280878475856
0.383354645243311
0.383773668381574
0.379205189964291
0.374487156177722
0.371764470153918
0.374645804619212
0.385882426312361
0.385263233213744
0.375137553695069
0.377138346761413
0.39340543742222
0.386792528140134
0.385720234208616
0.393883124189847
0.39605996045138
0.391331776664437
0.396903708665687
0.407122344628568
0.423418406884448
0.401887012762869
0.391728508870273
0.407252580944626
0.43064675056
0.411563724197606
0.4112120987457
0.429870601296384
0.440203209827771
0.442938443422554
0.458962056483961
0.455946844409298
0.461599937715117
0.461487553575729
0.476083866193483
0.487035511957421
0.489135185383607
0.489014626470839
0.513848100793311
0.51587885916038
0.518418975420502
0.55562914887675
0.583011386188276
0.568411182952569
0.582809140343395
0.580222704646482
0.612164207696718
0.618510742391121
0.609725062151982
0.618795342461869
0.652778710152152
0.627991746548229
0.619459940125161
0.623600600514759
0.60551581657917
0.609358401759876
0.622940775578612
0.619221141504204
0.609222535034685
0.600223533392149
0.618931748143944
0.614577478244945
0.627456669955257
0.63173129182097
0.63700760235867
0.636918580439545
0.638333990296106
0.610277202625026
0.597654846912954
0.586515682107969
0.613285909043814
0.600863334302154
0.592756750054029
0.590281863035835
0.576524831003197
0.576984415434024
0.575473741820612
0.57292947077083
0.576015643326563
0.560174797583921
0.578000225641693
0.590076327508101
0.588326852231494
0.556985959959374
0.553488832304878
0.559532825991843
0.552367944844153
0.587482084943638
0.561526783853638
0.54937044761324
0.560432048772772
0.599983066883522
0.626629577714784
0.570148442967294
0.603205180333685
0.555966156727811
0.570302357231196
0.582300008280777
0.58868241271686
0.561786880398353
0.567884383018966
0.613975398478693
0.589893921785034
0.638602164637834
0.606847237727169
0.554258990777584
0.626039245593704
0.578064078601336
0.59483842919843
0.643968464397291
0.615686571395594
0.639518413915258
0.625520330233226
0.63410806692643
0.648151145756361
0.623278583373034
0.60693981804903
0.590221406494608
0.690578400498938
0.655386230712415
0.658223478796342
0.662783852924068
0.613212434962549
0.646429602916612
0.699713535523955
0.684368674355382
0.748460508562366
0.725366702827476
0.648158853289208
0.691532449404221
0.77115414116417
0.76156227930134
0.781764820096472
0.72755214361615
0.793711334154766
0.775308157439959
0.706890828928038
0.754658401441263
0.870082539643909
0.844417953519478
0.760586332619867
0.904579802016706
0.762238314506465
0.674996091441271
0.801661049889361
0.804535275146555
0.784390912573925
0.847641581326565
0.75048187034807
0.684251433216995
0.665741779756501
0.632848943527672
0.622734830412307
0.649273905512992
0.774891377587124
0.736826787607473
0.654541361556146
0.973400529045066
0.984731781073798
0.760575026927354
0.694010093284675
0.733836929411868
0.704248194858123
0.642106918251997
0.644372943101196
0.775153804459397
0.654249381858718
0.66903574694447
0.822574520403022
0.63546735942324
0.534278944249624
0.954258410686415
1.04128040664287
0.57401205981787
0.682461983119726
1.03433876250353
0.677553265197667
0.728124259358347
0.750281865956541
0.64393553687554
0.62818137159475
1.04157122376039
1.56768931311078
0.840442024493863
0.728448364925645
0.795544538566035
0.697751303500028
1.14236313061249
0.826007938128722
0.680316416209287
0.575288346636581
0.766033839236089
0.949924247870354
5
