3596
4000.36533379555
650.420452594757
1
2
2
0.0681935563393983
0.072005406605576
0.0766840095932519
0.0782458921582551
0.0760267504225542
0.0667163678558843
0.075875074821838
0.0677694486258825
0.0712896637887343
0.0627247237241546
0.0744938185375665
0.0666204109330339
0.0651498711505568
0.0632944367039045
0.0720967390755472
0.0699748282998347
0.0703147088090389
0.0671455708747465
0.0755481466381744
0.061512995604005
0.0778347520011247
0.0695297710213074
0.0649442006391351
0.0606690118186569
0.0706583609407768
0.070977093749186
0.0710336545579249
0.0667484688862291
0.0741134479319658
0.0691420331662985
0.0756416123633589
0.0671371694580784
0.075357324776947
0.0690693195632212
0.0708017349460384
0.067562118002608
0.0688090890995333
0.0657397086058112
0.0760257504065565
0.0656108922817884
0.074803125950757
0.0673515585814314
0.0761929365082758
0.0695144568967973
0.0713028175938727
0.0664766500815225
0.0744577548676224
0.0668405563670467
0.0682414693436044
0.0705150901036243
0.0789737049227321
0.0636785114152676
0.0810930353560073
0.0808905907769408
0.0649497590545753
0.0701321805605078
0.0850932014006192
0.0671169536561068
0.0706133314584174
0.0632754520709656
0.0749307782009008
0.0777630175119379
0.0649775494129407
0.0609980421167298
0.0686851011397096
0.0640388066640601
0.0745579927737782
0.0631798489136468
0.0698611490495665
0.0639760261664099
0.0664578212919771
0.0645947428811642
0.0823483481594014
0.068013766503301
0.0758294027797682
0.071278336793683
0.0671081171052564
0.0594110719819601
0.0603400545986253
0.0618233571748306
0.0812149483263546
0.0703251603031123
0.0660622699928272
0.0611258719262689
0.0736321005687421
0.0756358154205649
0.0709241393639419
0.0595559595893073
0.0878206099699567
0.0658889612086121
0.0668632926644971
0.0571671699698556
0.063272697157835
0.0615342788402485
0.061381051800886
0.0535206201192427
0.0680975321463427
0.054152431195662
0.0689234579074789
0.0715626271236202
0.074394388157521
0.0636625123118977
0.0958290297601114
0.0694374114960309
0.10163596016884
0.0784220732975293
0.0479368788878904
0.0982135594148176
0.0860334045034402
0.06368370701444
0.072884135160938
0.0552970033711446
0.0657686457168739
0.0645026170703016
0.0589834131990893
0.0629690670330894
0.098091009376806
0.065179510229126
0.0661928842063926
0.0568573762091033
0.0445982453669316
0.0558967424374503
0.105760899669131
0.0570846519877761
0.0738950284222437
0.0585242339000474
0.0562098137198776
0.076095299710734
0.0913491396892435
0.0592227668653818
0.0648709135418375
0.0545394071062314
0.0535848259894976
0.0475358819677772
0.0955239329565385
0.0730867735782683
0.0554629623457409
0.047172514967225
0.0647625818496612
0.10235897655045
0.083414170616374
0.0574448592596763
0.0530421061619538
0.0470760194889114
0.106229669973713
0.0691956665392477
0.0564073638896258
0.0735387417372919
0.0791520199660666
0.0638866108212425
0.0635769058573811
0.0512151590071704
0.080744462799922
0.0599020358678914
0.0328263460245255
0.0507646345284802
0.123418633383597
0.070428066597372
0.100892678004288
0.0755168972865436
0.0617126682133993
0.0713882162520766
0.0613529151098545
0.0577291137330055
0.0542566475387862
0.0503431616799642
0.058725802747192
0.0801867927169396
0.0601561200957696
0.0569245480691961
0.0890851560291413
0.0618424174032779
0.0512430917178189
0.0963588041390282
0.0913594343680254
0.0391421655626387
0.0909921236922146
0.072061460397019
0.0505590766011662
0.0578612341251001
0.0946294280322959
0.0663372072939693
0.0664766111351404
0.0621328129538119
0.0559716345617729
0.0662094337062314
0.0685480483145176
0.0607315985924527
0.0685473811773464
0.0534881316571273
0.0606266334227421
0.0965737142047355
0.0926940519826039
0.06303246055446
0.0671869533773161
0.0492811954361827
0.0749615885216749
0.105989113208163
0.0686175071385529
0.0575471619057167
0.0593613240852166
0.0616221670159008
0.0575964661349328
0.0558448583203219
0.0559027383706978
0.0328383100473512
0.0795032971646202
0.0920462384063383
0.0647497708249429
0.0576111301852641
0.0517330201077121
0.0534449777352232
0.0865933857595497
0.101784056336372
0.0706983095263356
0.0685887702514729
0.0608094680296798
0.0682150578114476
0.0912436143381652
0.0638198714216448
0.0579115870654617
0.0639241410446559
0.0665320174655138
0.0612186035637411
0.0648313389711112
0.0608834585268794
0.069597361570788
0.0643533438122877
0.0615188759115675
0.0600675322589972
0.077883587521415
0.066778600942935
0.0635878099052131
0.0550546260799272
0.0517625868017409
0.0607558833538397
0.0894974868357502
0.0734200674812262
0.0667776242289649
0.0593521759506991
0.0581726152416555
0.0662955060112609
0.0751621966019757
0.0634162481661099
0.0542662653096364
0.0609453259233334
0.0773307129255286
0.0813654655807112
0.0566688414926203
0.0540581325517432
0.0612727689411261
0.0807727731744166
0.0646213546460733
0.0615604973878782
0.0652583288271211
0.0585851497391538
0.0579347874438907
0.0865935235549049
0.0787057361204304
0.0639769036871908
0.0744275095685793
0.0704061126278032
0.0675083975182686
0.0546197316272499
0.0442833047896463
0.100743570162171
0.0848734055897492
0.0508070482640475
0.117378502133946
0.088310402385477
0.0757518571100163
0.0648500537681613
0.0409755319265661
0.116486568601836
0.126846487021392
0.0693748434254153
0.0726818985587002
0.0744175540311666
0.0718929844976853
0.0599064706157523
0.0697262818428122
0.06838251523545
0.0806586718595352
0.105108101097448
0.0977375913752897
0.0567369248412479
0.0687182097957656
0.104778068526414
0.0746092156394934
0.069871028404524
0.0637081368289889
0.0644186766011591
0.0711294453135875
0.086572248975222
0.0862300257373268
0.0709124450950636
0.0695688689408609
0.0905474352865252
0.0854242879460908
0.0599145344881187
0.0774102973067536
0.0742174212478388
0.0804213761435292
0.0620395453986639
0.0716127443849478
0.0709298866418556
0.0650748050339703
0.0605733081390157
0.111131809536087
0.0882824544550893
0.075637961037328
0.091256435636992
0.0877225295872342
0.0656442194303462
0.0737359061394339
0.0704260967489297
0.0776818215265236
0.0568027012833107
0.067502282065106
0.0816632288430942
0.0876021722801344
0.0661367371378051
0.0736786686378516
0.0662452739275533
0.0749854829991354
0.0745250392167519
0.0780227107057192
0.0659077968950997
0.0795536621539281
0.0689598153113028
0.093846159182053
0.0812645778073746
0.0604950000069223
0.0865040196941032
0.11953616160092
0.0810144147787146
0.0845529616411926
0.080874851496212
0.0867652863222712
0.0787350989043481
0.0859386217156589
0.0744684161292902
0.0807755573566551
0.0975653808115524
0.0952485550408382
0.0764400261181492
0.0776284897783172
0.131924908348407
0.141625671048049
0.111051676561087
0.0850841002941035
0.0711330496159425
0.101425576105938
0.116744092125917
0.111827032612548
0.109916973692337
0.111818648294178
0.0936910116870735
0.106469597885461
0.0961960150318637
0.10849118160682
0.0994962687817472
0.109432527813376
0.0978806137807071
0.120375633088602
0.105640259478118
0.105634001410518
0.103026626800691
0.147874242364122
0.126719651683511
0.119524853943271
0.114959673848206
0.118758471149193
0.120037478579368
0.151472483517789
0.146107019771019
0.148207640544643
0.141209257540409
0.167827608607338
0.146877846922173
0.13137625524807
0.136119472212609
0.141460583360206
0.136444440080315
0.141481387907425
0.140587288629223
0.144917925062725
0.146760276072114
0.148821690845881
0.145499602045715
0.149374095014898
0.152882532922041
0.171178110740408
0.165407458557339
0.159367756013313
0.156318835470039
0.16028228189219
0.207939921072206
0.2227737791029
0.187155513459092
0.174803193813899
0.173824145695367
0.178558346758896
0.173325336108658
0.188428580113919
0.175844305443868
0.192059267258571
0.204602729014934
0.21759694558434
0.206560210752028
0.204865971631679
0.199640248064899
0.221607607602532
0.205474431253431
0.219758372878972
0.225189480880099
0.213534412619762
0.215171211029564
0.237812312711371
0.231553252655906
0.24071153326601
0.238168603532932
0.236970012348664
0.224490955065441
0.243959845072818
0.223300712918683
0.254853926896239
0.25235058143712
0.257281541280301
0.245736532006553
0.251882244638949
0.249289718771259
0.257399009168591
0.263096308142961
0.275321663338909
0.265870641918113
0.272213880513492
0.271615620680302
0.270651905977033
0.264808241784293
0.30895148969088
0.296506647734398
0.315268225232215
0.303521567671084
0.313705573418352
0.297052307537803
0.304195756137197
0.30343856524094
0.315356005462675
0.299376378977924
0.318754423922938
0.315760793254391
0.331645197874234
0.315450173946472
0.336108156569995
0.333608069992092
0.336028704479428
0.328392564096157
0.342184903291016
0.338186876028577
0.355470322519919
0.336023524133129
0.389647863761205
0.387588485923041
0.410523816520948
0.381628124651132
0.39115400160171
0.357457491871158
0.391742548198881
0.378802724701244
0.38824277213877
0.383613377901965
0.395548475996264
0.397501381289207
0.422499283623486
0.402622969099977
0.406885978286178
0.398162133295216
0.433111691082887
0.428559065979221
0.446547756905654
0.426906995689679
0.445828049943412
0.410005046358469
0.441716098149338
0.45498950392249
0.463394457993098
0.456774556721833
0.482245221989123
0.466724874730965
0.485319081895086
0.455562595265304
0.471251318878501
0.470838625417267
0.506165760040279
0.469555719025367
0.49814182879444
0.479216883049232
0.520929183695194
0.498628877544856
0.510563688348237
0.486878450883204
0.517630350273747
0.504080191418539
0.528077905279209
0.534903803010456
0.552846929044465
0.525898640730864
0.545048045165574
0.540744837034073
0.562402850000345
0.549021211435734
0.567095331312501
0.555272540420817
0.570652862417908
0.531894622579412
0.578653839796738
0.557549171021715
0.584786561114681
0.566103519245162
0.604603909904484
0.594931499686661
0.637045811334342
0.604143344239612
0.629070627576758
0.594118348989437
0.623841477305695
0.628360114836257
0.636259819193221
0.629990121126061
0.650129269754045
0.62168223951437
0.669741510747676
0.628298225701068
0.657484233239494
0.62110482853858
0.681139019687682
0.669351134924512
0.664587973980552
0.668534669184044
0.708230959400678
0.679155261084869
0.722264550701998
0.718757859906114
0.701709905313365
0.710314992817027
0.716176260661134
0.701284774454628
0.782976913958875
0.727778943182795
0.745389641130505
0.739645063680591
0.779954945202681
0.737832834972492
0.745238006944523
0.73045791575854
0.749013853525599
0.728349652091462
0.765883360083374
0.729739471532966
0.801105245751918
0.763626196406395
0.784756209254446
0.779913531958617
0.836873909825449
0.783773017263628
0.849908362205631
0.769921571216075
0.826610115158615
0.796169700991503
0.802611595240165
0.798917364136951
0.846841367418427
0.824445092416501
0.876188037455336
0.852888330748216
0.869862467879937
0.794259575361412
0.870608786305187
0.864288523958196
0.895756805119808
0.860354186867918
0.950050632006277
0.866612195252451
0.911181158765665
0.887088814102548
0.946006353816196
0.860788772106376
0.883022477509777
0.917394969109801
0.920820918368612
0.894097217070338
0.934351145158254
0.921746222310568
0.932950927003628
0.927876829287375
1.01493791507843
0.882034896116567
0.965241230000269
0.958639398935825
0.994666818205595
0.919840621907585
0.961557360054621
0.915859493323478
1.00666457124359
0.945187449712119
1.00620294981598
0.911972765076995
1.02462138256802
0.956483144437274
1.00181786153282
1.05295512805283
1.0435125179029
0.960907260610364
1.08731327731325
0.976475739550614
1.01309500218054
0.977403354412539
1.11581524451053
1.04354065415511
1.12089144041187
0.980612274591507
1.10728952460099
1.04299522530451
1.14854755554265
1.10779632038339
0.983398783918478
0.958587205614525
1.0929778413337
0.98979630809614
1.13441847414628
1.05227879655656
1.10129966994132
1.01632140675427
1.16284600595652
1.11143313734273
1.16751940970689
1.03984336210182
1.15783097271272
1.07916878717771
1.06540394940484
1.00928052136116
1.12705456842089
1.06294643672445
1.13010056955524
1.17436610512727
1.11339856058232
1.0611153684155
1.1430062920933
1.07878622126509
1.10749630580605
1.0654020645665
1.15213636854453
1.14560450965212
1.20211867585875
1.14563571120017
1.20582737459488
1.11383451231184
1.24594353824127
1.13078008483012
1.2717738822455
1.13660604193872
1.18976556039535
1.18803015129365
1.19392135402752
1.22157792827884
1.20803602782934
1.12915662841995
1.27052092461066
1.159519863462
1.21379737681123
1.11489931748885
1.18855905846987
1.11762361244733
1.17745183114628
1.13043588523
1.21297468458008
1.12292000760793
1.22484504108716
1.15748152967877
1.31266164854008
1.24740235596889
1.26521950256824
1.15268972406277
1.25324036454277
1.16224777960874
1.26260447352758
1.20554923575483
1.31247223116891
1.24905558134723
1.29535151156024
1.13760993360473
1.25923756568653
1.19150006184036
1.24750741670441
1.21854125371697
1.2168875875375
1.1884633168298
1.33104447331526
1.25912539604115
1.2691545285134
1.24914944277965
1.29713639375865
1.14589164256226
1.25000198714891
1.29118709097422
1.222978287618
1.19738064069089
1.26602402397312
1.22155366712453
1.25646999730216
1.37981646397636
1.33921386994044
1.21512130765705
1.27963252502632
1.22489716809341
1.41210053424176
1.28185944421145
1.28913041043357
1.19273183230215
1.28131077340916
1.20538237464608
1.29750938403445
1.24807217311534
1.31255306601469
1.18008899718336
1.28120440047444
1.28078842899714
1.2903896522506
1.23078461917392
1.34027082644133
1.30732719512452
1.39874541618094
1.22074376851229
1.24935897863441
1.22962762884552
1.30512284465427
1.28800282071335
1.29585914835032
1.21743601221406
1.34211919121518
1.19119522841254
1.30225190394641
1.24560582102388
1.32787756728556
1.28413720935719
1.29504011644598
1.24952642219992
1.3057598502942
1.26947781837837
1.26176494750438
1.25876639651865
1.26488815257781
1.30780632199402
1.30354589121733
1.26600711568271
1.34705709030578
1.27667972455529
1.34890448004312
1.22829539789204
1.35629785774959
1.20843699491796
1.4363489182102
1.31731398695965
1.41560108520515
1.28775263875156
1.31897162223996
1.24596026548709
1.31393182667031
1.27406518474309
1.32180588447521
1.30077741481644
1.29329644044541
1.21399510636537
1.38311282201463
1.23958117055509
1.4055723027446
1.21680873393989
1.35233443843298
1.2556640769053
1.25777741325494
1.30927030965375
1.31662133645556
1.21869255822932
1.26119464353017
1.27687750347558
1.3131095467724
1.24681801628718
1.31195572009411
1.25837190617392
1.33128833824432
1.20898260354057
1.29225129747161
1.2789853433169
1.25900349145445
1.21249013819073
1.26467508523281
1.23857349513918
1.32710942653322
1.32065756800632
1.28483252114315
1.18602306434568
1.25074025982942
1.24615640107382
1.27300091963479
1.21318514453439
1.28641075100845
1.21634061394922
1.27173140332908
1.25207008754157
1.30766515602617
1.19255907798204
1.24551589378845
1.22071361637083
1.25140226953239
1.20587967254887
1.25191160619352
1.15810615181489
1.28041698169391
1.18569533705192
1.20498393258939
1.1456116557234
1.25495133074001
1.15533161277796
1.24168213021017
1.1605363434297
1.17051052389745
1.13222292012668
1.18952309235763
1.1859912497254
1.22566505913693
1.21606595413972
1.18558674723227
1.12908744353387
1.22503359446679
1.17505158481176
1.15580178152806
1.15859742572591
1.18748595878518
1.1159576225805
1.18192357316958
1.11872502819006
1.19617687679992
1.14647615442377
1.18036584635746
1.11099683073107
1.15224017361386
1.09477707188451
1.06956444644009
1.08345130945861
1.1187857524478
1.06314652022936
1.16062171322147
1.09333865157308
1.20851355255566
1.11012829125319
1.10491940657334
1.08823399800564
1.14361920620881
1.08942386905214
1.07813623371625
1.05132931208033
1.09544563886453
1.04538651943918
1.10227483829448
1.05634494083255
1.08797214967502
1.07028655170162
1.07907450653913
1.04392859785787
1.05776530141231
1.01606999525072
1.08941328686463
1.01404465528533
1.0868328831155
1.03070534416991
1.06228251073441
1.01472594747758
1.04937463104337
0.981350198699535
1.03347567165452
1.01010105931268
1.02172259755218
0.977134096929445
1.02253846313996
0.990025768516933
1.03308984306291
0.982656264776804
1.03685491424918
0.959124640007435
0.986603764532025
0.944209492484056
0.990589106666571
0.948204975404033
0.964729887978209
0.936366249264422
0.948465358435514
0.936867153934832
0.957198464762792
0.957101580731283
0.978047456739039
0.924008989374032
0.938130421596602
0.923938292475917
0.951891247681118
0.884060800589681
0.934370550118616
0.88147700744059
0.907897476404606
0.886300514429166
0.914170960673167
0.868100718354825
0.91022792548366
0.854463300166374
0.876617869043495
0.857485525627934
0.88361641644587
0.834355779033375
0.873365670143251
0.831298208327283
0.864631702966314
0.853004027767926
0.870925828865895
0.832151415928862
0.816182348402951
0.813784339966113
0.830760955969122
0.81970593612371
0.836242344220148
0.807496528337034
0.807035949803379
0.793779812060515
0.805916419243035
0.795243566163522
0.805492070293852
0.790548236707985
0.799641323615692
0.759288642820164
0.809920714428768
0.780345729094337
0.801276069435353
0.764107601175446
0.76768438675276
0.747240368687818
0.761009403026512
0.743248680976731
0.759669988861917
0.750982868193199
0.7591398407557
0.729207602181481
0.759633396285635
0.731113704554727
0.740005403960797
0.708892220263174
0.744649891047825
0.707163950155114
0.742555085244487
0.71828116764601
0.716442699928159
0.701131676187988
0.711451810541364
0.693707108387315
0.706291996951402
0.67272916652262
0.710812411640114
0.675198480912098
0.699961373719707
0.672102093834803
0.681094276886158
0.649022277249019
0.699336709334224
0.648496258376259
0.678945210276832
0.6560375274728
0.676561499321469
0.655712430241406
0.660663728902043
0.646678899768449
0.661220847894129
0.634812650010627
0.662042912842193
0.637485202124273
0.645063861915947
0.632515348987284
0.638668139587176
0.637886698468064
0.631154145015638
0.624024555157268
0.623285650904138
0.610198611584429
0.615350253759084
0.614574959520356
0.612685541271884
0.584898401678985
0.618428809682653
0.589522921413961
0.605167172217041
0.592357545761282
0.611572826105317
0.572969175906783
0.589397308174481
0.575616874227608
0.58750730827705
0.572087004428447
0.586668833537702
0.559953873941132
0.58334920916103
0.557887115993526
0.578104946488124
0.552544945706675
0.568263081173079
0.555108274762956
0.564111082032055
0.543499833127818
0.558824482429715
0.543446560584077
0.5573787780906
0.528768721859901
0.538438855681883
0.522123016018596
0.54044803494596
0.523106662893095
0.537038841692783
0.521813070084571
0.517147185715649
0.511371487452163
0.513212543728477
0.505550417121584
0.521664420071927
0.503635410353151
0.526606671367415
0.492059337757869
0.495342740793211
0.500363634932775
0.507999706285328
0.492011435914592
0.495402085297915
0.48885342094051
0.503255662021334
0.491584913537419
0.491709915689198
0.471682306128506
0.487617940982166
0.471157919322658
0.475124965887221
0.463072127453412
0.475855787088291
0.465838063624365
0.476126318994961
0.469354904207421
0.472378333974999
0.451175268418681
0.462067767546366
0.445386461303135
0.461465420309984
0.43497185931459
0.447824866634267
0.444662006541374
0.450519850392949
0.443522259770153
0.455567898908999
0.439160868784863
0.448003661988389
0.438798692129434
0.441844763287222
0.43649214423597
0.437631185557216
0.430975588963292
0.4325829800904
0.430532946717348
0.436962728215037
0.427025537492964
0.433932684123185
0.426497853873331
0.436654094115696
0.424701424462153
0.437026406821023
0.428200908803027
0.437148002878472
0.423059519875458
0.428907529035372
0.419686877610191
0.431795839058009
0.419696843447607
0.426186729901512
0.422342880038218
0.430953895675861
0.428093733194511
0.440036560784487
0.429981519842344
0.442467217558249
0.420744067176093
0.436763291673852
0.433974945315152
0.437522649070343
0.435528176130518
0.428116509434696
0.432378821293207
0.447068051106329
0.437088061736942
0.437730054393447
0.438151066472333
0.455424458025414
0.44109442065608
0.452637162987155
0.454846838990962
0.464971643413088
0.458123695670968
0.458885981566495
0.448989251251443
0.471438703726014
0.467701867649433
0.467890204294207
0.462842312527124
0.477928716719443
0.467421868061451
0.478494843103186
0.465368432605853
0.479418453116872
0.475567840446054
0.48763014226282
0.477513203093986
0.483359416118946
0.474858904060187
0.493522691762913
0.487763808238088
0.496891789910986
0.481526311820543
0.507112639105393
0.499592140803376
0.511137383389864
0.487830003741229
0.507002930024949
0.507877090398347
0.516755467359725
0.510639406013665
0.52330593302284
0.501844066837465
0.530172307509416
0.517124815190853
0.541432070169239
0.533290666447696
0.532618979137305
0.534016575652936
0.550160622484406
0.539126723556151
0.548869374899413
0.535301760004353
0.546203715883564
0.543072382015661
0.546248570547475
0.542237424568401
0.551524933115131
0.542864826311115
0.559693184503592
0.54402125594992
0.55759790645823
0.549337487392897
0.553679848846945
0.549167378125916
0.542855590697542
0.545144717484503
0.557628749015694
0.538500958940414
0.55412632887151
0.532858177845472
0.548754561792196
0.544334208936828
0.536277209633889
0.538568945460523
0.547107376834515
0.525731321870168
0.545854204684207
0.535448198266375
0.543600411077901
0.536756449291011
0.543684219229884
0.535882460093841
0.541591062897155
0.54481548073575
0.544120636345772
0.525689007862106
0.544866414791858
0.541399087708433
0.546246571120459
0.53620508569356
0.544534853211583
0.542641483427177
0.548653158818756
0.539562045914358
0.546597968487795
0.525110697991778
0.548746684694233
0.535381101929642
0.551688965494636
0.546751579830871
0.539940974249085
0.533005552185932
0.537987439599111
0.540913443512943
0.543869032804784
0.533184972926844
0.547252089907776
0.524598670129729
0.533611430949334
0.526738424168051
0.539176961135964
0.524832021214099
0.528299425656789
0.526390427254955
0.526397770862857
0.526190071075619
0.53269126564626
0.515842438249751
0.517210513623529
0.507494598694243
0.522657885643405
0.505267108270385
0.508825581485526
0.491949982410436
0.50234507662613
0.491447205952935
0.489016716576183
0.485117319411584
0.491792273493848
0.472957726895833
0.484806379607787
0.471531164990968
0.471931490560331
0.457799086534694
0.473699066035134
0.452664676181999
0.456586006000935
0.449164403860898
0.456208995750614
0.444213095967241
0.447908381029645
0.44783048910843
0.444069209649499
0.436655967532079
0.439681470705239
0.436373074717718
0.433040612840177
0.421821850130595
0.42573838114083
0.421580560576671
0.420114253359145
0.42107833960484
0.419302566746742
0.405457191262827
0.412943621132595
0.407716514536771
0.411758800695985
0.396918550595311
0.407763710317223
0.403238750912607
0.406157250348784
0.399833798137106
0.391735547787023
0.393292582913718
0.392785363953988
0.39676304433926
0.389328332944045
0.381211772865513
0.395197669192613
0.380401044899061
0.385169108648238
0.379674009623539
0.376512808958232
0.371646697420692
0.377454266359095
0.374905712267681
0.376521754841514
0.372558240957072
0.373093831576326
0.367980828390731
0.369169575679887
0.365175588635042
0.367555303269894
0.363542718825959
0.368552185018495
0.356910118216723
0.364222921483428
0.359979044915902
0.362146796821149
0.354810712933156
0.357461155843632
0.357264470188055
0.360134391154328
0.349918081381471
0.359702762737001
0.349383259847052
0.34836167915858
0.345086632070278
0.349465104130531
0.338680511903503
0.348124353015714
0.345235815331287
0.347263893365535
0.338379141752817
0.342062551230172
0.338300880388483
0.344578128053969
0.341190788848991
0.349905204781856
0.336261817927514
0.339496539358528
0.332305125291247
0.333495326965091
0.33492120392794
0.336750551533056
0.331566399168452
0.336531730727123
0.329260759590584
0.332371627269662
0.327666633209683
0.331630992152417
0.329470850180903
0.330063695176472
0.326626909977603
0.327525758500305
0.327118209352434
0.329949421513626
0.320661446092291
0.323806792423087
0.317249190062624
0.317873703928273
0.31470384225718
0.324265248722182
0.320966438681845
0.320414342819225
0.316016407145201
0.320622046926896
0.318277564208268
0.320605681783684
0.315935114677482
0.313929935649494
0.310614834636301
0.315922213814309
0.309215390083141
0.316481257920191
0.312261487801681
0.315392042080698
0.310541041812095
0.310664459042515
0.302344978063612
0.30769358514436
0.306078036140947
0.31171494900729
0.303009243213241
0.308330886803178
0.306107682601937
0.307974629364112
0.307691676190977
0.309891385827571
0.309440688263513
0.306819937891535
0.303031825211445
0.30644779450277
0.303978191776376
0.306320329224078
0.301558090109098
0.30282085208886
0.303712323661382
0.305423572985851
0.300195708349002
0.306640318538167
0.298577809218211
0.304963281148138
0.300029242950598
0.304021263094209
0.301199015408874
0.305024397879174
0.295216657042139
0.300986989268344
0.301324958679206
0.301008676706588
0.292071811839711
0.296345986088238
0.297995383341001
0.298634335850278
0.297037543764191
0.298139222877188
0.296095674411852
0.293024310023251
0.291788324554428
0.297843698899231
0.291708242470827
0.291386853594198
0.290337236728303
0.29615358688312
0.288785984459332
0.290874397934758
0.28438373321738
0.28987727362409
0.290459949789017
0.288510781370894
0.282596738956967
0.289635567995471
0.282392732839471
0.290023403272226
0.28921516670751
0.283677989466201
0.282119120177305
0.283547500367034
0.278103152436965
0.283381956282401
0.281628405171574
0.281614170951142
0.275981020654029
0.279004004516295
0.275105444537046
0.279392025735732
0.277619694026379
0.278393591161169
0.274696854440905
0.278840133751847
0.270591042575967
0.27418469828166
0.273642706528306
0.272528737375569
0.269389630982502
0.272729671017692
0.274168462606413
0.272965639887901
0.27339790381813
0.270068086672508
0.269222193116576
0.272199940236534
0.265152880075327
0.269600582000082
0.266312423849202
0.26558425999896
0.268108108942575
0.272055887256925
0.261327697399764
0.26492768729504
0.260857817492128
0.262698828517917
0.263349450721053
0.26396697776094
0.259051304151793
0.26334540618976
0.256388231224128
0.261503108437391
0.253222794209663
0.254125979883052
0.255542190766338
0.255873339216578
0.251788894006083
0.256081882873716
0.249802743924649
0.250123876956265
0.248846001930021
0.250883385282167
0.245655929242168
0.251971917906506
0.246304505026046
0.243559491234875
0.242540985113891
0.244728022929694
0.244254423188067
0.245565560831774
0.244979128293161
0.240915083377093
0.240388452612681
0.239425686706458
0.240087375603911
0.238479978821815
0.237055157285247
0.238902281041509
0.237339543465036
0.236404487038557
0.233004584813359
0.236618607147605
0.232850398402294
0.238165279245911
0.235727303722318
0.233165309978596
0.233962044689738
0.235245422623047
0.230695507890477
0.232106476376381
0.229081233536191
0.228876198433157
0.22931142660643
0.229826567829707
0.22790747508606
0.227925028098807
0.225390718017083
0.227504779484654
0.227872810413884
0.225656864488305
0.225906307481105
0.224961123697105
0.222383868550512
0.225449411669081
0.220966924755297
0.222336515393737
0.22355819056329
0.222581034360453
0.220045311872177
0.221219514849435
0.219095771269715
0.217639336791238
0.213597956322443
0.218493620895234
0.219371377297868
0.21715186614225
0.215284002002541
0.217395358748552
0.215633926136257
0.215003120151377
0.213418600693218
0.217987554975581
0.210856956454882
0.212293429947957
0.211635489743829
0.212774685534294
0.20776319500173
0.20813374663743
0.210400241371064
0.209811615672197
0.206464936091711
0.20899307138516
0.208043266779971
0.21109955130626
0.21309153318943
0.210909803802947
0.204726707253378
0.209359151015208
0.20651117744926
0.207565199762025
0.205997136179041
0.20529898143432
0.204478732227653
0.204558256415566
0.205445623876143
0.20485586250223
0.203040098149032
0.207167569902442
0.208229405859198
0.205067773283815
0.203291451550189
0.206661394938653
0.202549506701082
0.201052443852487
0.199023374676295
0.203108169296664
0.202121317604054
0.201299830077102
0.201081303539495
0.20289986406852
0.203407332021632
0.202306605505551
0.198518290899984
0.201097659432281
0.204340067522414
0.203409199185521
0.200330262266188
0.199834303306644
0.196184360462408
0.197414079122218
0.195441133893344
0.19559411585377
0.196232455763618
0.197349334069479
0.191027425555143
0.1946753544138
0.196111629029408
0.19549021621041
0.194387473403601
0.196346438139109
0.195991826317071
0.19338930493182
0.188365102532281
0.191734995936722
0.193973658153864
0.194212054618374
0.190921790487308
0.192004246485716
0.192904362586781
0.188882326126761
0.186345889298213
0.188788693924833
0.188097050600419
0.191261470293553
0.18977610897312
0.189673113873526
0.188475959734006
0.185353545056049
0.186056078395373
0.186106959443707
0.186836127171311
0.184774508499948
0.184733144430551
0.186910140876335
0.184396481924724
0.183797415612587
0.184930608933163
0.184509993904474
0.182129735987275
0.182183702491201
0.183563978654333
0.184300324951193
0.186107615982072
0.186000946827843
0.178852343404547
0.180978437541084
0.183659300375334
0.182367653791225
0.18074180557391
0.181060617248641
0.180656938256814
0.18226895758449
0.17771493714762
0.183254790798281
0.183956712047091
0.181085891979633
0.180084446828781
0.178971611976133
0.17800366087432
0.177523347666981
0.178244368080002
0.178642266106361
0.175088935591999
0.175292292087704
0.175218508426385
0.175086136535729
0.173388013202818
0.174423916215741
0.173938150866366
0.17303730443138
0.169882244142869
0.170543184896715
0.172686904080451
0.170924531303118
0.173419259693151
0.170161645514533
0.16903696382707
0.169246334323453
0.166954521333107
0.168040245913575
0.166662410480594
0.165897541757628
0.167117007254609
0.166144186508968
0.162511887956907
0.164762413310282
0.162650577109071
0.165336204913691
0.165439233017449
0.1618124360377
0.161795320708999
0.164259129738091
0.161261724321468
0.160337707661296
0.159907051941116
0.159719538009138
0.162323110508782
0.160263228188308
0.156017712412774
0.15599351844291
0.156108115121583
0.156879710747331
0.157526666635674
0.158053076308185
0.156658187633845
0.154766400890153
0.154058062353961
0.157307371585159
0.154292074035958
0.153015768550146
0.156863957208468
0.155217551314488
0.150831037105547
0.150781090685017
0.15358456859616
0.152595136263984
0.151472662322082
0.15267632851401
0.154467033137173
0.149457699510188
0.149875776462043
0.149547641226064
0.148881591348539
0.148335704670118
0.151246714809994
0.148135108362075
0.146704561884816
0.146340743608081
0.145950348251696
0.146549539775175
0.145256322440466
0.145021981228141
0.144585658145239
0.143983529731709
0.145752381293992
0.143129010246486
0.143236477989265
0.141800313239132
0.141226357038168
0.14178340013666
0.141395640643972
0.141620803210647
0.14284935082062
0.139378041790114
0.139821845255001
0.140552449784787
0.140734510834515
0.138869706793954
0.139486630437222
0.137038307915646
0.137998391018189
0.13871117400116
0.138281741754352
0.138380330346576
0.137314068409554
0.132511153122137
0.133468271737102
0.135533962688703
0.136947434912728
0.134739646211098
0.134935404835902
0.13544260641986
0.135551443243021
0.133675666898212
0.133311963849608
0.133767973086318
0.134332423729838
0.132173226557743
0.132394312419275
0.131911057171061
0.133319035783924
0.133379031256752
0.134080255077568
0.130424821802055
0.129840414510101
0.130058258932507
0.133085977523466
0.131917926993554
0.129569169035041
0.127554491531066
0.129151837756435
0.125819834413956
0.125886710561566
0.122696010269535
0.122811322460634
0.121734280475252
0.12884543987116
0.12779799563265
0.130218623864571
0.123533682222856
0.118675648059757
0.122007456761193
0.129181864315792
0.12327323996866
0.123908019347609
0.12432118788689
0.121523133364939
0.118075068641987
0.126961960804861
0.11475730239483
0.122644574180928
0.121473691767483
0.123243721069401
0.118718434538511
0.1192320846746
0.12302105514697
0.130076676824068
0.124106516906495
0.125581165239826
0.117310242368731
0.116225221183765
0.11526030513038
0.123881372713944
0.113936534289229
0.122936775552162
0.120894481671858
0.12002773196694
0.116598803681199
0.121629790820893
0.113536679340305
0.117347556926718
0.112305489061198
0.121628269968145
0.112838923726874
0.125872804474241
0.119210147659887
0.125018950515278
0.115156379872457
0.115536303927843
0.112054188092386
0.121441299473852
0.123124011735707
0.122372707762505
0.113010628643117
0.118015814873104
0.125734522090251
0.124582993313029
0.121385021682838
0.114423255180758
0.129349359951602
0.113148166910616
0.125009738545376
0.111452275236472
0.131261148853858
0.10765937858488
0.125206348220887
0.112601080280861
0.125631065912493
0.114809664545918
0.124678144999849
0.11709472098519
0.117538465563344
0.119528228676257
0.116543972842997
0.118864987694691
0.115049182679998
0.120084786921694
0.118133485318705
0.117325566953372
0.116488218748391
0.11385305433139
0.119695425932095
0.116291141967299
0.11622853880153
0.11375779138744
0.114888599415582
0.116347021895755
0.115877128439176
0.116906376149143
0.114460012555905
0.114095124356878
0.116193651542983
0.115137661473759
0.118247350579229
0.114203120084863
0.115706361254279
0.115039198729484
0.113329352698516
0.113591778589453
0.115341081719903
0.117420815359804
0.11728455714229
0.114929011708049
0.115231420763571
0.115752521199305
0.117871828915306
0.117089817829154
0.114578867231509
0.11505135506693
0.115316837681507
0.113417870022901
0.115849622174915
0.116962251194549
0.115370594896692
0.115591336130197
0.119135119239981
0.11752363210693
0.114051171527416
0.115162050355258
0.117874368596945
0.116969810004249
0.113070874865321
0.115443810626134
0.115724642085648
0.115471300739631
0.116825529435477
0.114663621586135
0.11523232099639
0.115817297142342
0.116371733628657
0.11645937837752
0.114304313369239
0.112434682248359
0.114420743342064
0.116812832234894
0.116881859448594
0.115419455374638
0.116786462312321
0.116260238739207
0.113925296737246
0.115806256573599
0.113334124615029
0.113016380617678
0.114593293023073
0.114414956944065
0.113960965088838
0.114549888416982
0.115206471136637
0.115254448619868
0.111786166099864
0.113926831760286
0.114902736977374
0.113372908259418
0.114173029302381
0.117774318725126
0.115041533047298
0.115113410191502
0.114811246993413
0.114974195167182
0.117923795699487
0.117540510880303
0.116532490405336
0.114564897694208
0.114425929641098
0.117193927126543
0.114674850890982
0.116044958173847
0.117200617095769
0.119536342005213
0.115722640112909
0.114618654916235
0.117197991580471
0.116267304783564
0.114231561082128
0.117437599197486
0.117374511828192
0.118413831723222
0.117467435704585
0.117101093514597
0.119252837563953
0.118126102844096
0.115349745937049
0.117999941414288
0.117576140653411
0.11708483616691
0.11750409527927
0.117325878688911
0.118518577365432
0.118939148134153
0.11722467932239
0.11838132840099
0.117390044758627
0.118650501330003
0.117731769163429
0.117239365889578
0.115563708110817
0.119794436193418
0.118562813272949
0.116551322258699
0.117009413721434
0.119507046503116
0.119357139498823
0.118477383859141
0.11745187404062
0.11880907844505
0.120179337002548
0.120289085624469
0.118825331797263
0.121160033441964
0.119270560359981
0.121504578211245
0.118232191845787
0.117829236840269
0.11866051744631
0.118374072569201
0.118124293301245
0.119403314152146
0.118782218970698
0.120147355150583
0.118597363955338
0.120303482618645
0.116512207149872
0.119101033044901
0.119977548775315
0.120866195031736
0.12118078623602
0.123014777369751
0.120689990640791
0.119473661160062
0.12023132779168
0.124027993190516
0.123956659228603
0.123878236498719
0.121029553523718
0.122287911582824
0.119527943843716
0.122212388311675
0.12179501949175
0.122838407724948
0.12232138934719
0.121844999502958
0.122327130532977
0.121762036067004
0.120333306277508
0.121961920353881
0.120056708343665
0.122004065868313
0.1220618214954
0.122068870538588
0.119063398888757
0.12173663502608
0.121285763364217
0.121467258120876
0.120761998946601
0.119725733915974
0.119483159358502
0.121382866480681
0.117833768626984
0.11942313730112
0.116609524620456
0.117120635152541
0.115044018713682
0.118120192308002
0.118960738857714
0.120258226541003
0.116894693103441
0.117698604717864
0.11563599362797
0.116583595365462
0.115970971972505
0.116934330968623
0.115696008778456
0.11433871309983
0.116153861034828
0.119247883933442
0.113838518190987
0.117697973878947
0.116021177349978
0.115386988611734
0.11580921357876
0.116854065425848
0.117217298622296
0.116182672465199
0.112809074046958
0.114501366648268
0.114409916295234
0.116302014507933
0.113646219976424
0.114762526101463
0.116331923055299
0.115004707430789
0.112353618807246
0.116274548822534
0.11067019914656
0.111333404283277
0.110943445119207
0.111961120297954
0.110819372060185
0.112467461761495
0.110294922557894
0.114379076594404
0.11372067806175
0.114364325546749
0.111118588122819
0.11355218577414
0.111420084027809
0.112349566154669
0.110184726780152
0.112513032641491
0.109583400302461
0.111290492387941
0.110549082592852
0.111710066416044
0.10872526188452
0.110386537312744
0.107408123192636
0.109146253370838
0.106357871621042
0.110222106835529
0.109546442981041
0.108847043233119
0.109215550431484
0.111775809019115
0.111232980988787
0.109718090386714
0.108362607641749
0.109780958706952
0.107021499042951
0.105446013853072
0.107474305808936
0.110849610421462
0.107938678979633
0.107140958202311
0.10861789923676
0.108178319159199
0.106301107188833
0.107432982277712
0.106591177851649
0.107089502563563
0.105670907729162
0.108645020793707
0.103306202936137
0.107178142174352
0.105819164776151
0.107653835205351
0.105917081150743
0.106096105252343
0.106028443538088
0.107701540696292
0.106553296901375
0.10603897882557
0.104619501169976
0.1050463174706
0.102888609872051
0.105618234725113
0.104191795795832
0.106723355383324
0.103847889299575
0.101318298622838
0.104610367176639
0.105880058779352
0.102003509225132
0.105175883024099
0.102721780644307
0.10335344915612
0.101757523025535
0.103371020271174
0.102296866317093
0.101570864129916
0.100239935583939
0.100438847517339
0.0992056837313341
0.102856727832622
0.0996790389855192
0.101228569688798
0.100454139223162
0.0994214698631279
0.0974130559396404
0.100077328102076
0.0972362534091299
0.0990195797068503
0.0977956543123751
0.0979733616576911
0.0970333424124676
0.0979036903519061
0.0983974483730544
0.0976279116251031
0.092872998941145
0.0965279875744019
0.0930459124070569
0.0927481526043277
0.091529394928818
0.094851502916212
0.0921196028698613
0.0943529732045798
0.0937101481511141
0.094994947456087
0.0902302073782603
0.0923984753525091
0.0909211329046433
0.0949410998722665
0.093724102552046
0.0910014462725406
0.090414501445689
0.092243968637329
0.0889550320672876
0.0898661801460052
0.0900761257817225
0.0902138547123509
0.0902390530994061
0.0884589822721368
0.0921412783461975
0.0954092314569751
0.0900199992165768
0.0914365555916557
0.0892162996923571
0.0907812655678613
0.0872256803165476
0.0881481633756446
0.0882385857853235
0.0908907262416958
0.0867401777201641
0.0908469385574437
0.0864895542499488
0.0850780530791996
0.0849930556490586
0.0883334608498198
0.0853967727055791
0.0867776247113096
0.0881944534548595
0.086505694256164
0.0850815186629414
0.0869920126275487
0.08585269016688
0.0856319153301413
0.085396311832335
0.0865284905298656
0.0858515022657704
0.0906051048409998
0.0845058804831728
0.0867093542428066
0.083815822590116
0.0878616151703999
0.0843150859545212
0.0845144998737804
0.0812401968127564
0.0830625273684557
0.0825161830076497
0.0839503858367743
0.0798185178001008
0.0824181506803547
0.0803624747705719
0.0834075358142496
0.0805815483827121
0.0803671425063618
0.0767709609321405
0.0814522538814952
0.0792980770128172
0.0815051860525248
0.079322242306402
0.0854158760703792
0.0789986349178697
0.086484307357013
0.0789349859929631
0.0810429743991586
0.088435013416513
0.0840462885552827
0.0779677887243514
0.0786480985991171
0.078894556983157
0.081436530894412
0.0763034902916143
0.0770488257699264
0.0782103199996506
0.0785232448723043
0.0770789859371738
0.0791448782539467
0.0778638022333598
0.0775675128189022
0.0784815580874383
0.0799045507665281
0.0774482861577276
0.0788336826241946
0.0782453817754021
0.0756574355120497
0.0785792270115031
0.0884864609038513
0.0792827629628387
0.0788205851874581
0.0787334645772243
0.0732695850293483
0.0898472659952557
0.0804175662463623
0.0805168536075675
0.077195102683635
0.0773504458214729
0.0769022975210923
0.076757301258975
0.0748248835318599
0.0748475759485336
0.0820174002033961
0.0767881033335025
0.0785984892011188
0.074290625511198
0.078285183502018
0.0761962662113801
0.0767752225040532
0.0751251985316521
0.0773458061918228
0.0765541044499117
0.0755541127519477
0.0746568392747204
0.0747874650103542
0.074770132967217
0.0736004155156255
0.0762230953021983
0.07914025179657
0.0755535739581312
0.0756251260254344
0.0787926649516209
0.0737464121164122
0.07316789553934
0.0861698398037382
0.0728256915467001
0.0765700936606678
0.0710900444502517
0.0747784945599957
0.0732124896838058
0.0787103794057611
0.0735023947634131
0.0746219561286582
0.0742294039704323
0.0757473004113477
0.072916387503516
0.0755762574268783
0.0715342946321205
0.0769422437853491
0.0712320832519617
0.0764647243963036
0.0735407516620606
0.0730481995964419
0.0751671540126749
0.0708071441897772
0.0791229937660899
0.0882899335635218
0.0833015501804171
0.0823415043563947
0.0765705175609142
0.0748594597798809
0.0749634487304363
0.0763518356156738
0.071123368940965
0.0802933237921503
0.0719059993775398
0.076044747128408
0.0739995702329932
0.074979654046388
0.0723623087591194
0.0745951876154382
0.0717854722230408
0.0766676153687768
0.0706291257025484
0.0766651233680988
0.0698557787797676
0.0770262984141808
0.0675243243666493
0.0824541610017493
0.0743983095728179
0.0819355549792588
0.0603193146844313
0.100768954079188
0.090318221027879
0.079488627489184
0.075449862780182
0.0747784134783324
0.0741030025477387
0.0762698841837506
0.072578550282973
0.0783820995386204
0.0753054603524281
0.0761369426346421
0.0743623693035482
0.0773081425603924
0.0769991450838535
0.0712757085586656
0.07391761350936
0.0984754477234241
0.082006127004874
0.0843232660040527
0.0730724164098089
0.0787873242510919
0.09259210791186
0.0801465036806538
0.0785197061782944
0.0792127145804015
0.0768026262078243
0.0780212869153125
0.0766156049371344
0.0759650971825779
0.0779368615088145
0.0804092754788512
0.0771372584511648
0.0796886009942046
0.0770000326124734
0.0852143737319392
0.0763684237857465
0.0866553837378239
0.0873338168416215
0.0770302444540427
0.0819872819967153
0.0830442425855924
0.0813513105531328
0.0801943176162586
0.0802458456093986
0.0786443765627421
0.0842663190406329
0.0925458045412652
0.0814034952345284
0.0925758073904141
0.0878880374409162
0.0795172849455843
0.0844191021352115
0.0858841908858592
0.0922234424338614
0.0744297153463942
0.0873780168997589
0.1045353428234
0.0910621530680125
0.10493246896836
0.081187693941759
0.0898951485858224
0.079723273257104
0.0892033812818366
0.0751388490326789
0.10731278094946
0.0770721498776252
0.0973668332785034
0.0743182135073379
0.104177745780506
0.0940637263385603
0.0936183870191792
0.0872859114258418
0.0903622515502151
0.0854304611000383
0.104083213013924
0.0881775776245025
0.0798167649654616
0.0992457572938046
0.113056762981515
0.112954342543393
0.0956476569628523
0.0787472868244147
0.121567370787091
0.0925224400964928
0.102980935674412
0.0857324499947643
0.102937003739419
0.0881049726467211
0.094545875783066
0.114071425354884
0.100881386981555
0.0961566038239146
0.104350018767863
0.085201101411868
0.113928002121194
0.103965698412112
0.104082696245509
0.094102292335149
0.107357459970228
0.080949835826242
0.156323167441015
0.102790647120422
0.120702888784752
0.114658886441764
0.116725132031905
0.110163235265061
0.115234967280909
0.108997201986863
0.12027859383787
0.123386717336686
0.120158064795997
0.100090106462414
0.124783074186436
0.136534519086118
0.113838048547201
0.12564552378843
0.11623782383564
0.105241562755372
0.142844363672019
0.153108970739004
0.149027096616637
0.125653671566726
0.119628667372421
0.144754186082077
0.130248874329684
0.12777808356963
0.130126747749889
0.127342082296732
0.134713223393219
0.124762222805842
0.144077436253919
0.13160124524745
0.144009862130025
0.136018859424763
0.134609944141805
0.135529800891221
0.175824593557394
0.180902173087912
0.13854485339414
0.18468810060808
0.161546078111244
0.163729102078255
0.150159674502765
0.149485436830971
0.162916066059443
0.159284635915892
0.163848459768997
0.151078079661016
0.1881995250685
0.173708400493085
0.174636413498421
0.187982451536301
0.175684004600955
0.183349117291642
0.143065936139551
0.335204152766864
0.194516747532354
0.219912287075709
0.191721260283505
0.201423377918481
0.280684424704545
0.234161435914058
0.233334656116373
0.236518544434745
0.238795576866812
0.250684523341162
0.259653289779477
0.269472553921543
0.282767205666908
0.288202154585158
0.273385693865407
0.301614565686693
0.349694399228741
0.352974810351786
0.341706145023289
0.31448891009157
0.336565501513841
0.355024039672724
0.343343566940743
0.363266651403247
0.345879107562567
0.349204828788371
0.431637968864556
0.386691016027072
0.405620195567059
0.383318704984702
0.465799961492094
0.383208766169394
0.499517390259586
0.452145386422581
0.460705992142236
0.45238921019136
0.47411785932553
0.478249646929779
0.476981684729781
0.513861768762378
0.520199312419101
0.505594798509325
0.523765897490385
0.519251287284641
0.538530682238304
0.539665629459029
0.565397936275258
0.537397818684973
0.605355645245262
0.56902744062572
0.761723012401285
0.593476709470661
0.5795576632729
0.56270523272363
0.572705731520882
0.605783375738667
0.591016485411543
0.625179354336201
0.622534985604516
0.578876505408861
0.60507334160476
0.578493871724266
0.600440723952218
0.575742162427586
0.60871798924915
0.556817900260262
0.635827464694732
0.571149008186183
0.634785566433501
0.65854474299783
0.613076101921251
0.589065603886214
0.605291100224718
0.594063151136137
0.603663599342521
0.583651140534726
0.595578890549375
0.615556337989826
0.572971933787971
0.580302339042403
0.554646653375346
0.581883599268496
0.591645471493565
0.537752674286466
0.547349936785269
0.526558392632418
0.532492273283027
0.492259089007669
0.524672174340838
0.572641620900406
0.513307820636663
0.496499648388533
0.492393371954633
0.482263918677185
0.477499151860933
0.472465138287265
0.476919712397564
0.477615164976292
0.455889196695241
0.470470661101667
0.457375063708338
0.463466940267657
0.449601580131334
0.457649111781631
0.442076899916876
0.452186978359169
0.455888306999856
0.444303691096626
0.445929071362402
0.435085290300221
0.43693833700752
0.430932697271087
0.439730089691922
0.445245251828406
0.444698836981368
0.435525479307781
0.436226631241205
0.436957996649696
0.439136239398705
0.432466514401658
0.440261151800461
0.437360248063509
0.441715403754088
0.435768657784142
0.437512319001366
0.436115484565848
0.435575023356011
0.434680411700264
0.436872922428508
0.431508495003153
0.443664508226926
0.398044790845057
0.505743314561606
0.447083391440033
0.43746162626723
0.430913184852575
0.424585209759346
0.441482673427138
0.410151818696955
0.467354031518977
0.449269466091521
0.430902075459213
0.430867158889713
0.417634741287826
0.435756439420499
0.437399216408937
0.414037981298766
0.433021763317673
0.385145944437106
0.451077168141147
0.453855732813525
0.465477129611382
0.495751923100988
0.43758449552474
0.420412506141634
0.419729271891296
0.470418443456974
0.411174684205684
0.445579871213199
0.398602503807531
0.467411404318514
0.431976862646648
0.421466781073544
0.426438686481369
0.413139343923909
0.430705224270111
0.457953030391857
0.419223637472309
0.424622662497248
0.453691716777628
0.412962862961564
0.449556328011361
0.481714141039273
0.438321015758203
0.399037930113415
0.406425481480997
0.39606196145517
0.381081217047609
0.471618899488423
0.386370588314879
0.406567195026587
0.375264810929018
0.377764753047574
0.368703739572021
0.389654630001192
0.38615195674451
0.361525487154501
0.422929567565676
0.338908124808102
0.386502248253654
0.359291383402267
0.393704401277242
0.398529747651794
0.375074943944414
0.33339055676312
0.37292926240492
0.37784029405066
0.344051439725027
0.369438407967553
0.327702964218857
0.328975667072541
0.357028680995275
0.318221397165197
0.339408693475686
0.33797821780006
0.318610109445639
0.371626237867085
0.343612856633048
0.364095943631169
0.319387723913405
0.301027110324959
0.30396902397684
0.294102231128212
0.310974973086309
0.274483704081114
0.333078143290411
0.301840495667743
0.269919616964412
0.353626978303452
0.296270699467571
0.296028924537461
0.296962740819269
0.289911230944134
0.288762314666524
0.299545274809529
0.324779868770817
0.31094205469113
0.305477039891078
0.332526131168246
0.299682784241376
0.31724810443727
0.300887420872666
0.319224466973049
0.309380332065225
0.338196113977716
0.322963038508193
0.336108677317218
0.335869936772036
0.338054741700944
0.346171825487894
0.396678289406844
0.331678848862268
0.417601343526188
0.360493955569633
0.455917837219291
0.391619136949137
0.399752705087413
0.404618340431176
0.408230013311906
0.415468751543152
0.413794293209341
0.409397274525017
0.477315970132718
0.411853385498057
0.451363302501737
0.42456084870732
0.457012499246322
0.423609568228276
0.49568482526679
0.437152536732527
0.540930407301956
0.502140228068822
0.479200359720279
0.482563657503556
0.459298428823433
0.484332243426473
0.479812009587295
0.47325469765468
0.485409736250793
0.470283886376066
0.518709929589886
0.482698413795401
0.491446205532715
0.486103943499258
0.487944304837827
0.495218391241295
0.499795732243453
0.504870242836966
0.508050683712503
0.504647508320106
0.513756733557639
0.475933819705366
0.602802353845194
0.524966989367491
0.530546052820301
0.515548246768668
0.53785847924475
0.530481179702611
0.518791013644189
0.552423718763135
0.551601918317925
0.539476000418556
0.554270061324166
0.54613541495807
0.561000466262292
0.538419538711065
0.602995466374697
0.545010876624989
0.591178101325536
0.534951065152187
0.597520297380474
0.622937667555662
0.576569561653252
0.596043390563056
0.570230338668919
0.593980630306453
0.580514784135851
0.591816395007322
0.57742146357386
0.601023205138982
0.591269625306429
0.598014675784787
0.597122673065705
0.593286148736201
0.598374149171573
0.584441226057763
0.628612515417437
0.592751321710014
0.602658516169446
0.592363134036502
0.602245825687693
0.57802689338304
0.613441894560569
0.621113207936494
0.590386980410502
0.60226324786383
0.594516551517544
0.596016293864647
0.612515556756497
0.584044218513608
0.603445124707159
0.59079398265134
0.596712580249595
0.598561732873435
0.595119747028414
0.639315635199362
0.604035108394463
0.617320804711332
0.605839585275156
0.611331172021088
0.606447503251341
0.615151291070492
0.614788851391024
0.622421321385613
0.619608388319433
0.626843319857261
0.629892784803502
0.623535775948264
0.635296613936091
0.645558883427318
0.639423965053073
0.618273128563504
0.632469781405213
0.622285496361399
0.618957385367084
0.631651976402323
0.616777895950482
0.612363420552994
0.598529114261546
0.615775106325731
0.581691109800577
0.625502061730325
0.590837592334631
0.60145506976253
0.591866811097086
0.580146068919947
0.58357237438933
0.573906413705919
0.583444766411183
0.573587969606978
0.570151099860493
0.555438739349127
0.55874019087687
0.561450068741428
0.561974826813377
0.554078607993078
0.551385092583339
0.545428833166086
0.556394937497034
0.550406292502267
0.551539493740468
0.551872451249543
0.549186812465726
0.550204424575681
0.543984904155089
0.564144302409066
0.563353383449582
0.566535058956711
0.549531038987487
0.551811351534954
0.555760267070339
0.547775895257252
0.556757885591454
0.542855928275636
0.550781070112555
0.536345739019267
0.550271999520832
0.541612053670106
0.549599212529308
0.544503932501059
0.54395482031523
0.534969592057372
0.545824855153132
0.539458026736651
0.54761269949636
0.543835974212904
0.549332046531873
0.544069185594618
0.553481288034679
0.549366003075831
0.547859829964066
0.548109630616825
0.544337008249651
0.545760958218236
0.543753169827003
0.547152963457674
0.548700769704329
0.549992065741824
0.552695791253987
0.545946634508334
0.541597251182162
0.548184432847788
0.547381419272973
0.545174412043784
0.539218661302773
0.53946403788878
0.539192068420091
0.530190620565859
0.527782438552686
0.528481336704394
0.526889602559187
0.52064332634534
0.515346157684985
0.510927369127495
0.510549928054401
0.505378903373014
0.50282658026746
0.497509736353957
0.49117287191518
0.492021806745192
0.487336267394021
0.486290964346244
0.488872291347325
0.481369837373292
0.482011662533279
0.473148743379613
0.47539802735405
0.476884673746934
0.473974620889251
0.476456100072581
0.47568527260864
0.475552962782921
0.475504790421964
0.478766317928437
0.474392460572944
0.480482443673356
0.477057422684135
0.480595035860079
0.477386526943785
0.48407383545241
0.484973743055361
0.488944918762606
0.488023429976311
0.486489720981063
0.489632554000937
0.498734753548329
0.497099425138218
0.499609606971069
0.502340109876617
0.502007193550552
0.502354569860832
0.502684686625947
0.50611178863159
0.504705264360657
0.505705553253
0.506093355357011
0.507019511847498
0.50552078673998
0.505535814035319
0.501991974294658
0.505176807962729
0.504499219503439
0.501763273989041
0.49918490391671
0.500226645848226
0.496700306680555
0.495409573922699
0.496326584336407
0.498735433164589
0.494133374297333
0.496345427859997
0.492540400782623
0.491589482405237
0.483439450477955
0.483258226585609
0.480504466276737
0.48468344187034
0.481913472831584
0.479922474463574
0.474226665569298
0.474622908815937
0.475015825291725
0.475139451867634
0.471355657214723
0.471674874459964
0.46980907233723
0.468031088381373
0.464529783164412
0.465245336900829
0.467190179757326
0.465160433774885
0.46031291001128
0.462341452784436
0.45756497990571
0.461781718093832
0.455550507901438
0.454217289186916
0.448620218183381
0.443548075391425
0.441315720222186
0.438144745978413
0.436384003868694
0.432469973170428
0.428791489611436
0.425162702688948
0.419662139722992
0.417936760872246
0.412050086126086
0.411714568004546
0.412421677678789
0.408784478176016
0.407995222499272
0.405656967436558
0.404419429387036
0.406581717739999
0.404836986960904
0.401465050965285
0.397106027230652
0.396857831836962
0.396087039804191
0.390956252939572
0.390847057154787
0.382828532669196
0.380863970904298
0.376578192825463
0.370716540222352
0.369604761395729
0.358395996124082
0.360162490390169
0.355570071679641
0.353252678638465
0.353129677735127
0.353194303426374
0.355389100499706
0.357321608859356
0.361734985491239
0.36767285843041
0.375772927248748
0.384573213040564
0.396104914145
0.406083618506695
0.418908479692227
0.433600367594271
0.4467741471174
0.463934851994893
0.477630764629138
0.489708372433524
0.507249968696253
0.526323925121023
0.53901154974714
0.554759379584993
0.570395161277298
0.58410812925324
0.595430765761671
0.616317782652104
0.628314676172221
0.635934856099505
0.651358624679391
0.662777491312999
0.673921632355857
0.687234590928567
0.691062017110337
0.707625428976336
0.714326590293346
0.717521699816852
0.728869136900425
0.733904566627954
0.739303209725582
0.738052694082211
0.745288639805245
0.748777369216281
0.74527806893779
0.749821944696601
0.752516959792104
0.757570168573942
0.748606905648676
0.75547544047743
0.749417383596893
0.75976216124728
0.760252228918996
0.761242990994559
0.763396459554298
0.770413541506506
0.765655391232417
0.765519903691999
0.779994151946678
0.784676206608975
0.786649310827065
0.795983830081635
0.807325132252484
0.813473118396926
0.811412437166302
0.818807480732438
0.830179519698335
0.833320816027876
0.845660697334098
0.864947722485916
0.872576127996222
0.887917321204537
0.902467654598668
0.90632455103243
0.91535739502122
0.929129432268493
0.948696255782719
0.949183244611135
0.959323494451674
0.962971678822932
0.958419448420906
0.960700940821891
0.954842977297551
0.953618707502395
0.95678369220911
0.941941974921933
0.946120356131351
0.942230419769464
0.942977454466631
0.933309969307331
0.933154782528026
0.946232159190625
0.960209715613696
0.954054609707734
0.972687664879057
0.979021706989127
0.997042547871645
0.997320337714766
1.02503905790855
1.0339677689258
1.058142920549
1.05412012404459
1.07794380968784
1.09746982415449
1.09254340282686
1.11827404781601
1.13540727537929
1.14961054506745
1.17683998961046
1.18191455295293
1.18317480007751
1.18350048609732
1.23691082247816
1.25788067812538
1.26367131231177
1.2783345671712
1.31165337402549
1.31578547077406
1.37168885165682
1.35633691100795
1.39660403275861
1.42075580865452
1.44427853730352
1.46381831083263
1.49886732654444
1.45968911970085
1.48012089028453
1.55460124519347
1.52957506192501
1.53495392194268
1.56844401296769
1.58385845202964
1.55470319901775
1.53470568583712
1.55588381451437
1.57440184999412
1.53150129693737
1.58015779530949
1.5712872146918
1.56296979176332
1.56718075726098
1.54975295186755
1.55034775119927
1.55265959890008
1.55258665050504
1.53915006710769
1.55336731336187
1.60225250311711
1.63967676088818
1.56522238257905
1.6161853862719
1.65011642581149
1.68878789052197
1.71687182351829
1.72272785189133
1.69515649586599
1.70035555433171
1.70478370169013
1.77008355963572
1.75007904283054
1.75618640929281
1.801030088679
1.83082207370936
1.8021760312734
1.84571989119095
1.79431352952961
1.89080297281098
1.84320545125833
1.81998193047445
1.82636629244075
1.96368083959761
1.85170463662029
1.83531282166146
1.87674922251055
2.02758226774157
1.97665487165549
1.97809966539426
1.83852582766504
1.92867110003496
1.83629401618337
2.00544622435753
1.83854986336624
1.99173402255535
1.89642250064785
1.89821831227171
1.98389686482272
1.90026374028307
1.9798704484105
1.86841384316216
1.82517661700689
1.87436556209343
1.88822949866512
1.76160915781386
1.81471990922714
1.74031489922802
1.65236702001644
1.74555890448452
1.65759090836835
1.61433958447362
1.54700245814683
1.55062438219972
1.51330674879173
1.47453327604789
1.43208699636911
1.51059399560722
1.49146612971293
1.41904477571058
1.41226094746132
1.4181231723918
1.38670809124318
1.40196606847581
1.35744617173618
1.42954107684566
1.33984192309043
1.34864793389112
1.39317968428511
1.35288810549691
1.31195308481303
1.33350146172375
1.28775684249076
1.26084159218784
1.24173228403097
1.21192400094868
1.19171866145942
1.18882645535299
1.17037179623081
1.13587549784198
1.09300277253678
1.07731660081599
1.053298203651
1.02143515939157
0.973958308639667
0.941857253304008
0.905656707214337
0.880814222914656
0.841164950335753
0.814309308819565
0.780580784945064
0.759702035344818
0.724729797602334
0.712852225643908
0.688694235445841
0.667645104556925
0.650587292260422
0.637262846072505
0.611567804184374
0.609983375354436
0.602302557223691
0.597145408279549
0.582568399757258
0.579322330057823
0.579245101981609
0.568525977891178
0.568965931606993
0.570567515134712
0.566365403215732
0.557023866813744
0.565649246143198
0.571656771591551
0.558784859062433
0.571899915878221
0.567731437987197
0.564975858964471
0.562560794416269
0.556812432132169
0.553397750585697
0.557474031698287
0.547429619593423
0.545581254927124
0.537335567178645
0.530852914559473
0.527348881097197
0.52009688023101
0.518066446143006
0.519410352004889
0.52069834547288
0.515021229281479
0.50538720749389
0.518068754599394
0.520468900896443
0.517550175691504
0.517973739695794
0.518868857321367
0.525304123910645
0.53468275053939
0.532706930525333
0.53012753762783
0.532342597736412
0.544045767457285
0.544671264033839
0.549282609975595
0.544464327856438
0.53844360043852
0.534975881464664
0.55090596555335
0.552379915944104
0.546782558941687
0.543415738797872
0.541312709779418
0.544622605168932
0.539694249031163
0.544516733773322
0.55528882542007
0.551366125586854
0.564509696507264
0.557573964289413
0.565950511727887
0.580164681064636
0.589488232834259
0.588093043861733
0.599040007854777
0.623927954218206
0.628496467415001
0.638778860714108
0.659234736410641
0.681668313736209
0.70138331717056
0.698173592947661
0.711891377880222
0.700131213280458
0.711934476215201
0.700549416000119
0.697536581229331
0.691942633834377
0.692816738905167
0.672494482750519
0.672067847457293
0.663412294510628
0.651566664676779
0.640604855938087
0.657148701207281
0.649322419132816
0.632832797826302
0.647113809013576
0.663509452928263
0.664512871268103
0.666626469809703
0.674688877661785
0.660306973144917
0.645982243263764
0.659553277609225
0.653623499996972
0.644750711344821
0.632849652281406
0.638417930689943
0.623801882137918
0.628276602617596
0.614680699554127
0.608752831635014
0.604831310449857
0.604576350833898
0.595794521388202
0.602392032242973
0.592312269244136
0.590725250024499
0.586404570525446
0.590471120488806
0.580291762510983
0.59345223676747
0.587444074863184
0.579336885885882
0.5786823805571
0.586208758492378
0.574669364632776
0.576913280467682
0.561440491836609
0.570141226632748
0.569911590032535
0.56292687620854
0.557371151919984
0.55831152690787
0.555399793582416
0.55287471378788
0.537900988757438
0.552902623891063
0.54803082120925
0.5444949830351
0.527949516452446
0.529457346807289
0.54505954563763
0.547738951843743
0.543797193837511
0.544290138889802
0.534944976668827
0.528528766105691
0.525141283819343
0.528356192575166
0.53424606309849
0.536899308218771
0.548299433820346
0.536800075715035
0.525325324053925
0.526704958284311
0.538818718853192
0.531518819974315
0.529877925107567
0.543286006940121
0.533791074276227
0.540822699250588
0.53866638622309
0.553457684654892
0.558195738349352
0.542497882852938
0.543285918468335
0.558421040391176
0.562995455447468
0.570024663288077
0.556826233136677
0.551548227323866
0.533340533055483
0.549802036249802
0.559666751299668
0.572475095107069
0.571127266215662
0.591074096316131
0.619400985193398
0.623369110696423
0.629223438359525
0.629692499420915
0.623210191911645
0.649505741840883
0.657806256686866
0.673243964830758
0.669983925465682
0.670289489537236
0.694986322136896
0.736366495843296
0.737731424206601
0.73783902526867
0.745224900225338
0.768520408645673
0.784112758462552
0.797956475958592
0.787125952978444
0.842659843323704
0.827129740741081
0.807750626342321
0.854209572857012
0.859383049754316
0.827392069257085
0.821326162710548
0.821826133775742
0.86441763401264
0.875528248763156
0.860102486699819
0.868099376125347
0.858315244403056
0.855204869201352
0.845273015274949
0.843015916884269
0.880872221186923
0.846617880123891
0.868357451405168
0.843600620983312
0.834656537513008
0.800410650537851
0.807074086866811
0.805561245291144
0.836847879664248
0.846125965844797
0.826552000746937
0.802547586080434
0.811890279641681
0.835105721224279
0.775623236367014
0.76649619805848
0.820371431585911
0.790967338111539
0.77628035021046
0.764199200334839
0.750951773973767
0.827275616054494
0.820125533788443
0.802074830079282
0.776278122692797
0.768545868238112
0.790845098500896
0.824324130049974
0.837392650231151
0.731095951974404
0.769030497997723
0.814122896422403
0.817958323623359
0.817647708674617
0.866500695796047
0.804645647499994
0.723895167665031
0.79829350541002
0.822778813083589
0.770735216020002
0.817206495226723
0.824628717324509
0.791539418388675
0.808232518139648
0.843366432869492
0.869123327545717
0.855979509660365
0.883945879689402
0.89377653820736
0.810810068138908
0.789956893515455
0.796950008930347
0.86790827326318
0.789439019084706
0.847361044246096
0.897620881554171
0.927781549232953
0.904878344391698
0.809517197530696
0.836314909878959
0.893641007379198
1.01804854843326
1.00553644082762
0.973217593703848
0.965229321443729
0.87387244465131
0.998062363998584
1.08134533897234
1.05951689586935
1.15288908834214
1.11539459995676
0.956161273514596
1.06893672296597
1.00534642594887
0.968125426376926
1.16353069217136
1.08341464793296
1.22412674076551
1.31509636575927
0.994370404019932
0.911244505922387
1.16482041101441
1.16851879163815
1.01175815932342
0.951568693626285
1.03294325468346
0.98129045861032
1.00387920133432
0.928208795668344
0.996162515321318
1.13067239737989
0.898516183969897
0.912683781779503
1.04912630538631
1.11078358763151
1.41983248402602
0.899274972049675
1.0252799003597
1.33706409491083
1.40910928146584
5
1.2613227553954
1.24454145760149
1.3047167603329
0.896718034337486
0.956772054474069
1.26798255594023
1.15873911954177
0.908339369226677
0.785999361321996
0.734410550904305
1.05094578150246
0.935256268238068
0.823127422283936
0.775719805301827
1.18119614958267
0.715406087158087
1.31923923362131
1.7117252858646
1.96369193190832
1.19086521695368
0.664982406814534
1.12964296791828
5
1.21437760983591
0.894977798666583
1.2014306593098
5
1.1045738250376
1.05622441640148
