3596
4000.36533379555
650.420452594757
1
2
2
0.0672114782805528
0.0623097478497796
0.066883153808782
0.0540626539630277
0.0693226572771973
0.0575081631892157
0.0611360625515439
0.0575137298480523
0.0560238363032123
0.064802314096034
0.0663713250105772
0.0585879923067923
0.0561562902950841
0.0526747281472777
0.0609974015015879
0.0587642481910806
0.0601799694758622
0.0498404533346259
0.0649182598453815
0.0593328901708983
0.060179707918729
0.0591393157912152
0.0585937400367954
0.0556557217870495
0.0698745787698305
0.0642428803683169
0.0623747362772993
0.0598643222665857
0.0634184942586267
0.0644174195106225
0.05553801222532
0.0551941908560734
0.0638489867187597
0.0563794281360044
0.0591822697115517
0.0558737310110245
0.0588985529350628
0.0607340694930029
0.0561353389187037
0.0710525185796319
0.0739700485091598
0.0514241723329602
0.0615235940531844
0.057214344058818
0.0622534278481161
0.054502714192378
0.0557978855229761
0.0570148460889565
0.0632268853812483
0.0579310250694014
0.0569365842932401
0.0497839938440188
0.0709019638387627
0.0621707546850375
0.0636203290045158
0.0709292631684202
0.0625060109053669
0.0524315886596303
0.0659817869688033
0.05355830883512
0.0801971880609722
0.0769895220613864
0.0594138892557
0.0592349882725052
0.0610275668502767
0.0582751048155782
0.0583543474327297
0.0564052906508176
0.0579656252194847
0.0695391809101823
0.0529906435039924
0.0735066045141836
0.065576984660187
0.0506586790681022
0.0709597932118776
0.0555989562225515
0.0582961598743918
0.0575404617983611
0.0513837528599732
0.0714285377818618
0.0711959316546237
0.0627996872876741
0.0623682849610102
0.0470748351733238
0.0641966761441782
0.0739329281793785
0.0450417223210631
0.0668584621771426
0.0759868412945666
0.0690097513375664
0.0571201061749885
0.0591966996399158
0.055126174816797
0.0525968553129929
0.0521568994987818
0.0592304197405348
0.0493684968298944
0.0665903770153267
0.0451446022145978
0.0600176816725048
0.0537835235290044
0.0680398866424795
0.0964457686536002
0.0358533421136012
0.114365024336725
0.0563037306599591
0.0654938318449638
0.0869971434232182
0.064373633470121
0.0579957733464762
0.0510764614079687
0.0617862030712677
0.0547015878591638
0.0633438123526286
0.0357802830312384
0.0708604976542937
0.0830059854932284
0.0663557294017528
0.0553061326072853
0.0597272434308006
0.0381543462094338
0.0902772533539025
0.0861849835085765
0.0591160048975921
0.0737221071821299
0.0556253087515182
0.0444937171952857
0.0851378901547491
0.0773126112682503
0.0601264115276036
0.0510153806870061
0.05999645490455
0.0397626787921517
0.0447920633059822
0.0927881674538307
0.0611814632030983
0.0628950478869951
0.0417577791170691
0.073520015286372
0.100744633201944
0.0680406076672943
0.0678852820540935
0.0405726886356608
0.0603935021492668
0.0871966191673456
0.0661980072977314
0.0591425489929613
0.0742920854358489
0.0594405249464578
0.0528814373639147
0.0529956375110247
0.0458444438495319
0.0789676302527689
0.068301582117784
0.0129260413948011
0.103629444704175
0.0871123983857708
0.0725867221379368
0.11214501543286
0.0465599540010208
0.0788918143653278
0.0489557987407584
0.0641756193651538
0.0421237266201687
0.0609834321452539
0.041014632221204
0.0712984634047275
0.0689814253725148
0.0521738382246659
0.0594906509768384
0.0875564576660183
0.0575026596114996
0.0278579297345614
0.125805981201839
0.0576119750807888
0.0461449195613442
0.0844231222894751
0.0697384880100035
0.045048928907199
0.0635880701362552
0.0758811073908088
0.0586842880288418
0.0612573974011362
0.0479110352046884
0.0604254127676878
0.0646845328226995
0.0588125854711571
0.0561890389815204
0.0560337381196703
0.0462052017125657
0.0625551096570467
0.0916278421700258
0.0861031319586304
0.0548729043198279
0.0657111472257456
0.00908897169324382
0.0984098148180555
0.0822099972568014
0.0708841932680679
0.0543552334715908
0.0502145498694955
0.0493794415499993
0.0539608106971479
0.0533521825391979
0.0446820819236254
0.0350815595907771
0.10926536523474
0.060158263734314
0.0647091446589881
0.0417293687246106
0.057926398223976
0.027731412982633
0.120635398954125
0.0765160808184638
0.0633285081125644
0.055320011264189
0.0544608958114611
0.0697818382708524
0.0722309676585173
0.0491925641557319
0.0521494340135371
0.0516601487528261
0.0621325883878134
0.0466938982030437
0.0524110795832139
0.0500572480037694
0.0593331111700652
0.0552140483732389
0.0537956625500128
0.0422154499649861
0.0690116275707335
0.0501085710914318
0.0526897879936071
0.0518991091790383
0.0450412223220572
0.0649544972410198
0.078527994294989
0.0559419500668644
0.060261779657589
0.0447548950092979
0.0589729038008666
0.0532522483574103
0.0554838592273188
0.0513407732255885
0.0558012472992485
0.0341789078051269
0.0991257742752118
0.0478114864884924
0.0696540767486354
0.025566145104678
0.08721542154344
0.061180053632448
0.0708469553825865
0.0445760791095811
0.0605635322661019
0.0377256280273254
0.0575155778811717
0.0794579932295206
0.0696716811952654
0.0397672451208992
0.0804738528604903
0.0616941555651727
0.066593996402467
0.047721664598653
0.0301365553511918
0.129873251563872
0.0680780387903796
0.0424385974687141
0.119437881276025
0.0562060919860243
0.0792341975597821
0.0473877029124011
0.0199270246409567
0.155521942753869
0.107390004036945
0.0576331840461717
0.057219046431306
0.0700713553778743
0.0458432672364067
0.0656219726760908
0.0557554924101155
0.0736838444741695
0.0724244231619793
0.0753343871685097
0.125071901588184
0.0321252077230652
0.102828714245001
0.0724859769961288
0.0733170092662026
0.0469960169171834
0.0642837609175661
0.0412852444263464
0.0750194754071372
0.0589331092286846
0.0757681305056508
0.0529217116999693
0.0583682457930316
0.080434055948475
0.0688042761737335
0.0566470431017542
0.0656132255216225
0.0699663505487174
0.0545256569143367
0.0614248314569445
0.050334983300512
0.0738986774276159
0.0538502728188795
0.043052791517759
0.113206996249076
0.0611326178896726
0.0641454106713662
0.0844051501327745
0.0629855348969816
0.0556619244254831
0.0524940081328944
0.0526096183774777
0.0550114475795982
0.0536732505727795
0.043820700845155
0.0834621608084531
0.0657990267845713
0.0590191811827797
0.0543858529903536
0.0567562680099098
0.0635152114737032
0.0618007474948988
0.0622129253985749
0.0587878449444545
0.0608524684060247
0.0488090309045704
0.0739220725510443
0.0929973325520563
0.0477571906377133
0.104177797722489
0.0936509054826014
0.066065643777762
0.0608449307937219
0.0590097479939569
0.0736706553885639
0.0553581248190406
0.0662895617133273
0.0545492363055311
0.0644074498365587
0.0715901211621391
0.0681740702163088
0.0653354310988743
0.0729607343428947
0.10748095602126
0.138100204246243
0.0770620152951067
0.0891117077588879
0.0435866830320944
0.113512676767882
0.080823879594483
0.107853821853391
0.107805736179726
0.0783288630105852
0.0904224368716484
0.0681343761807714
0.0737822334559443
0.0759653475467538
0.085940190827459
0.0743588571859437
0.0888075456968356
0.0699198480938541
0.0910077191216455
0.0775091752275278
0.0886280738507223
0.12265446709996
0.101547420997641
0.0895139047215011
0.104147387553538
0.0724233165742108
0.125981041100014
0.0944385050790944
0.145807451821043
0.12750093331329
0.125290244151151
0.15193846640365
0.0997633812735958
0.117920959016771
0.096387697225986
0.118747197843775
0.117548267259078
0.115317674254347
0.109704837464826
0.113582519460904
0.116673999472724
0.121669229853867
0.11466452506808
0.129633202174486
0.114602727332979
0.157566535067762
0.111897476173629
0.141607494328502
0.112575699012207
0.152046496698731
0.170133736891444
0.193936436881919
0.140420097512481
0.157923482509774
0.141343257027601
0.148456616941648
0.140043574150363
0.149595268654088
0.152881263698051
0.150014175608454
0.191072018089185
0.159286237371733
0.179034877717012
0.196441942350479
0.147345703468319
0.197991536876649
0.165631934141054
0.193963095272643
0.187196359938446
0.190946410191995
0.157560652936182
0.213540335315907
0.180795969647216
0.190714775424825
0.206357912222345
0.178144165176591
0.191674739075674
0.18932511182834
0.198433483511965
0.185610123284245
0.207296057948661
0.215553057348488
0.192463488124946
0.214383570509914
0.20182672412005
0.213755334058538
0.24014565015524
0.235724660205225
0.219442027579508
0.24760183158814
0.221732592715758
0.240371568797408
0.19580593428322
0.264924206618552
0.235681671346902
0.249134598197463
0.25679306962186
0.233519826901518
0.242516236435872
0.261112170131377
0.253121020300235
0.259908377393113
0.246233596818331
0.263682243275367
0.261695455004015
0.268570291019569
0.273999312739482
0.27796899052876
0.277137942502091
0.286910318742314
0.262147564650937
0.275691267895048
0.282344817387073
0.298811975932923
0.261710999097218
0.328325547857508
0.313862204135299
0.323269066561772
0.338364343823587
0.314552911840578
0.306774828490157
0.320412485924457
0.320922732328473
0.321635650868662
0.336279734255723
0.32820570429584
0.330650649576536
0.34047937283159
0.34284924459677
0.349093685489062
0.354351059778512
0.341604942138709
0.359239842019386
0.37131639462654
0.366010549845642
0.378290024517644
0.365614298994621
0.371872592024572
0.388574903923201
0.371795137876616
0.38342007801387
0.398352090906065
0.370794803350107
0.406444916275831
0.39062373441003
0.407938436571204
0.374902203266676
0.416807551008283
0.397040385418808
0.412574471635501
0.413942056150579
0.438264527790683
0.415474919231636
0.434628123525522
0.420595825485132
0.474634150283381
0.434403236996048
0.462054151214243
0.447062449676719
0.484496020836196
0.453742568195425
0.447165989167903
0.458945110247385
0.485455755583575
0.453989592415405
0.473080024132388
0.470501326133161
0.478690481827744
0.467852427898895
0.488941705317817
0.506595777215368
0.521401052333324
0.496258087822001
0.49907491427311
0.485672918461554
0.537771270745671
0.495489290265489
0.537554772899118
0.534144156661326
0.556505218340443
0.526715750948251
0.550775770176528
0.497809008477223
0.574207061990309
0.528965818911828
0.561809443004678
0.539088613618081
0.590885262977275
0.552253524420783
0.582462952467151
0.579998685573672
0.584834835916508
0.577860455072192
0.582057457324365
0.579591774402834
0.598235170573458
0.571102288198096
0.598182304005014
0.583828201524548
0.617901028585438
0.582464896111784
0.619122063931746
0.60919763950878
0.65792714569865
0.596532321435573
0.660259399985994
0.635800656568923
0.62335697131652
0.638432209759149
0.670635950636358
0.622969302614665
0.672044275892412
0.679441050434314
0.653496643155647
0.606473294311979
0.696697433654608
0.665531940453426
0.710397893831063
0.665009673452344
0.684364808735442
0.66012787859698
0.7252518369258
0.700755534290879
0.747905873190213
0.714370803191542
0.71528355694795
0.715505254496191
0.765197351169327
0.746088146833631
0.74513571731224
0.71914045438229
0.747736614767115
0.74027338743011
0.788300201501086
0.707510116551909
0.768519808910194
0.756640100066352
0.771340155206011
0.757047266107524
0.796836654333181
0.739022609033912
0.758189254348722
0.797122511461987
0.826765075443397
0.767584364162387
0.807766695108564
0.745473186820345
0.823601566784893
0.805507644678038
0.830318050281208
0.787598230350776
0.848346941849544
0.759398368976779
0.802496504652336
0.764337558826158
0.82328222550454
0.831962669797613
0.837814758972647
0.792986623542836
0.855868103160439
0.844269948295154
0.851085551083501
0.842083087344723
0.877541717729708
0.831620180385086
0.91797072004821
0.851931567338258
0.898294237427254
0.855293519155433
0.881877046835152
0.844949308610337
0.845710936317018
0.846339329360104
0.951185053598782
0.867910064525887
0.92763928714464
0.861034223090915
0.94786240729289
0.889271605539141
0.919878982587176
0.874020227005533
0.933310177255643
0.889856572597947
0.935134915711847
0.864197445625679
0.890627821552842
0.882479885217797
0.97247839809138
0.918342983758027
0.996363403948554
0.896049106125217
0.954963554593033
0.924953888928903
0.926700716952104
0.896469503658392
0.94677576444276
0.914847093177052
0.984785468362753
0.960414171943584
1.00921514734991
0.938234125836527
1.01211407261611
0.886024297277289
0.927503353261984
0.906803703093601
0.948312870829525
0.972721913459842
1.04954126012518
0.986906391577795
0.990440605238716
0.946896272515433
1.01936792728068
0.988795369557092
1.03892671898808
0.976900000614725
1.07008367817176
0.997151771649178
1.01046961067932
1.01162246210032
0.980923991025546
0.94407473934692
1.09190077550727
0.972817877422596
1.01536674414108
0.99749348251348
1.10873656636231
1.00113090006876
1.02080189740363
1.02158090150293
1.03047667476052
0.972962720434336
1.06880008059691
0.982781589024925
1.05488351520466
1.04406375386258
1.09056906196884
1.01447137505241
1.10863619680751
1.09777592037936
1.11127819285555
1.01746095127507
1.05457522209951
1.07513193714626
1.08079038954358
0.986334358340454
1.07655758544304
1.01292468789175
1.04251670908461
1.01597339098149
1.09020635085879
1.02891896095578
1.05508828656954
1.08217133456214
1.07451141677107
1.04013891890988
1.110547839144
1.02054891861503
1.04777794762666
1.06647246329078
1.07740482135821
1.04172395958607
1.08669316010026
1.05964712504416
1.04566509719662
1.11407839297437
1.05691758742275
1.01628102111546
1.05199000633205
1.06785607282821
1.06199281805649
1.01884656740085
1.09211664128015
1.04874041047438
1.11363438144091
1.04148151040639
1.07313954616755
1.02334235649133
1.08035448978277
1.06348367797312
1.08829437490453
1.0477583580103
1.08895386266435
1.05451434515442
1.13649932110294
1.12054812559138
1.10875297601315
1.05394720972921
1.06693532669695
1.05185928559059
1.11811128930014
1.0272063598156
1.07246891119674
1.02804837573718
1.07105819304476
1.03833918329724
1.05588899995472
1.05345093337808
1.06308508844858
1.04696859403472
1.07782174503634
1.0473333279495
1.07744959600133
1.04067567294953
1.08758209747624
1.0350273794311
1.07605010519138
1.05267737553587
1.11929410823605
1.02419296089903
1.0862530913041
1.03805381720492
1.05344978498402
1.02487462737296
1.07010430113385
1.00641160765046
1.05634150038959
1.01517782838912
1.08887574549112
1.05523205838048
1.10402904953717
1.07896980839021
1.07739780917936
1.02080194526945
1.08262167407996
1.00129003040947
0.99981406914586
1.08136533440053
1.03811950331368
1.08310119655909
1.07490452497485
1.00102662422629
1.10586681714183
1.05095564405804
1.00190828530142
1.00724184931727
1.03007553846027
0.999143205790354
1.06027434108351
1.03788948591101
1.07784746911817
0.978669419363833
1.02428233028558
1.02937323510232
1.03073361330025
0.992138518954305
1.0086434498986
1.02131511189028
1.02733982308791
1.01893170191523
1.02054135280522
0.993439207033019
1.04893589530639
1.0042492242123
1.014821361105
0.972992879934356
1.02818677390788
0.963025387399081
0.994766730972632
0.947010010355386
1.01363857498967
0.985618970620212
0.985265324316701
0.988476550546331
1.04275083229223
0.986740943992968
1.02129600076701
0.992418709797051
1.00957811418287
0.958093854779353
0.969623474018906
0.998584816868647
1.00154646771971
0.961298832416842
0.975057109892005
0.967704801922663
0.979168286887021
0.974957635208
0.990352869871619
0.971413536171405
0.945183886336921
0.953569106645908
0.969751440308236
0.922331342039516
0.955552263867181
0.944345590228349
0.946436607994511
0.931004810467829
0.95701948221766
0.910957284234553
0.941978525219614
0.900865728174555
0.941876456539439
0.918598302760238
0.956486650845095
0.905941689514037
0.927079723885936
0.928778702254209
0.924959330369052
0.895877640757037
0.910705352691602
0.881027740960921
0.893794566419574
0.882012996421284
0.884201374281417
0.887611598247947
0.91526816738423
0.878545657323096
0.882381553713554
0.842761649829738
0.893255967137776
0.863967453674521
0.870578526896658
0.827943052398802
0.865745714724078
0.855405757514365
0.866101393762105
0.823290547055805
0.865752675912139
0.822636801151135
0.842512984037471
0.822300352113098
0.831232774270395
0.828663956070173
0.829191529486536
0.817871078940406
0.841926536243817
0.797148917949575
0.819015552461369
0.81582064518281
0.830211294712783
0.786537107796118
0.809325140938298
0.780726710494472
0.805164328688637
0.799113429177456
0.777156227398604
0.772818405641156
0.789472955056288
0.759425608239919
0.774633465826019
0.773365986176051
0.792486901028887
0.757859414973232
0.761046025860959
0.747925993867169
0.779167274948312
0.767589658861449
0.754942944057385
0.738627440115478
0.730663799497091
0.72214481466308
0.732472142725039
0.725735689247864
0.726516413264939
0.704695570801651
0.709638303338275
0.688284377705386
0.709331419631298
0.697032680926444
0.705449095336947
0.691317614398583
0.705286379880902
0.678405551863956
0.706014382439489
0.704224304616329
0.68677568396752
0.684614986476511
0.68655942154104
0.664146735417576
0.678384149958467
0.657472972429129
0.663457161160908
0.657703027090958
0.662314454860192
0.650710679916463
0.647470315177146
0.641426006803875
0.641948733437846
0.645068968676103
0.641034089951505
0.614423554959339
0.622879852306373
0.620497577934626
0.617259541115859
0.620447542783154
0.623098145087169
0.608707123432487
0.60701952472496
0.611974411532962
0.615036637179671
0.587502034824797
0.589805030855258
0.592199038291797
0.598756498424535
0.590524681702135
0.581104254370125
0.576929563898662
0.580203041784212
0.572089275532207
0.56592577250414
0.564610958494347
0.566093784940352
0.563566076294334
0.566736352276624
0.552795103946089
0.556323489927203
0.550857531532843
0.551970916434465
0.534617182923708
0.540364100226154
0.542897017089872
0.538327523208619
0.529035262230562
0.532908406799291
0.52406188454438
0.514550374358595
0.515092127967123
0.520428258977104
0.513615086219937
0.510616081748834
0.501518804761497
0.513782761115951
0.510368576850234
0.512625920040352
0.504070242521269
0.495579555409733
0.490316747873753
0.492851239883252
0.487240381714957
0.486333587051267
0.488756208528584
0.476403051701283
0.475896261118471
0.478146772774154
0.475012796136179
0.475202617420087
0.464188072653925
0.452311183455243
0.453368363233423
0.455229787942403
0.456713059761478
0.446043125527982
0.450507362129096
0.454260288878208
0.446238419376652
0.440309989464788
0.444566807152426
0.444021264488326
0.443597226289345
0.43696170681765
0.439724667210618
0.435304393289493
0.425116704157946
0.425437315350618
0.423206513457773
0.423908154683692
0.416164290694072
0.419624451135746
0.414383035120773
0.412273486062569
0.409668213082686
0.406880446693301
0.408307969216636
0.405615038395752
0.400937633157141
0.400098825796868
0.401061405157259
0.394742558090218
0.389192718857603
0.38818227555611
0.385611401133694
0.390062335040683
0.381578297758681
0.380431862224635
0.380488986745573
0.37632991398693
0.373408001012304
0.373490135323482
0.371575765803252
0.367283231349105
0.363647568524971
0.36000082955551
0.367284449241386
0.369448849795724
0.357471967131534
0.359612069768908
0.361538519696274
0.354627864128322
0.354561193053601
0.349160231229888
0.348461868907158
0.351041405577135
0.344401453203986
0.335863485418392
0.340776378465621
0.336465052281441
0.33703138126683
0.335442552940434
0.33331732961036
0.332882137595039
0.330255965678237
0.326291140835298
0.330935916948754
0.327240446556082
0.323351008705989
0.318609785833394
0.317489103368291
0.319291940047816
0.322077151158607
0.321781564405315
0.317660285671776
0.306476210671209
0.312385419204549
0.307557447082865
0.307190265708155
0.31185681844491
0.303239059980751
0.300959284566701
0.298722126609103
0.302988489738304
0.301402865808157
0.30244669864003
0.300206677027389
0.300067715299268
0.301878842087111
0.299287254745402
0.295905051589167
0.293798464786726
0.293786764044325
0.292314402694686
0.298675146754944
0.295564464929391
0.29368008235062
0.296026634136126
0.293514705729093
0.295106528246079
0.297083261188545
0.288270588535619
0.290205252530214
0.293172316173975
0.298455168702139
0.295904601069491
0.295118877164688
0.296822893444018
0.294954432641473
0.292613395557484
0.296846415674184
0.292847503021224
0.298956356703574
0.302559752515985
0.303712618617897
0.303998680593717
0.302813309329372
0.306458022155144
0.305102607749789
0.30483996351771
0.31006296247752
0.308983475606773
0.314463760805121
0.310839647952871
0.31333718530299
0.323008816219969
0.325574505720716
0.317348243275716
0.316422656710854
0.324843968360019
0.327959234403423
0.32890191946881
0.323935456684377
0.324159939768127
0.3303425593984
0.332375421403296
0.338903196528969
0.338076283960964
0.335564985638961
0.343479717782467
0.34121483527849
0.341791081966568
0.356462193445504
0.358072434929727
0.357940374437952
0.363847484674405
0.360384951545815
0.363276925508332
0.370562844402607
0.370974542462724
0.380335968243283
0.377601559961524
0.381070721859722
0.387196371377289
0.385480008618034
0.384912911758852
0.395164295510897
0.395646838584909
0.394809686461294
0.391716234808139
0.400221951747727
0.411740697029792
0.403697966812218
0.396832719622152
0.408567346775636
0.413355059422091
0.409344947604417
0.411520305388796
0.407707727131212
0.40579187036189
0.418344450263077
0.400738567490538
0.401970421887903
0.410962340252632
0.405622889024905
0.409522788386859
0.409000648705036
0.407020082198128
0.39997373614272
0.399000404531723
0.403426964972358
0.397945727815787
0.401794522589707
0.403611544485065
0.400823208914166
0.395230185193282
0.407150408896819
0.40276827133805
0.404482881814999
0.398764534632914
0.398964611106641
0.40203870827589
0.404463986264278
0.402598046784181
0.402654036868284
0.407531644100342
0.407652514734582
0.404469788772568
0.40335884881728
0.404112980981401
0.411001981086575
0.406168111164215
0.407131212707776
0.403144734841948
0.40274825032022
0.407122130471322
0.404432482304528
0.400373068007247
0.408989441059831
0.405232832306833
0.408812429774385
0.399688155423881
0.404241476537342
0.403172138873316
0.398363483683486
0.402091421607944
0.403518235754508
0.396150781090442
0.400231237073516
0.396273880630886
0.394249836689578
0.394502003630696
0.397246646824286
0.39105401475762
0.388863450562038
0.386601539752492
0.38397950213091
0.378927405093554
0.380226055210227
0.379126390907866
0.379250213680309
0.375351873378533
0.378291113101094
0.362450254804534
0.369406057417071
0.370587017533099
0.364160063160024
0.35871508077893
0.354113442556011
0.351716211893507
0.354840018429842
0.350118286244952
0.35225422659972
0.342943109868182
0.341086722663101
0.338223917940692
0.33385881929821
0.331576277613916
0.336103077863148
0.321455144289653
0.323802235565694
0.322159533334497
0.318387776629777
0.315818737380168
0.31904406593381
0.308485810159004
0.307236429866894
0.304582913319173
0.302965651974192
0.302400077803886
0.301217188951243
0.29949439661213
0.303442442019528
0.295381675593597
0.293995969313823
0.292201187215917
0.288594645103706
0.280428006104952
0.283397507069247
0.278162777115705
0.281534638821104
0.277694761122728
0.280242627165737
0.275946944611296
0.279284794717506
0.269554360038482
0.26733091450597
0.267391033075198
0.271471542367116
0.267051187481392
0.262641965466001
0.261625778869157
0.261898837531597
0.261380292704898
0.26501434251956
0.258556336560051
0.256803778816277
0.25621965350749
0.255336853100845
0.2509404235001
0.254058539302397
0.248503552150288
0.254221090413324
0.249547368744167
0.24654513520542
0.247384241716917
0.247769710168491
0.247407545349972
0.244979341446701
0.239976176045322
0.243913078838715
0.245211370289148
0.241934675345915
0.234506210419282
0.23722282779657
0.235949477787248
0.235294999887449
0.23399531980972
0.238144173178081
0.23141687791043
0.236079251683173
0.229425736117439
0.225911657924036
0.226934328029364
0.230804658744366
0.226067852856651
0.2274682372085
0.224216014438065
0.220143954877615
0.219217519635232
0.221939923449062
0.219656175148266
0.222003335033828
0.218825303263356
0.223608298492976
0.218987922007906
0.216893665969576
0.216795982132583
0.217206654053006
0.216355375818204
0.218290932917847
0.214260539405751
0.217766647208873
0.211750254949796
0.214632346120743
0.211641883776902
0.209995281994843
0.210111816295238
0.212446202513875
0.204734130711536
0.208710271657009
0.207648515728865
0.210250451543171
0.206368174000389
0.208976009199975
0.204691794715123
0.208244292750009
0.20177048739288
0.203806464661299
0.203854174933727
0.201977350783441
0.199100003102036
0.205703302489066
0.199627529786596
0.199468157172908
0.198501484139436
0.201252454751626
0.197084736254199
0.196332534239309
0.194592649623261
0.196204817289188
0.193839614752
0.198033933036786
0.19631159074574
0.19846964393615
0.189269786157545
0.194065243330384
0.198421334165638
0.197213724795983
0.189684085392025
0.192809976930047
0.191861388474742
0.195568901858364
0.192165985969349
0.194909762284737
0.192312616297277
0.192671431661773
0.188912893555369
0.192078179284349
0.190809916806898
0.193820059434733
0.189504712958195
0.192608799532368
0.189506877458329
0.191552832819452
0.186839281624061
0.190310153762413
0.186421685942992
0.189086172050713
0.186615352821339
0.18592325370368
0.180828092614949
0.185874367087343
0.18473588718296
0.186026588309296
0.182013521060705
0.18445248995299
0.181825071111552
0.186688896512303
0.180997478177199
0.181445111120508
0.180757743206144
0.183171952851381
0.176155527966035
0.180592216685833
0.179745360900708
0.180292636448101
0.177650318007194
0.177312582490124
0.177498246598096
0.175158823496688
0.175748545396728
0.180841850210146
0.173848964876065
0.17836478510379
0.175082853139788
0.173623724647506
0.171058187324954
0.175366582737012
0.168886676952037
0.173570383135442
0.170736697285711
0.17045163494839
0.165671310286855
0.16995454296277
0.166550395146576
0.172330395433492
0.166002830099535
0.167591275595064
0.167401138117079
0.170263745393827
0.162472111852566
0.165151624947549
0.16195628838904
0.165864416553483
0.162623946329721
0.164339637622146
0.162988207158396
0.163467629022265
0.160531153425186
0.16130968460905
0.159853654463578
0.164298555282136
0.157573686345917
0.159548119167423
0.156050285430627
0.15989906582918
0.156644376312916
0.155623913093724
0.151424361449229
0.157285419527417
0.153785153499584
0.156253684832426
0.150729936763802
0.154593266227236
0.148499085131518
0.149107601972337
0.148910326879531
0.154668114463622
0.148102847315803
0.149453520274386
0.150258870703691
0.147930523534366
0.143831487698813
0.148542428284523
0.144009080584625
0.146894534068505
0.14317225861617
0.144850476697423
0.1405971685307
0.144744336144932
0.142067182473269
0.142154714207687
0.136597988952424
0.143076174152988
0.139203653970584
0.140925797175461
0.134306176732583
0.133711116773577
0.133466231946443
0.137358188263922
0.131593594720348
0.13272202829985
0.126454342632067
0.133741281821001
0.131381156130995
0.135095989390368
0.130648025981894
0.133998912278022
0.125154153543297
0.128659961081391
0.126436485551311
0.12899148005741
0.125800412334198
0.125518092703451
0.123431961761535
0.131118613520366
0.123604662146589
0.124916172796184
0.123059303100182
0.128290575234564
0.122519834827817
0.122849503113128
0.118785550017633
0.12397526824743
0.119257056095849
0.119672791350062
0.117002711993353
0.121432878707327
0.119284405807845
0.121646673517107
0.117090751859304
0.12180465426402
0.117050040148517
0.116888683560782
0.114436955369566
0.120648670933745
0.117805650089191
0.119451253213626
0.113148118107842
0.11627763414907
0.112494680875472
0.116633556510906
0.111150265005475
0.113062919786971
0.109649131100761
0.113707041703254
0.1106911669108
0.113558392742104
0.111263622566936
0.115210317785111
0.107180718096895
0.111844263671999
0.107273903614403
0.11017390482933
0.10657702818267
0.108659108974163
0.107328870354716
0.113693711266741
0.10680159867462
0.109441763125765
0.105669632424608
0.109834623368745
0.105622750178983
0.106441979025006
0.107230286904311
0.109539427440707
0.104154545407912
0.108367591725691
0.104046273837056
0.106005297362114
0.103123221639513
0.105390317731259
0.102404005906601
0.104766860410153
0.103723341199745
0.106240660296311
0.102533546409314
0.107388199217355
0.103472188028187
0.105456263213721
0.101677113444699
0.104054901199211
0.101304531125319
0.103690056644778
0.101610889612016
0.10520728846829
0.0984302656147664
0.102287492415545
0.100032916684924
0.101928450427334
0.0975928957815623
0.101145653428596
0.0995191504808888
0.101627556544215
0.0977329911034214
0.101131119633405
0.099372932709272
0.101337223617861
0.099699164427117
0.0991882933456592
0.0947396402009328
0.100333760261552
0.0957755878593286
0.0999759878304701
0.094137475049195
0.0987117233370495
0.0974946219018311
0.0979091787946458
0.0944471743268576
0.0992566074732083
0.09401886974225
0.097864652246506
0.0932129941028351
0.0966178162695415
0.0931982197530345
0.097973466380286
0.092754695668165
0.0965633806759793
0.0912022628397203
0.0965941818237791
0.0914002092633483
0.0954462590526626
0.0923862428101684
0.0925858728214411
0.0917160757062021
0.0950378023376319
0.0890840460367805
0.091466378061736
0.0914281808510162
0.0945539695022247
0.0897520854612088
0.0927992876228238
0.0912824320359929
0.0941169928975877
0.0901253857566751
0.0919658235979364
0.0890504099939239
0.0911686557972994
0.0875794387214821
0.0897763309812706
0.0872400999344085
0.0920390787654527
0.0883731982616279
0.0900813356097228
0.0880976643405541
0.0907816560866503
0.0864917066044271
0.0906558227683228
0.0854649736668427
0.0904831909551162
0.0867654754488087
0.0903361243116827
0.0836037778621154
0.0879648295396592
0.0847806982406246
0.0909808866284646
0.0849432228340578
0.0875459786455693
0.0856343221300438
0.0883032778159922
0.0821358635815916
0.0866436078354387
0.0828607325294085
0.0875977579875941
0.0814349694232782
0.085592556269354
0.0833879930464979
0.0832811443942466
0.0808281616012126
0.0860133539701937
0.079610125881903
0.0803392799477921
0.0814382783397131
0.084607863004688
0.077449829135172
0.083942475797435
0.0800800735667045
0.0811685561913298
0.0773267423542788
0.0817568927724752
0.0791688025923137
0.0813736827449897
0.0751010436124432
0.0789073388412922
0.0766564830264101
0.0808311405505061
0.0742358650315597
0.0790009460009761
0.0739825798734522
0.0784283381127958
0.0754022547477659
0.0750152958121529
0.0720575996952467
0.0754951389908212
0.0727302403745601
0.0789522872331658
0.0747909457359551
0.0765516797021765
0.0737479947268866
0.0778687534191364
0.0725716992425995
0.0744227998896023
0.0719223915537062
0.0764755581075586
0.0714776449810962
0.0744841669254115
0.0708983919797038
0.0749977972415437
0.0683159711461539
0.0721978081353375
0.0702257743133913
0.0725707434159256
0.0708281337003392
0.0734978334174098
0.0668216735641153
0.0712068916072594
0.0705667669360537
0.0720610358263642
0.068463830085854
0.0712825971046215
0.0658985279091183
0.0717339601773102
0.0654263831356587
0.0691502898252718
0.0659387194679251
0.0691285727396005
0.064172736377022
0.0694227543900549
0.063851665389085
0.0686002166438606
0.0642115778200723
0.0712248800621488
0.0634129263479752
0.069129041432293
0.0636751392195709
0.0685295361695793
0.0639649815470552
0.0661042844740764
0.062193034302583
0.0671402613759343
0.0631087441594838
0.0644434605185142
0.0622135910916934
0.0639678121286761
0.0589459974996299
0.0650518738919916
0.0600997404783833
0.0654634214565435
0.0616819138272644
0.0633666064714277
0.0619994860762105
0.0649580754462618
0.0622539494606662
0.0627304558442171
0.0596511713094528
0.0626427736864071
0.0600517425307062
0.0619713571154481
0.0596651629146946
0.0617309756741716
0.0587862410047911
0.0637604165889917
0.0584647651422415
0.063138462844736
0.0598606278464131
0.0628103481658015
0.0607608046840907
0.0626004347769312
0.0576362290064477
0.0630782432881443
0.0596861403967228
0.0612661923282439
0.0591196560650893
0.0618949740850076
0.0570102478920366
0.0635394334935861
0.0576475421543331
0.0633660624107513
0.0569117839715209
0.0613421871362214
0.0574780469279457
0.0622737921033166
0.0573839935764588
0.0615811665102859
0.0570405740636797
0.064859386130308
0.0527936949410253
0.0557856601022133
0.0512532519947602
0.0596656997615482
0.050773025205975
0.0561560355400528
0.0528435388749034
0.0602636967203799
0.0506144496934817
0.0580916143104884
0.0512407951685708
0.0602401256362827
0.0487342396145954
0.056705308342745
0.0469839730126651
0.0621565696616132
0.0517056685191093
0.0560463458278205
0.0544633550355117
0.0591029881119776
0.0548042735668328
0.0631252103675276
0.0497224727042289
0.0561348254618424
0.0504817167968185
0.0555989402046255
0.0428743096581868
0.0550016548532584
0.0434146838540954
0.0549260848009403
0.0462441845975402
0.0510254194757224
0.046454825488834
0.0553286560490181
0.0460239863917239
0.0596352302595845
0.0477229660709152
0.0603133072511155
0.0472281316969306
0.058300240350565
0.044307307989616
0.058332670162573
0.0520331894190718
0.0659970862393591
0.051025326360153
0.0522974717339166
0.0466549176301022
0.0613406050453408
0.0482745992377936
0.0560259059384898
0.0513468919034104
0.0610760173735305
0.0570615012888152
0.0549013343948321
0.0571738932076356
0.0560306640102147
0.0590685650602736
0.0520783144728153
0.0607452221191035
0.0514062327851768
0.0564160070528537
0.0547982422497768
0.0578424128737362
0.0562412411933164
0.0567451084168365
0.0553348801621557
0.0547398748037008
0.0571991898242255
0.0517063961279892
0.0586062648861923
0.0518695596791216
0.0559824954543228
0.0528967954891221
0.0540463124464321
0.0549474186682749
0.0551180656366818
0.0540101120344603
0.0542596924971466
0.0530685231235746
0.0540757448148288
0.0530753495428546
0.0548028416890783
0.0501498036884376
0.0537734088158573
0.048559079383209
0.0540017053179327
0.0547840326050654
0.0552931067294854
0.0534022145191347
0.0535311252414271
0.0527619367497629
0.0548859749228195
0.0509701348973474
0.053405340062773
0.0502290386000769
0.0547417718822156
0.0499657363592947
0.0537708700453298
0.0499919295683562
0.0537574301822846
0.0503339610757095
0.0529752611256602
0.0503294086897252
0.0555745159316286
0.0516009859643449
0.0530835924539035
0.0533047085397498
0.0561554533206857
0.0528121111574012
0.0541827328113078
0.0518495421351024
0.0545890935754343
0.049909179755945
0.0544286494209309
0.0511110551223287
0.0525255294630808
0.0526802880923698
0.0535228877026298
0.0511479750356557
0.0546845430056608
0.0526258489604753
0.0554186445876873
0.0509022731628701
0.0541948680846316
0.0501918662934135
0.0529802908290904
0.0521905643145414
0.0534855927657572
0.0509187414875539
0.0575901955732795
0.0518577192430754
0.0555441030733543
0.050665578380833
0.0534199247216433
0.0512958751969851
0.0536809019551842
0.0519036477305911
0.0564821731642963
0.0500210129536368
0.0536837176128816
0.0529221593269435
0.055246890346902
0.0510984803598982
0.0561912453188382
0.0515047740182999
0.0553827899749256
0.050486505446253
0.0559950362868815
0.0518364335845594
0.0551413670628821
0.0525621618563396
0.0565221604002037
0.0503717012785679
0.055297597541085
0.0519664835892395
0.0534017353823904
0.0499748975491582
0.0565203401068283
0.0533186778761179
0.0564736751949214
0.0533693605087014
0.0532782446181876
0.0493504754598583
0.0536392972308234
0.053211717110297
0.0549149627792653
0.0532049860134101
0.0558841123370067
0.0534377149448308
0.0570741992383632
0.0537640644844964
0.0556309958852536
0.052923401044809
0.0568103939608824
0.0520736626780041
0.0558659774770248
0.0558749201709864
0.0575013233128679
0.054838530719338
0.0582745843441866
0.0542274886436649
0.0571123369866685
0.0530102793799715
0.0580886353910668
0.0544791713020037
0.0582835280756422
0.0552725545822414
0.0580606147884092
0.0557403172158706
0.0547887157804277
0.0536111583973218
0.057693348724489
0.054057870350216
0.0576535647079707
0.0570643169056923
0.0577867143626717
0.0538228425987736
0.0547741706412198
0.0553239220921604
0.0585696078016692
0.055616176300971
0.058850699333094
0.0539525343826155
0.0583173618579361
0.0551850035610559
0.0593508371925984
0.0564991683405708
0.0578013853537257
0.056322558859881
0.057590764257957
0.0546546493186152
0.0581497123363516
0.056067391605274
0.0600951963566577
0.0545551515636772
0.0600258246439916
0.0563412380277409
0.0589167788468421
0.0583998992520757
0.0611356270385809
0.0558553852284594
0.0595325383057499
0.0556600192335054
0.0626120924510674
0.056490694402086
0.0609956690443479
0.0581619050698001
0.0610358703326938
0.055903335459866
0.0589306748820926
0.0580706444698017
0.0621272080518421
0.0592734069207838
0.0608517620080342
0.056740555213168
0.0614174555616793
0.056593387387697
0.0621438192509047
0.0582538646550876
0.0614695424305361
0.0560521487655468
0.0595107571476857
0.0554966552375977
0.0605341435671791
0.0563768886117354
0.0595772331935115
0.0565401220092862
0.0605655895190246
0.054197017498361
0.0584287089689514
0.0558011491608841
0.0612997715804918
0.0550012978856117
0.0591699308755082
0.0554741617329597
0.0598930657810071
0.0556548616988806
0.0567963585566479
0.0542029547651523
0.0609050620488397
0.0539482551389227
0.0601478386107286
0.0561398967584546
0.0570434904667486
0.0554336007458835
0.057508002245825
0.0545475678576947
0.0581078421279831
0.053902670962709
0.0586680038995005
0.0548834611182109
0.0561341253296112
0.056935833007894
0.0581389586115896
0.054293105146825
0.0567393551355268
0.0555485964217409
0.057409216622916
0.0545017396222957
0.0573464814396953
0.0530399058471222
0.0560816799775403
0.054280047817506
0.057455911992575
0.0532188611321292
0.0568643493006876
0.0536375439791672
0.0569146438169325
0.0536895497059082
0.0576640886716565
0.0521625742137804
0.0541622042788097
0.0542342689019889
0.0573706644836031
0.0525620834514156
0.0566927781298465
0.0524771729943429
0.0559856093882005
0.05547798108283
0.0551608966938495
0.0532066299085949
0.0566940673399177
0.0536168235488316
0.0567180765281456
0.0509281803518331
0.0567491641192514
0.0514976374085827
0.0547512677385381
0.0530766671290468
0.0543476549488378
0.0537912300996853
0.0559460511703295
0.0522685929702661
0.0548366852617254
0.0536055643773503
0.0534758192419278
0.0512526779343622
0.0548082893455566
0.0530545130843116
0.0553839804954984
0.0536214952863911
0.0541251535076823
0.0510383397905496
0.0545149514856951
0.0514314635262967
0.0532512634644418
0.0567694969843261
0.0561498819749593
0.0519787355231435
0.0548433760987839
0.0517440990280655
0.0594766103401119
0.0511485661996058
0.0534822046708105
0.05050792381939
0.0554946870699572
0.0507702541159271
0.0559596863873103
0.0508839297538397
0.0547178983602974
0.0516812971693603
0.0518617838492741
0.0505290876134061
0.0559338511257249
0.0529746988472556
0.0551221542122445
0.0507781291706787
0.0534292197960292
0.0498139377484107
0.0534876161219556
0.0480122877230238
0.0552607861175842
0.0526145129381752
0.0512277328958316
0.0511251145035346
0.0506875056355183
0.0484596629078453
0.0520507153677463
0.0491101992406567
0.0513759498482027
0.0497427385534415
0.052620009723205
0.0487792527630298
0.0496199670253923
0.0481513759994607
0.0524472227490539
0.0477891194146369
0.0517250127963236
0.0485671007329941
0.05111110155172
0.0482370415535314
0.0519064707067828
0.0469347196120836
0.0497407979729896
0.0461043497315817
0.0486996156328707
0.0473764367727483
0.0502983778298033
0.0510367671142437
0.0497138168784234
0.0478768980462984
0.0497379983775247
0.0454145150549827
0.0510829849973548
0.046742815749001
0.0465898879031997
0.0438688813309042
0.0467360601665514
0.0453871272034539
0.0490520298732488
0.0444188887129256
0.0477145966205754
0.0444449718592912
0.0482435964705296
0.0431401440180968
0.0456235772462065
0.0446185776220246
0.0460890904727871
0.0438589910569736
0.0465485245248925
0.0434834394387268
0.0473564529576275
0.0400882801715333
0.0458374400561776
0.0433192992329357
0.053548216872736
0.0464843302139621
0.0468974148497657
0.0436249089637894
0.0502885758499775
0.0425051898322353
0.0465975826219579
0.043370543994077
0.0462900224541857
0.0431054635871175
0.0450002942419091
0.0431165121562102
0.0474057904462906
0.0427447202419305
0.0475530494215724
0.043546867887005
0.0456973415472664
0.0413860107192325
0.0461427432749155
0.0424230144262402
0.0453378183192316
0.040701671019208
0.0450026786427495
0.0424019945122136
0.0469389150733381
0.040004969164872
0.0523042285516081
0.0468840754326839
0.0474643201237573
0.0403910532948903
0.0453993738121714
0.0390017705332812
0.0444302559657006
0.0396756567050349
0.0441812383209403
0.0412237651782611
0.0443753418848487
0.0402921243562082
0.0441675714287338
0.0439767112987232
0.0445824651261678
0.040270929800188
0.0431618411000133
0.0373823645134368
0.0447504719558423
0.0402543257114475
0.0444215355422999
0.0394748342445299
0.0427482320451269
0.042741267963344
0.0453171098201029
0.0385539060883073
0.0430963105232645
0.058920416750774
0.04418920213424
0.0414847056960599
0.0419637845441589
0.0400076789316449
0.0424037926567079
0.0397178910735896
0.0397192628598179
0.0405547031283644
0.039943778863986
0.0421045843443144
0.0417573639888602
0.0414358105913547
0.0412385995498852
0.0379590986425298
0.0415451939826329
0.0394425362394976
0.0412172370174751
0.0408960377743053
0.0398394668284033
0.0443804341139905
0.0525036546493768
0.0451949321802788
0.0415188385754709
0.0442055315973628
0.0370002743440941
0.052920349251272
0.0474430242118017
0.0395158981460989
0.0431942654728747
0.0387315305213659
0.0414648693436068
0.0396265528655428
0.0415054633888475
0.0361519873443228
0.0487526987812851
0.0366107748331224
0.0468624828526956
0.0391383127314855
0.0435194482862432
0.0364306600864933
0.044582163474234
0.0363179399534737
0.0430123436925173
0.0371832571192003
0.0399901434683593
0.0392780983819961
0.0399380619100926
0.0390237822101037
0.0403684325298334
0.0386945728489568
0.0469733075319165
0.0378959472017745
0.0431874589839514
0.0393217730665369
0.0405089175095999
0.0389791752452996
0.0624050826154442
0.0363201090817139
0.0451064806739917
0.0352027030699033
0.0429826176895449
0.0399595665005506
0.0427843121171917
0.0367652089715727
0.0421636164989534
0.0352085249622104
0.0424403663232361
0.0359191342065376
0.0407990436562054
0.0383856819017828
0.0399046896539423
0.0373343668189158
0.0404287500693065
0.0377190398314015
0.0391884568349469
0.0430603855087247
0.0390905863307725
0.0414631104091304
0.0624472951663991
0.0450412028443843
0.0552702641037469
0.0413476203547155
0.0438169595163122
0.0376975867278028
0.0449626753462683
0.0348384429786557
0.0471239573465964
0.0375622733591003
0.0452753987728654
0.0373441659096189
0.044612577390851
0.0356738114238879
0.0467043096982931
0.0349470794133389
0.0444732218046146
0.0324519208793901
0.0446734857149274
0.0335318110163469
0.0467444437294038
0.0313373134402924
0.0527601144283948
0.0378708199028903
0.0486740235680572
0.029725432807908
0.0639815932578757
0.06414772428794
0.040809049086398
0.0497180509559247
0.0380983922618258
0.0406911576697151
0.0391646001385031
0.0398624539767636
0.0461068492027563
0.0430166640957729
0.0422208374450346
0.0399595875136152
0.039159253026558
0.0436634361061291
0.0419979619585525
0.0369380838606844
0.0682302625073376
0.0466276944110334
0.047961714146134
0.0423230037669268
0.0381725489842578
0.0667573715773935
0.0437287579161241
0.0477408796579309
0.0445346250585047
0.0397988173617162
0.0419677550367915
0.0395427196008545
0.0427108238223899
0.0403342087827859
0.0493402319870454
0.0381689894336754
0.0459283431274986
0.0369497984918774
0.0455985497522685
0.0410746767511591
0.0548920419967102
0.05085164232385
0.0406936488992214
0.0445444529133977
0.0488762956863673
0.0424829706393269
0.0486807052440746
0.0408161142677184
0.0451538127108949
0.0459520817615893
0.0623581675139545
0.040061794155568
0.0565373661073573
0.0528183475604772
0.0428148045195111
0.0452058880204869
0.0509804991929946
0.0502572837938396
0.0463204090356204
0.0389127535769372
0.0851256755234411
0.0380423069642137
0.0749261153763826
0.0359339138353318
0.0578779885348805
0.0343394901229032
0.0531383545707396
0.0343142878173804
0.0636682237018977
0.0407635879376006
0.0514718893952094
0.042518107182339
0.0561710438835754
0.058497833287521
0.0498066517408803
0.0521404463969377
0.04679890267427
0.0450894698580723
0.0520028876931442
0.0559761627333549
0.0365392346843056
0.07432444411887
0.076327604850224
0.0638047477393241
0.0629983754251942
0.0372741923106777
0.0960153819961006
0.0471095114309772
0.0570238390354736
0.0484609956836777
0.0504563342851608
0.0517825486491078
0.0437120846490211
0.0735204973699841
0.062061380831841
0.0455408172825889
0.0644363565658806
0.0396121897395023
0.075215674100162
0.057991518313847
0.0570063008419448
0.0479615629187032
0.061599908693161
0.041181597021632
0.0896273816601114
0.0740622959315002
0.0570752965960874
0.0864352957671712
0.062434623272817
0.072498642159593
0.0620579457296755
0.063999957410948
0.0627650056521742
0.0775549068516804
0.0629989083513169
0.0567969896833831
0.0629441522184085
0.0944461287272407
0.0552942740235827
0.0732242196602771
0.0614945190371256
0.0609688368999172
0.0899683739177613
0.121628803946901
0.0885877557971859
0.0786699539462141
0.0652293339926092
0.093769418988118
0.0764446587781505
0.0702504487058927
0.07258032972305
0.069704675992908
0.0753441373027982
0.0720234039370436
0.0869099666620419
0.076543574780213
0.0732773067764298
0.0811952075190162
0.072223600384163
0.0933546762138142
0.109751159598767
0.126197005359947
0.0805499140845714
0.126113823255735
0.107879903243554
0.0904540626989785
0.0922067433907201
0.0829936756242036
0.10234629310231
0.085771450921172
0.0947435526885032
0.0841822616877264
0.111979499777958
0.110090772550353
0.0899999040577082
0.128806002528185
0.0908397516589128
0.115361873012071
0.0604199738126406
0.285846466465582
0.126767543702463
0.116293574761356
0.129286470056283
0.0899842332966683
0.206444066732606
0.126435736575788
0.124237493790791
0.126465901436841
0.128928291585422
0.130495043711565
0.144755095758811
0.140724027922203
0.153087357095111
0.148344359210107
0.147213485505037
0.152705849842888
0.221019607611282
0.192394808660097
0.195047696655796
0.161275990455166
0.191528794415439
0.191029903469961
0.182821278485839
0.182815194800426
0.196759505728103
0.162067483401219
0.26602012282434
0.193432410865978
0.221400218116602
0.201983549861726
0.258281905152162
0.201298174566788
0.261305681244433
0.259079220627725
0.234337687434529
0.241694338233
0.235630766495957
0.255979138667779
0.234376081908331
0.28869073568692
0.272827856545131
0.255103916136182
0.273779229808062
0.259310358572799
0.279132694616908
0.26629540657422
0.282805856195281
0.267536641608642
0.328504987416275
0.286967812464596
0.39234000343427
0.323485779959923
0.281578168232423
0.305891210033846
0.27475362053182
0.327974508046417
0.308737757823597
0.317651093704038
0.334120514965072
0.28429956733383
0.303152525458107
0.288797429950145
0.299774503294177
0.284831907226224
0.306758048976495
0.279557843283766
0.321828665187138
0.302970577669155
0.28645909455694
0.382533070419334
0.294832832579273
0.302995170361779
0.290468960498185
0.291198623635797
0.289737765577323
0.299644309296552
0.279533556276441
0.321098369038387
0.283611033355016
0.29797812505007
0.27566784965739
0.29983214763369
0.311098431734495
0.274469007606809
0.294734358044634
0.274487346138996
0.28573644341176
0.280054887128733
0.257090637649658
0.3403375461182
0.269289718154214
0.278063250260471
0.269690720184936
0.261238576775014
0.261581245266751
0.258297421597511
0.261881607918198
0.269744100247823
0.259370399149138
0.271585376099197
0.258973969192972
0.261972569626818
0.257219173602722
0.258834971271217
0.257884970862988
0.256073018695633
0.25929914299523
0.250824555165272
0.252150673015288
0.251384587288622
0.25629759148098
0.253459643633608
0.256677538534684
0.255862755886125
0.251281634642656
0.252471928098589
0.254343739291406
0.244012256635332
0.254847236269361
0.242076773375155
0.249729927214126
0.240437786125361
0.247990074142367
0.23860871989717
0.245215642722251
0.237373159118666
0.246618607667694
0.232692900100319
0.243262409448376
0.226027699384856
0.249880052753963
0.226467848380757
0.275733425617972
0.261802466285101
0.222734203102947
0.241520832030473
0.218345309750718
0.233724747997933
0.205134587284217
0.247708058890754
0.247610170441959
0.214265360594221
0.215981289165899
0.207499677906982
0.213181402226166
0.228073129100834
0.194952551599921
0.217025128071594
0.193505403746649
0.192507097084208
0.295345435345985
0.190926104472662
0.298816109773526
0.202168393895433
0.204786962483811
0.171581143679064
0.245558132106071
0.172188037250127
0.197293561912639
0.179021163245305
0.218641798009166
0.198312962089737
0.169766053609434
0.181062037590711
0.167096996731389
0.18017225422296
0.200799724473115
0.179287889554976
0.173819217284337
0.224802917452684
0.184101640955712
0.211298456531238
0.214020578350358
0.199664070727686
0.163274253822125
0.162633740212605
0.16971787364637
0.143649611406103
0.225172417868527
0.16564449726538
0.170804835500952
0.160625164367033
0.142956984091298
0.158233499772192
0.158861872612487
0.179764835948265
0.134792802328965
0.20164526779818
0.146240164625793
0.163544637499783
0.169872258679447
0.162884576154884
0.204122571715043
0.15301778630862
0.153462268345687
0.15104515231633
0.198533817406184
0.143888906165775
0.166804725166168
0.144456821649057
0.13469926605262
0.168071878401007
0.146224292797339
0.153504068637277
0.168720186798714
0.149404444587527
0.205255202218121
0.185171707837967
0.188112088597173
0.159215019990797
0.139838596871686
0.148169795855212
0.145651722252031
0.153922292452165
0.144645940306246
0.147281066826092
0.177586968193721
0.119087856130397
0.212556223273487
0.157411292520417
0.152750628847245
0.153834522048156
0.157499358459701
0.159644366410553
0.188288607945349
0.190041359944454
0.194603686632458
0.158371239181212
0.20916368458259
0.165515062972574
0.186876234075033
0.167680590249097
0.191766055206704
0.176572001650283
0.202219352623489
0.192969990108542
0.201938082357505
0.197341904792241
0.214889354737796
0.195777621103445
0.262940085596016
0.197950728300939
0.258315675092041
0.235514137204859
0.281234917106348
0.255913820080699
0.23669058076454
0.253440766707584
0.246412484036204
0.253770773578838
0.261435069439151
0.246026874289165
0.309855248664022
0.261223494659115
0.282285005414501
0.269468225557741
0.286823273367291
0.276054003227846
0.309319631141238
0.314267772078636
0.312189392959916
0.358705232729207
0.298922275636678
0.310623363145935
0.290716944692208
0.308921643056445
0.307854480570369
0.295264779932893
0.310773605712777
0.290619417430827
0.329815512486169
0.310339905304021
0.306944564594314
0.316615785437592
0.314161734195526
0.316596802998675
0.322076820088063
0.320261726985281
0.326150016945551
0.315466456700713
0.340572341119967
0.300937231433355
0.394009366078943
0.353039863811309
0.335340351844391
0.35233789019286
0.341108537933661
0.354500847932534
0.34056943399229
0.355621111788713
0.363478523141678
0.353083271628569
0.362710586885263
0.355076739463915
0.370276453940308
0.364782691944138
0.396686332583435
0.365941580370509
0.376218851221857
0.376656962269772
0.354904227692104
0.447255336254302
0.380759430420031
0.408713770342293
0.380783284708365
0.394700938641027
0.382088874555237
0.389044267232504
0.384065687679141
0.390109390436539
0.390183497496484
0.385876188805625
0.390260643778362
0.380601611353423
0.388446353761866
0.375213676106087
0.409363905356566
0.390940705998628
0.381809689129519
0.382003158767881
0.382465020559717
0.376568961525864
0.39378784742198
0.40639218993483
0.379637396109402
0.396101098256191
0.381290262140855
0.391008475656037
0.396238940544706
0.37963370812057
0.385680181492058
0.384513350316424
0.378104210927615
0.38868648019678
0.377022229356147
0.417515421025885
0.391336584469417
0.391174078174959
0.386507794469273
0.395730392648716
0.397480518017576
0.403138782104324
0.400350975759337
0.40894306177358
0.408760039519215
0.409957939061689
0.407915503558824
0.406348263166237
0.422327572878849
0.412084628132721
0.412233672335071
0.40681768036397
0.402304478451673
0.405492043672927
0.39797818451567
0.414724696051596
0.395695435878593
0.398471376392147
0.384144613999313
0.391709249570965
0.373745244766946
0.412464338708261
0.383679162780368
0.377198562407486
0.38358859788354
0.36426581719471
0.371766995707732
0.358335210048017
0.366135020756173
0.354336681352603
0.360755772235864
0.353499495241827
0.355455164923877
0.351384529525102
0.35289363958871
0.352745089454807
0.351771805121247
0.348653786808188
0.350927051198902
0.348925771857378
0.345498979457561
0.346370223124378
0.346315630254501
0.344917503949841
0.34543759205209
0.352892908027029
0.363088200127417
0.359218852165686
0.359529945611649
0.342184668328132
0.350462569726651
0.337038676565657
0.346260586536092
0.337556572590012
0.342846192846972
0.339613795300056
0.345850174466617
0.338490864090763
0.344457553986264
0.336280852555984
0.341081484018796
0.337277876721536
0.340303217795505
0.335218387310949
0.337960851774137
0.334137563789067
0.333666645620102
0.336808489350996
0.34290665810434
0.339516441847399
0.335919385820829
0.340189897901679
0.329317479540009
0.336736122802693
0.339627204785052
0.335601046766196
0.33473824808222
0.332691520305202
0.33389271418138
0.331636675738074
0.332454577382636
0.335080139584621
0.332396553329906
0.330888691906886
0.327120113185057
0.324751918815292
0.325128333211637
0.321665374209585
0.318805441580622
0.315707659368281
0.31154319447135
0.309766955767089
0.31324074232078
0.3101871843799
0.301426926455714
0.300360244058453
0.300072012759192
0.293628365286089
0.297789615277415
0.291721549590063
0.289236279525949
0.292202353417407
0.290809878580313
0.288023501551867
0.285300522153458
0.284560599466463
0.283705184640484
0.286556869959074
0.282260149743911
0.285151442082736
0.287160550926914
0.284593221773134
0.283092945017367
0.284173820339943
0.28423636387084
0.286197385181697
0.286918914751717
0.287082213486766
0.287171097530605
0.29282088518549
0.292831020971296
0.295371968043083
0.294588358132513
0.294030077629
0.295089768323033
0.297018106650608
0.299694191940279
0.299974421037033
0.303477539513816
0.301615871030434
0.302639680625365
0.304554547784616
0.30457832501714
0.299858548146013
0.303620614684348
0.306186068451697
0.304732679901066
0.300894013657656
0.301543662071328
0.298496400591753
0.301510037301962
0.301083743400585
0.29749004588013
0.297458588419739
0.297263726661881
0.29843906131572
0.293325712697386
0.292296710677953
0.293353513526185
0.289910948793697
0.291962085681928
0.291605882028971
0.288748687577873
0.290843743467616
0.285904806571066
0.286616372564843
0.286718078183972
0.284600167001731
0.281368793614693
0.282245181818413
0.283541343738988
0.283957159919468
0.280565512736024
0.27889012917555
0.279995810711784
0.277401144210338
0.278781652608012
0.276984007422552
0.276440257954075
0.271937733695878
0.275187160294266
0.271662109151334
0.271074383399213
0.268911308385929
0.269459689386485
0.267196062337205
0.265087479868376
0.264046668760491
0.263253681058786
0.262383625174963
0.260208566001768
0.25684404532919
0.255150474435978
0.254805323820481
0.253819577739256
0.251941976529906
0.249740630306327
0.246998880043618
0.246003619895301
0.246213013589224
0.24676126029375
0.247218197054816
0.247381739506465
0.246066283084755
0.245404685233148
0.242699430305088
0.244829585410814
0.242443931276667
0.241166276979909
0.240523125777341
0.237774496524624
0.234872056312254
0.23360572257954
0.230898292236795
0.229055110081712
0.226260681828886
0.223380090145916
0.219885145992246
0.217273129095655
0.213575718628984
0.216027892959894
0.215341612718586
0.215715873881488
0.218749293787695
0.220889916861475
0.225288216802249
0.230639894265239
0.236399227871554
0.245198242456279
0.254521355280934
0.261140175623019
0.271903307224454
0.282404402793034
0.2926013922954
0.307304059735303
0.320145827960637
0.329611969340347
0.344477539563242
0.357592595529067
0.367900082100569
0.38234220751651
0.395555997256152
0.408489125589961
0.421124524092628
0.431844397740604
0.44305856474115
0.455540949925371
0.468849791762659
0.479582367359929
0.484992435338908
0.501017047525425
0.509516718800506
0.513561778620921
0.524106876219571
0.531275434786835
0.537304536848511
0.543370664039245
0.548882006975293
0.550210460197967
0.554855544948986
0.554722253306137
0.558298096028207
0.558665718377499
0.563377474962099
0.561332465546795
0.556900052106027
0.557210116141976
0.556852613907406
0.558415843810797
0.556502716714149
0.557774171693192
0.564185233240036
0.560611059886197
0.563659579274922
0.569905479315909
0.565078898262279
0.572234705433926
0.574966562337617
0.578283001852746
0.582692097813679
0.589565599967316
0.594742624616231
0.600065163520047
0.603349905050936
0.613240751451898
0.623255686455023
0.631770750932652
0.641523996850212
0.650819044670147
0.658143561359576
0.670255470118388
0.67685663330757
0.678475110764994
0.682405671110742
0.692579463825696
0.699410126714261
0.703566164382666
0.697020074179392
0.700712933303644
0.707565858958897
0.6999043510753
0.697287075977528
0.697615121452441
0.696062007159486
0.688669592748643
0.693007396520898
0.688350195195378
0.696509233383758
0.703367995731922
0.709396389066165
0.719193879009668
0.726717915034044
0.732591576557779
0.749427907323015
0.761418556420787
0.771681723296274
0.778120412058841
0.786188784093524
0.799778282528741
0.814176123466286
0.826606892900352
0.83919798186686
0.849865359097787
0.859924513638419
0.878340003454537
0.890816103001433
0.908966802779007
0.91736242718279
0.926219084858589
0.951629446063313
0.969258290184682
0.995413429500171
1.01089225524713
1.02541303308117
1.05183286247028
1.06813592991913
1.08858306268105
1.10650835468193
1.11537467663979
1.12712734036328
1.14078250673001
1.14524978609028
1.14584992886364
1.17523223394247
1.16880564520063
1.16217270292438
1.18099467908789
1.17851157979825
1.1730078361733
1.17975964300249
1.19042232577016
1.19777257409565
1.17909452591675
1.14956602305765
1.14886122506622
1.15540071318666
1.15314625886164
1.16439534610328
1.16293907575149
1.13920693848955
1.15980855028141
1.1758559287566
1.16825546642457
1.16853658668403
1.18257091900746
1.21578580779234
1.1914702428071
1.21027576278529
1.23687968390004
1.23578426106727
1.26188443589317
1.30477154040761
1.26638948349855
1.27786434852555
1.31753905248541
1.32305269665519
1.33035714639277
1.31594318441484
1.34846018707851
1.41154875836819
1.35724482538736
1.33793229226603
1.33466766878223
1.37609608220043
1.35176217479891
1.34366866930388
1.3809630427014
1.39325192745159
1.37814237255566
1.35105785163397
1.35532254870039
1.40181582187585
1.37232519522222
1.32539552074027
1.36577788631489
1.38327320425186
1.37444541970772
1.37211624006158
1.34111533548635
1.33279671750171
1.32884740091454
1.33216839693081
1.30714124511621
1.26489011969093
1.20601748967656
1.1990765792961
1.16019992664761
1.14335878304295
1.11718891042943
1.06931015217609
1.02795653513877
0.993738466968828
0.951982876963673
0.914365887033362
0.883479583941803
0.879179061048454
0.831405147080586
0.812484983089053
0.795624407058926
0.789715620652705
0.775582296057379
0.768647450809251
0.750186201583116
0.760413967782071
0.747594086778392
0.735123947592335
0.727732853931975
0.727198455656662
0.710745387431495
0.703031213598217
0.680202201420732
0.666111982237201
0.661841609337577
0.643088392361582
0.629814769359386
0.610709512976493
0.595602269146958
0.575020102397722
0.554045682783411
0.53523994043517
0.512610392995441
0.492927010017157
0.470951171374762
0.449213280402331
0.426723343098905
0.4119744915836
0.392238242671409
0.374819580247722
0.355505013834561
0.338708818673664
0.321306340591056
0.30604257973751
0.293405850431107
0.283293408217416
0.273346286505346
0.259702850129284
0.250734872426255
0.244627142950578
0.23538215588923
0.231320695976355
0.228736501137409
0.226981283160523
0.220088128973733
0.214055932960635
0.213076518136575
0.211615011914421
0.20971362988769
0.213507141943572
0.211964274056446
0.214971696591632
0.212261506869593
0.21024645654006
0.215960059826578
0.21518474975802
0.216333922614887
0.219615877471712
0.221952364408327
0.222907743437115
0.221181574185719
0.224907766960319
0.224551451348298
0.224327025010642
0.221514136590879
0.221382649912166
0.216806227872065
0.21747591805701
0.219012420142008
0.216294476963832
0.215150379616856
0.210886028661485
0.211372795212077
0.213534272776724
0.214772094827449
0.216613989522289
0.2191030273033
0.215882388056465
0.216173486479388
0.218168365605695
0.224736000443038
0.221632081771089
0.223098896551757
0.224077948032894
0.226914813246682
0.234027348882429
0.230226560961449
0.23185854102429
0.238065824449056
0.239624163059027
0.238981494528025
0.241330433872622
0.238724440004441
0.2392245804565
0.239411576089383
0.23779047224513
0.239275873148852
0.244839990997805
0.239169424261302
0.239014370629914
0.242116442857927
0.245550538806255
0.24857708415785
0.254010153238696
0.254408771547792
0.257071383537237
0.265311435898948
0.268948010314125
0.273780483906557
0.27743621503127
0.282995077575753
0.295654574812639
0.3084709938261
0.308757441356195
0.32199297777636
0.328153731668271
0.324594716084623
0.329300202206281
0.33149273196672
0.329203556331195
0.318329278302784
0.316159002114331
0.313886485152324
0.309963217431303
0.304211057815738
0.301707313750954
0.292771912333264
0.285214600888535
0.288368463504338
0.290630380441826
0.285335677181546
0.286805556937762
0.29197336088399
0.291373643635595
0.292276795436172
0.290226892655031
0.28854970730125
0.291902361159867
0.288591269622296
0.285538588873035
0.280342648190258
0.277685263814206
0.274346168088656
0.276475291105468
0.263102085379451
0.269247999069904
0.269895105912268
0.259822821279621
0.261441871177812
0.261826680878095
0.254775096181714
0.252661802470719
0.25335333821155
0.255669453036345
0.252420521849806
0.25836092727676
0.255273428788406
0.246371389680522
0.249406892301096
0.249005254298575
0.242424756151508
0.242454652706388
0.244753294124625
0.248128984192523
0.240618479328639
0.234131912211884
0.234897958050365
0.249189597727055
0.237783662204363
0.237745874303915
0.234407413892473
0.240351891079043
0.236065137910915
0.231843935183727
0.23028436730412
0.228536617078977
0.233711145635279
0.22966318171644
0.219647976577548
0.219275110145099
0.221771498411122
0.225738023095043
0.222737460311746
0.225535472735169
0.223871009883054
0.226923703752473
0.220210839259833
0.218146254629695
0.224929980425614
0.217957035775179
0.226428927117254
0.237367350813908
0.222862010365775
0.225335791565411
0.2339830127507
0.234143976023978
0.224601880701585
0.233060059778395
0.238492056556882
0.242103676823424
0.242567562229084
0.232534644399429
0.236918202657125
0.245734524765313
0.242349614310139
0.249247608336123
0.247964405244699
0.25189931314825
0.249753863425274
0.258140347235416
0.246698244072021
0.253847401339392
0.272337643231207
0.27410734692953
0.260017655881611
0.273935187978602
0.281863222576799
0.279723886300823
0.288375036768704
0.305896197738102
0.305035395256151
0.31681188652812
0.317884658703685
0.31624216272122
0.331878303859175
0.348545709227817
0.363647287975777
0.366250508980547
0.380664804188873
0.394895963451753
0.388438891399191
0.408220841905958
0.41044433500872
0.415623079659408
0.417170273501861
0.414689749744802
0.402467539023355
0.404111645821607
0.398766269799564
0.399534458754493
0.418284191448758
0.408993006106567
0.399045285140569
0.411106465399926
0.400004630473338
0.391755252682355
0.410570138940319
0.397899240049537
0.382605544814796
0.381679996142138
0.395488414788416
0.408017102096105
0.409834106945264
0.415248158461129
0.382762557977189
0.378974341444075
0.367352926143203
0.380135028076211
0.372810807617634
0.359998787484786
0.375778882854115
0.368307840908915
0.36589546950299
0.360734356858498
0.365910309049151
0.367072979975035
0.353088550790699
0.362079592044372
0.369152267378789
0.363365428996443
0.357160843144837
0.356628367522878
0.364928972565298
0.351187881529102
0.348426121742571
0.341509241050842
0.352444923487368
0.379463647961904
0.365942814381083
0.344070955877122
0.357268970390771
0.359214150294251
0.36901652935683
0.36501137125986
0.35142778302315
0.362368177731166
0.379416334911384
0.387422121895984
0.375328537083812
0.370592403748408
0.400071905491285
0.371551338355888
0.352778205974404
0.390787239897283
0.379326492172141
0.390631104697578
0.386947572299633
0.394972331448783
0.401959608276174
0.376713490463583
0.403031629328181
0.394634236154407
0.390205688057612
0.422687399742638
0.431125367559586
0.415759139574621
0.402526793797727
0.422814402253182
0.478448516390038
0.4800962196265
0.513284535023853
0.487787676673038
0.454759265809098
0.480497434262038
0.507049464644136
0.496281567399089
0.464292808218352
0.480502444340338
0.498977902356654
0.545350056480764
0.549035271519666
0.488421598514978
0.485608304162836
0.463634682026163
0.463102891128687
0.495687625390045
0.475850976871888
0.485864066625186
0.560057078372303
0.472855604236984
0.480650926806448
0.479021303812953
0.516531392845402
0.49133826351911
0.505146975330565
0.431788914479735
0.465598779053341
0.401787897974475
0.456385371678013
0.469822846109141
0.442858141630351
0.434553768245564
0.398313427655499
0.501773640991106
0.512548650908659
0.432707716335198
0.443643640982561
0.564661981112499
0.500232003692709
0.472240833126238
0.481988135405801
0.462645155929182
0.516404736458422
0.53807954682178
0.428734117653023
0.516828707270389
0.611752310433459
0.528783536749317
0.496110672222409
0.269984353078672
0.417060426572902
0.417662000973799
0.310215072021725
0.570792766430103
0.695216395513981
0.469616825719389
0.476890156459328
0.552151943804738
0.491525416578719
0.508831451322275
0.691315963894266
0.543468595793039
0.393215788264541
0.531666157153326
0.488784967113307
0.502689632347396
0.493878209067936
0.404804915860427
0.970798088969363
