3596
4000.36533379555
650.420452594757
1
2
2
0.0561594208301511
0.0586869866340918
0.0632893320470869
0.0533080349955932
0.0616568015755083
0.0568762776837148
0.0557662408958355
0.0503388090564657
0.0528016444974452
0.054753192959723
0.0593794976958782
0.0571724078208956
0.0584594524843149
0.0526269612098391
0.0551426353320429
0.0588430132440262
0.0480921583489027
0.0533043044159868
0.0595725510711295
0.053620833248133
0.0573193259129746
0.0550664047226499
0.0560144158212814
0.0477085891311663
0.0561843025604587
0.0594825101683428
0.0554221953804547
0.0558039561504256
0.0608781768743011
0.0594755169005169
0.0561426647834945
0.0515999717328964
0.0641122900142287
0.0598521038342615
0.0541099272684333
0.0530873107065647
0.0491050267334598
0.049407043751104
0.0512446352833206
0.0626749455035809
0.0655139149889205
0.057488663877034
0.052826384770573
0.0558543221347095
0.0602207696575431
0.052136452175519
0.0488494170775092
0.0526691248079297
0.0584651424148613
0.0582054707007694
0.0615929431986768
0.0489924165691607
0.0660865298774133
0.0537621726518309
0.060043826196849
0.068599354623064
0.0565548103739058
0.0494216706361863
0.0593814174766231
0.0484525800553575
0.0748021740548765
0.0653252790256219
0.0635032996714926
0.0545781528989963
0.0591644169346402
0.0533167174607339
0.0582613681999839
0.0496317062250403
0.052765018655588
0.0615884082241108
0.0511602479626963
0.0694549289247689
0.0634310175886479
0.0538993376512096
0.0644870592819648
0.0504321023331479
0.0529796793471855
0.0567015187985257
0.0483177614372979
0.0712492257587996
0.0759377124859756
0.0646432124391624
0.0588740777060171
0.0438659258905238
0.0583061353968524
0.0687234996888074
0.0436906766774333
0.0678595298236373
0.0812855082962041
0.0704885401444397
0.0521517218635803
0.0492415813008179
0.0498687014336206
0.0506727861447929
0.0578453699407622
0.05445907846562
0.0435797619573992
0.0571463600400873
0.0446356077758801
0.0550614060607252
0.0487041858271514
0.0792690590329977
0.093545185460681
0.0424227753855
0.104187084313196
0.053379221760958
0.0699305514622894
0.0955947898321927
0.0690512125811716
0.0531208318277643
0.0542384242874883
0.058104256515172
0.0554017079894261
0.0622280403797648
0.0318480148763862
0.0736748128816235
0.0711370593485227
0.0604453077508138
0.0525114410294173
0.0546927510449823
0.0340152580528523
0.0903101072616835
0.0808790024450679
0.0583581058436633
0.0680105187941404
0.0558550972093205
0.0398940997803269
0.0916707095863375
0.0665431433621305
0.0582007758686301
0.0503286698069334
0.0571127946663176
0.0488271205588722
0.0509493982453046
0.0856923284761598
0.0554641494309996
0.0613525856383572
0.0339686681215469
0.0837107753013072
0.0932818322679116
0.0665549307850225
0.059407973167498
0.04354144064594
0.0649246940972453
0.0842772627429019
0.0563934644550866
0.0473199459392597
0.0755310034561276
0.058419251721289
0.0504002212534222
0.0444184416074993
0.0479699731235675
0.0716616145571835
0.0676280215721509
0.0172699041757
0.117352124253409
0.0862235114898052
0.0790388220376741
0.104519146599212
0.0537157304956075
0.0650658257737758
0.0482344337924091
0.063882083724798
0.0425414206728012
0.0555961353067945
0.0322819418742823
0.0711034175235431
0.0659407321820251
0.0526699705057533
0.0532052167291733
0.080251634623644
0.0610676139655091
0.0385426971266584
0.11096830472294
0.0546668502398764
0.0522083366395106
0.0821225089152275
0.0648953127996959
0.0402320459247749
0.0610083745928978
0.0696103365220281
0.0543070632787909
0.0559012145281946
0.0425536313649396
0.0567251162654254
0.0648388447790017
0.0628972858484798
0.0520066675510332
0.0528113263739619
0.0422574871363791
0.069802857615559
0.0952793440451783
0.089022359759165
0.0552269954918016
0.0580646512032725
0.0190239103124895
0.0832833597953098
0.0777465693259258
0.060925190257636
0.0538378586645371
0.0459107510846285
0.0533151504769956
0.0453284664374294
0.0499166922336012
0.0433955025406494
0.0347923337970647
0.0979810149574021
0.0661470050961099
0.0614348715226861
0.0397827626183397
0.0592659137994345
0.0246744129583035
0.105226755257966
0.0687982192569303
0.0591419861163614
0.0538818164817574
0.0512696673931673
0.0651697274337705
0.0649577347162795
0.0459072432516625
0.0524610774263952
0.0504277979029618
0.0600323600881169
0.0440301460839309
0.052260021774362
0.0476665589065795
0.0548792699833331
0.0533478689091986
0.0528198852709969
0.0472471697441013
0.0635786715966886
0.0505614584273952
0.0518557707655463
0.0546330150542767
0.0340849630097812
0.0648962579179678
0.0774953487201967
0.0521154417241978
0.0530268419126779
0.0437938571857857
0.0491853442610636
0.0501825095356049
0.0517981203088823
0.047598391866098
0.0467604973333269
0.0409761711866279
0.0937519462923692
0.0471817953245361
0.0646762004817681
0.0257343405475147
0.0839753293294335
0.0530001309873164
0.0605548306679221
0.0411571478387094
0.0634285107746855
0.0374329999470882
0.0552073800120301
0.0802021774792482
0.0637977971555452
0.0453041413823709
0.0754630875206691
0.0558108932259562
0.0609296174028554
0.0450378615242001
0.0429242939191922
0.126417776129263
0.0686099895975183
0.0459567786918817
0.118578696603008
0.0549136181420616
0.0734343865766944
0.0405493391358614
0.026151460901574
0.129440555344736
0.105228403147758
0.0536776044877234
0.0530538377683258
0.0773769894394149
0.0470318604426041
0.0592728774918625
0.0551119555142524
0.0723292531279948
0.0762729898814713
0.0750682058834974
0.113087721429295
0.03247073656909
0.104408872701539
0.0598124470940457
0.066081071705195
0.0474727538912299
0.0606700711959194
0.0354843451144825
0.0726902240768231
0.0541791661229171
0.0711078287894217
0.0509034689126441
0.0570359018621362
0.0732294799467872
0.0672389729387513
0.0479677576656686
0.0602025897359125
0.0628414995480257
0.0556876973384229
0.0519680069589797
0.0564763310244444
0.0665153033490807
0.047873737982661
0.0412877157667763
0.108824798835826
0.0553054729637436
0.0649044272668034
0.0805123649119436
0.05798100096763
0.0478957842152904
0.0541575974087239
0.0489200680844636
0.0507032950759477
0.0495578784443548
0.0406837517946641
0.0754895290912264
0.0605151772988227
0.0538407309100458
0.0513179205037223
0.0499223700052516
0.0497373779942557
0.053068684039701
0.0608792835987833
0.0566923585920808
0.054154382925728
0.0452394301938835
0.0754731364071805
0.0824574102788951
0.034321217948907
0.106209100826914
0.0867147006281297
0.0580936432506497
0.0590555797934778
0.0524220700679137
0.0608660748720407
0.0512779823308911
0.058137031419105
0.053432693928301
0.0620278210662443
0.0674673174871423
0.0582217901794574
0.0561021449430446
0.0567707368105296
0.0946604939493398
0.130966496889848
0.070190219587686
0.0785445968006644
0.032900833624629
0.11282756256416
0.0653790866058549
0.098225566026969
0.0902279328327737
0.067880893026363
0.0760281306844903
0.0578119587480463
0.0681147520285298
0.0579788965614407
0.0719542162942462
0.0618265757665349
0.0716526712188036
0.0685970708891724
0.0750636280438031
0.0611346583685199
0.0772621863489853
0.107200761751959
0.0844879397075343
0.0797822027921867
0.0812061111217062
0.0592739776839194
0.111505481890603
0.0728469987216572
0.130287397161774
0.104973274125988
0.108947248010076
0.12500558983596
0.092305372892125
0.0975803333198512
0.0792175734121307
0.0944733967682139
0.0828039363529275
0.0906502904912289
0.0862831163407975
0.0899638572860099
0.0873769560933326
0.0907029175376413
0.0906006357162925
0.096919055717317
0.093919010183954
0.132069118909971
0.0916797868487935
0.112337798870018
0.0855099728996768
0.120951961716685
0.130144437656103
0.160136259244206
0.109691719816459
0.126292002627022
0.103418359317394
0.121880426336458
0.108998432380613
0.114932116407637
0.122157257535528
0.116827189717259
0.149801551263157
0.128977054567867
0.13981061164748
0.146254725427943
0.117450917912465
0.162882252455559
0.12007436169309
0.157342029341516
0.155126675296324
0.139474075287845
0.115934525143819
0.181179478948542
0.140511410756499
0.156032715920021
0.167009400696256
0.137083879228582
0.146548762022212
0.151285110776752
0.160639313945432
0.145952401353048
0.164296020842646
0.161545385929108
0.14474965592799
0.168030588548526
0.164034553827059
0.162457375563447
0.185028712458746
0.17214271653967
0.174926227987492
0.189203464284904
0.165524734674747
0.188277150388797
0.150115996941774
0.214218807697422
0.192014656047302
0.210713204633409
0.206075378685138
0.187930019530283
0.185059161724349
0.202750688033373
0.189629119455491
0.201177163110755
0.196033228047643
0.206218701741616
0.198676150877151
0.200793230541905
0.211593637962421
0.213067669272154
0.208633966561605
0.225019262838166
0.207633035813565
0.215737788920128
0.225427104731631
0.249067788788875
0.207386415540445
0.273896089942993
0.245861755335894
0.268053973523394
0.26278406157137
0.239949034800133
0.238428390662806
0.246440082173381
0.249986001886305
0.249999244139052
0.263111308624934
0.266012856463857
0.255037907276513
0.27272666136426
0.254281785467919
0.28243550623394
0.281276002678862
0.258201322175414
0.267801402328945
0.294081350445117
0.277213568917002
0.291617889375532
0.277811456278259
0.290408095334866
0.303145180032873
0.294813591175036
0.309584117868998
0.307482005992303
0.312240970483275
0.310783291969535
0.303131889976695
0.337526098299388
0.305535766790947
0.329932371347557
0.291234912993738
0.313897070616866
0.322780996025525
0.345229157375872
0.328709202915418
0.341716156604852
0.334566708013015
0.354973739748923
0.340162967421373
0.371896417000197
0.34595683988177
0.376576884695844
0.365691879730598
0.373950446440152
0.354884506220376
0.378179781663716
0.367616112184534
0.397427437215115
0.369567178727149
0.381425677641689
0.371473063379642
0.383906133252545
0.38359069435387
0.40293039337496
0.392758392133721
0.402119396306222
0.376357958924224
0.415689457613557
0.403859761958236
0.413029849241727
0.423157975848567
0.441273454261941
0.414267640619632
0.415969884057784
0.417087528671085
0.441006959769489
0.426249855378916
0.458741252361978
0.432360954611632
0.456544978639929
0.427819529729906
0.460556591672415
0.439962467246785
0.463717924690319
0.445258822491875
0.457854044268125
0.456584377580629
0.476054793036893
0.463518925929929
0.461072381904851
0.491480962590658
0.503023655684669
0.46939950762372
0.498750861830327
0.493286190569664
0.492927585413627
0.474075859737586
0.498763456893985
0.483850470567276
0.526644707622206
0.52361193391053
0.523686866970588
0.496256248468667
0.530895079058629
0.513775702069189
0.53581437254166
0.517824995088669
0.534539280351902
0.545839934523709
0.551529052616358
0.538500514674705
0.556176733480616
0.527868054144394
0.545618673135093
0.55014792543791
0.542998608454096
0.563828561210558
0.57663324686477
0.553785540588263
0.593480045962601
0.572014708630782
0.565646601516889
0.568274026199403
0.577296797847726
0.557892987151089
0.604769587113753
0.594764999901609
0.601464939015664
0.615097947224376
0.619438157910482
0.592446386757737
0.621766827554988
0.598901220879974
0.622481500446462
0.592539317098158
0.623398993591121
0.587709395603891
0.625308672136144
0.637304160193094
0.646937146064054
0.616973707725405
0.647412746158837
0.616747434347582
0.656267754040831
0.646921282958325
0.650768148792842
0.629595602195653
0.626335881938904
0.622986033838658
0.655567494277402
0.639168982197042
0.647746534256717
0.642715068018753
0.663880451226174
0.64655848470458
0.653063004841222
0.668123487473706
0.691433053928378
0.658542236198731
0.699621934449328
0.662743403968739
0.67818802945125
0.678331909382532
0.677275275678416
0.678525158301949
0.709401143692445
0.672973575180326
0.733932259965437
0.69350174013397
0.720839348334373
0.668337326318168
0.731112894065692
0.688818730853182
0.72563558091292
0.685905891048426
0.702523653916176
0.693536588527785
0.711201363146931
0.682695004405539
0.730561786735117
0.712030769850781
0.740397169140022
0.711664627083998
0.717676446176726
0.741421332834856
0.712405841408303
0.689797792035898
0.756168370590099
0.728945807142952
0.731986214175817
0.709715177304722
0.753894318676605
0.737386544734852
0.760202018940348
0.715944124122159
0.72069344201742
0.730591901684607
0.777876348013878
0.785894570971741
0.784388536998491
0.769114482389872
0.814238334716579
0.7146811495981
0.784219256734006
0.775084157184616
0.764414265995424
0.736744490407691
0.778449525501249
0.760258521290521
0.804411065952479
0.760883986083297
0.802343531105657
0.767195180447462
0.788461291190393
0.774575363385399
0.803060603227521
0.780706214624696
0.818575629194109
0.765901356324294
0.767309761146251
0.770178962631932
0.796692684867516
0.761676148341681
0.808491137505245
0.797536124508821
0.788198605583492
0.751796774236006
0.788507571490261
0.7872441877864
0.788353104206011
0.798603771694612
0.814896024781633
0.792306445499434
0.794995688122552
0.774011203577347
0.81799180601915
0.76585831380663
0.809813182343896
0.80344839160272
0.792423028035495
0.800417132840116
0.78696075768887
0.823788702702307
0.80274008503667
0.795348448125525
0.82469510107369
0.793380235587263
0.788049604522492
0.77158319543902
0.793996272340996
0.804485993656689
0.817460884535985
0.77256667831625
0.800337819096692
0.771718933935705
0.804456529074267
0.793815861704481
0.815245658961432
0.775440295925276
0.792222785694721
0.788519213862718
0.814255757295972
0.782648786071779
0.788349740432421
0.789101873801825
0.797740855718322
0.800513709972881
0.815170417784548
0.798566019199814
0.812687119085336
0.789471172676917
0.802155850340128
0.798267146404359
0.798283495229512
0.790435156070485
0.796765105296868
0.7898525281828
0.822011426905773
0.770270589928297
0.81102755231364
0.785838254235574
0.808030426339131
0.798109341141891
0.802479222935398
0.754436456476947
0.7814847662944
0.782342728515567
0.786939282980154
0.750421653925702
0.777733513473152
0.782974330069388
0.774146833348251
0.766065856833968
0.783431948919745
0.750028574509218
0.77470907441659
0.790446107429697
0.807406077556278
0.76277970218582
0.789175861421765
0.779425977863436
0.764953016108321
0.754820237676268
0.761871694632575
0.791754828917136
0.769081330944554
0.768126574554846
0.796978735435752
0.747694091932592
0.802798727605722
0.746359759909416
0.805779995478161
0.755204383084694
0.766663222935904
0.73760163974635
0.759431373626473
0.744938192075623
0.763790258284222
0.746683210488535
0.769844662228456
0.770266836258314
0.793640955605997
0.733248723040691
0.744344386834019
0.730119491731097
0.751447340551736
0.74751390098915
0.750982512407527
0.744732184656239
0.765628613465468
0.737759552484581
0.754852316770638
0.729314358319314
0.737407181103935
0.729231636740396
0.72599790231361
0.734033964319438
0.733511430370058
0.745482966996936
0.759609057093535
0.712123161699086
0.747070903807681
0.731258317654613
0.735907499410575
0.733314581237436
0.717946467705085
0.699933211722027
0.719760451376804
0.717370927569523
0.73970446285854
0.718586103642401
0.715783960202304
0.693145201192562
0.747309964302745
0.709436143999247
0.70686541303007
0.677995921504374
0.707370108695274
0.696474043353918
0.708879472956781
0.696492018780882
0.698117062353961
0.68056094996549
0.679750249291267
0.689348735302151
0.699060710159406
0.699451610259201
0.694254664282026
0.680536119509334
0.682366626512696
0.674736241362106
0.700460449054185
0.673677809327712
0.670641869030913
0.658813280707703
0.67843383583983
0.654723954600416
0.673152271702685
0.659912400391011
0.663170888741642
0.65949828684748
0.663117084574362
0.648117150766606
0.661265445521246
0.647045912205363
0.658068108750947
0.652149344890799
0.640050975617001
0.626336315827133
0.651440175602182
0.638907429295192
0.632640062076297
0.635846546245007
0.633953082656332
0.625283845095292
0.619009193833659
0.632894305714463
0.626144935948482
0.600691789787302
0.61950818468703
0.598545402538257
0.612921626175791
0.602552130938207
0.615654275411365
0.610285253588226
0.611714790496802
0.599809247812409
0.606552773986103
0.594737359374685
0.59654563072044
0.603244246464794
0.594349362291392
0.590496874830422
0.586257690890645
0.575126242751351
0.591533310394063
0.585641337870035
0.570398761831148
0.566342333721755
0.573963136516812
0.557680578597093
0.56171570211602
0.561429632027184
0.555159529012585
0.554649101080874
0.547365046567555
0.54227395385957
0.560130187634271
0.541944820771428
0.553319987063436
0.544462922272072
0.541662402297526
0.537954312077354
0.548776538691985
0.522880070022358
0.530815497018443
0.526450456578794
0.531879555396912
0.52899848781508
0.533619572006062
0.517239996440677
0.518499582905842
0.521436916294055
0.512241688908326
0.510290942650868
0.505681628425028
0.496101064103646
0.498764284542146
0.500602555805675
0.506307929771787
0.497307916381936
0.488439088946913
0.474685387099907
0.48315636799868
0.479323919185154
0.493552046203744
0.486488712457282
0.488628108635354
0.477874668707001
0.475030803103609
0.470632103291469
0.471424488172356
0.463715989114201
0.462616704043552
0.449962908558051
0.443530422449439
0.445556121928719
0.450906489333824
0.445298033953909
0.447371021842347
0.45323172567083
0.449849478194754
0.438405526601839
0.442448414490569
0.440233600752663
0.441818388107796
0.43498189507352
0.430249527727033
0.415498401310943
0.425009224028466
0.42047486086116
0.422856224472978
0.417379989302847
0.421635429749047
0.418571727675427
0.412032112552575
0.410396790639495
0.403496979470039
0.404506643027988
0.401775835928181
0.392049799637212
0.398531240179451
0.387418173854907
0.398974390483749
0.393684665614289
0.396392952690383
0.39538011971407
0.387950130315425
0.384626345324427
0.384079556115863
0.379705248422085
0.37135294367056
0.37234866926782
0.370225992718532
0.368527501571811
0.372019825402224
0.360796266975176
0.365734089888945
0.36430682869765
0.358469320379542
0.361840853448811
0.363241576335293
0.35040367724585
0.355631854844546
0.357037755149706
0.355322239695514
0.344043884858982
0.342557432412369
0.33952918377647
0.345447674653883
0.338069305200668
0.347408998272065
0.342890237674665
0.33842778106317
0.334675551487382
0.333523347989714
0.329412081312943
0.331024691908612
0.323902977383207
0.3248158878457
0.319143311562188
0.317703421164928
0.315052910972071
0.313184508801912
0.311760014100865
0.314090902737659
0.318166776604512
0.312701490398155
0.303421043616174
0.303622458068542
0.310677992993017
0.306827485806625
0.29583352054649
0.301058481693205
0.293484268549238
0.297972014992156
0.292479775388114
0.29001711250394
0.296106425147727
0.295077228490677
0.288577101225311
0.289824360991459
0.284731470158307
0.287044061037617
0.280051772730495
0.281452057169202
0.279234331588397
0.282590964050802
0.274915224372097
0.26946709658576
0.279336738570995
0.272067913814792
0.268593984843406
0.273606367223985
0.269726656002537
0.262484125748504
0.260370211846964
0.263574947714984
0.262677394800368
0.256128962030704
0.257388771472813
0.257860974630904
0.25541682751389
0.253455805275717
0.256163045199303
0.253711094072236
0.251932131135376
0.248710368774023
0.247976096637668
0.244514246517741
0.249400583844642
0.247269631804312
0.246450539994942
0.239202522346601
0.241634983992716
0.240052244509282
0.235479117585962
0.239235100398907
0.235908097522584
0.231294266253096
0.230200852736955
0.229269257091755
0.229365846840103
0.229580528496402
0.233726563659392
0.229017846479173
0.221512027700151
0.226707393599262
0.224257960372858
0.221731898428248
0.222889689227026
0.215871066896392
0.219399734250413
0.220055093665839
0.215894772357929
0.214374354948325
0.217004775678503
0.219781322597612
0.213205188485804
0.213981052193326
0.207964461794142
0.209432410277346
0.214499360279756
0.212569243513493
0.211430728016106
0.212359160873531
0.211149745525033
0.210249967456064
0.208353513387135
0.207382902638463
0.208031817473263
0.207297586521326
0.203746092122889
0.204549960351531
0.20759636925059
0.204793719210779
0.208320546836792
0.206066236462979
0.20423923338293
0.204414502565122
0.208015014763756
0.208196997358845
0.2076730164213
0.207334509827041
0.211424168882136
0.206238430253959
0.204395190391831
0.206414702901862
0.208242140926604
0.209357335815901
0.212922458797505
0.211510259025124
0.210987682762025
0.210979912615491
0.215080644233454
0.219199696937885
0.217310850669366
0.218798480002919
0.215694893868042
0.211240882051096
0.224796489283049
0.221540342477547
0.220569665619038
0.226015772958314
0.228795637301192
0.222511868404235
0.230214653631747
0.230331227107672
0.230807569674398
0.234925213802252
0.232595346326335
0.236762286384281
0.23720961754056
0.234761907518039
0.240620619517227
0.2463859115054
0.242291431805517
0.240247837297342
0.238472327670047
0.243276266197218
0.251117990545326
0.253247026459096
0.257335442931956
0.255089971029365
0.253977159893266
0.258852059652225
0.261644129886365
0.264677206996524
0.268302713644603
0.267682948415594
0.268989077942094
0.27202144601301
0.275811126571257
0.274077741726487
0.283626972903574
0.282044247991997
0.282383360668608
0.286779080439691
0.287825374266252
0.286259695137681
0.282557625958586
0.283244749396092
0.290526063617389
0.286643870888058
0.293473540864949
0.293471265917378
0.293878803275499
0.293638569034344
0.296637067558396
0.284341022591081
0.290533257179726
0.294722919637094
0.289479371459128
0.288498254753615
0.292064315488955
0.291017429085394
0.28371430671191
0.282260030362212
0.288644833069375
0.28935651553563
0.285963969934843
0.284435432699363
0.284383907087934
0.283582038921439
0.287306251481908
0.293690590751204
0.293672583153462
0.283121072973975
0.286501383612193
0.282785136832701
0.283252516288459
0.286651432826622
0.290813396709804
0.285320833697052
0.282240138848299
0.286745892244051
0.289911911766525
0.287648340153689
0.295135856819563
0.28965490493421
0.290093477482059
0.29014303245274
0.289547909967565
0.293317989484692
0.293975199355778
0.285870009816405
0.287439282716769
0.287924194046052
0.287335394512517
0.286712638024788
0.287742984883288
0.283155940950375
0.285889729233829
0.285731097047135
0.283594577640691
0.283136720400653
0.278484683285127
0.278952133502403
0.284879300650555
0.279831727926286
0.279792192595235
0.279596063970286
0.27638957154369
0.271557470616731
0.276485401174265
0.269490541823706
0.268813181155037
0.264827777765229
0.267536704047818
0.265413698094377
0.262448596342878
0.2598838007236
0.259909500527748
0.257015621692934
0.257543279932541
0.251688372792655
0.251749541680299
0.249104656972845
0.244730997542964
0.24643650719308
0.249829302932167
0.241654112465083
0.243208679276716
0.244853814086067
0.241538009092174
0.230150519124622
0.235763981958653
0.230653075447513
0.229443370892539
0.227543691455665
0.226856269585632
0.22198512981547
0.220052541130283
0.215494805264969
0.21606049457616
0.214354817366649
0.214589016812501
0.209442761368706
0.209555819030853
0.20962755880942
0.210191660032585
0.206490637172762
0.205890144428051
0.201078550387672
0.2008933543526
0.199969148076272
0.201139866419263
0.194924081919588
0.198690436389769
0.196652688566292
0.196618637319702
0.191936752462049
0.193299526272571
0.189413917250538
0.186644918118551
0.189095533848724
0.192739121262394
0.183790269070866
0.187976706037273
0.185869996387372
0.181989913514244
0.184161797869059
0.184568996681818
0.180298987377732
0.183821949653789
0.181305040804392
0.179728116256173
0.176425841674886
0.175738345343669
0.17518072242155
0.176295747084324
0.173776421956514
0.175875187552947
0.174661958961867
0.172002114400533
0.171465903541906
0.171617670008981
0.165418053138228
0.169041129959068
0.17310040907977
0.167653851853255
0.166286104160429
0.16902680215281
0.163863541435051
0.16461137214895
0.161876438556946
0.164399469329399
0.160812696847426
0.166707194698253
0.163374535177206
0.163691921671189
0.161361589522239
0.161179849749068
0.159893061260246
0.16045112909879
0.156113339245192
0.154614827051464
0.155776662233417
0.156973208519266
0.154708001599741
0.155250615209814
0.151507164222644
0.15462682385267
0.155572957817381
0.153455138615728
0.152913297492125
0.15524823092489
0.151276863571936
0.154989168696061
0.153439359821946
0.151921405773993
0.149374143739794
0.153073719126041
0.14606772744454
0.147984599249863
0.146816882430712
0.148354397881185
0.148431100899877
0.148634811164513
0.147454393726084
0.149098233494149
0.141697125736077
0.146818967249575
0.145747874314005
0.145630087175823
0.144620833249833
0.146084361883459
0.143452480325688
0.144364951065355
0.140384805107579
0.142763514027362
0.140783078822123
0.143818611706441
0.140617805058359
0.141932926493316
0.140025068376947
0.139219926471816
0.140041234530276
0.143019996468137
0.139796390251098
0.142288462173091
0.136058056816383
0.139175347773432
0.136390235942605
0.139588761572049
0.140418378872258
0.13459092213687
0.133333461010948
0.138728170727635
0.133993990711776
0.138807296866068
0.138435509987674
0.139325118648209
0.138222343954787
0.137566952621997
0.131292694287812
0.134986686288333
0.135689960917744
0.13624695452578
0.130681277338282
0.133239949432136
0.132054371208072
0.135689462970817
0.134934645233646
0.13349225895124
0.130976684391487
0.136542274677504
0.132301556791798
0.13122603137396
0.128776064915032
0.132106761519185
0.130372983062721
0.133572391532594
0.129199482457665
0.129513789134
0.126099820324145
0.133299771506456
0.130599005150532
0.130419778152391
0.130593567068636
0.130920528906538
0.125394932116471
0.127138670644441
0.127741175371469
0.128585803185994
0.125344786443633
0.124840408925918
0.123687720078965
0.126063026831523
0.125105890143668
0.12885017879152
0.123445727167519
0.127028250300545
0.123840669855869
0.125194514566759
0.125195633982912
0.124078230279783
0.120662493618633
0.124013074491154
0.119842652144926
0.122960771093955
0.119711256101438
0.121811739350601
0.118483254264755
0.121085546740332
0.120240966521708
0.121195488408063
0.118895542314385
0.120538359038564
0.117055839753168
0.120503345092004
0.114694444225199
0.118446207320649
0.116559315343245
0.118087606705086
0.116438101899914
0.11576245423435
0.113508582526119
0.115501707905075
0.110514525763329
0.114103249645878
0.11340148527468
0.114403576821311
0.113441775617625
0.117262899536355
0.110502607609353
0.112856572425941
0.110342772009924
0.111668806796578
0.108799949601611
0.110835922942432
0.107055485917697
0.111504979480877
0.105449082181697
0.108846730712986
0.108433183725521
0.109452065415874
0.10534345988921
0.107854188080813
0.107201408296305
0.106505041004662
0.103408188319976
0.107997027217294
0.10253423825448
0.102968487800905
0.101203349057596
0.106487563887462
0.10088908132842
0.10148484726964
0.0980741354741212
0.101436111574382
0.096442661856903
0.101617839645232
0.0992501342206574
0.101287149046612
0.0973021786177933
0.101077131885622
0.0996610661961295
0.0981850789904617
0.0965701718292648
0.0969878779684333
0.0917159125278466
0.0968308648358808
0.0910072004043145
0.0978421368575778
0.0922629128499573
0.0973616122663479
0.0922100751045585
0.0921411559373871
0.0922955789613611
0.0947148408632101
0.0926590589764142
0.0908885148976188
0.0880729253923577
0.0950791915267886
0.0878205297469566
0.0906554674867244
0.089420665456433
0.0908719406877564
0.0878286707502259
0.0898535309334718
0.0870923847663032
0.0929557802769634
0.0856311296660726
0.0892478015478072
0.0866013426122213
0.0895508516629046
0.0878913911655295
0.0910946754106376
0.0834543771924058
0.087643734216509
0.0847706374418813
0.0855218790068584
0.0854107490761638
0.0871027168666874
0.0837299485834994
0.0870033536665976
0.0818790591471947
0.0864121282674008
0.0802965533096381
0.0865620826580534
0.0825960931504281
0.0859203295105962
0.0825537914854014
0.083981628276137
0.0803582282760343
0.0834551922766201
0.0807443106741392
0.0835193092779326
0.0803591915054382
0.0827424202903763
0.0770722016116735
0.0790339794030645
0.0754484722144695
0.0787460875122375
0.0792349817104408
0.0827371599647585
0.0785768322715524
0.0813544502603205
0.079487083740972
0.081679914481435
0.0755202742747155
0.077872685133156
0.0769265047510319
0.0780013977456998
0.0766646760942831
0.0802051834294701
0.0752740688822807
0.0775898096125622
0.0744645220749364
0.0775347196739293
0.0742413134935538
0.0772589087376473
0.0747453909156592
0.0764623206958756
0.0755432937343028
0.0771247267629897
0.0744530652335884
0.0774939015550353
0.0739957823327352
0.076623863817261
0.0730532420730641
0.0762985265825087
0.0749587956716279
0.0770238366001285
0.072822641808489
0.0751606715506939
0.0709269726512121
0.0768491693718918
0.0756147909106988
0.0762158923031856
0.0722587195655238
0.0750049249701959
0.0723474219690518
0.0737740655005736
0.0719411399000675
0.0739844122619024
0.0732277901400309
0.0754200274413602
0.0697442636536355
0.0735446148591346
0.0709143861950599
0.0752017795668274
0.069820205573869
0.0724439958312811
0.0696949246385971
0.0726709294476447
0.0701669889406653
0.0707864721214858
0.0659862789846065
0.0700102471474495
0.0669876063002079
0.0746261635376643
0.0681834740988025
0.0711801447521979
0.0674273539615068
0.0747308390686691
0.0685986263484892
0.0695188239104124
0.0676066016300275
0.0700282631273482
0.066703029868222
0.0685443954440651
0.0691261019812968
0.0674505565874553
0.0670053636575085
0.0707212976742529
0.0646246431173483
0.0687765280292873
0.0653353361085696
0.0687550484206873
0.0667818545801593
0.0688084045307125
0.0674322674865823
0.0672883820702782
0.0619399511835699
0.0675753353932491
0.0641666277146987
0.068033574700268
0.0638853957577429
0.0668264247507182
0.0654731915697015
0.0662890967858326
0.0638066725323737
0.0647935471857952
0.0618013723034055
0.0670100415931594
0.0648726790368765
0.0675203092463862
0.062181583364802
0.0667859952236027
0.0635587991439329
0.0645657164459326
0.0628927581715471
0.065525807752375
0.0615103829805998
0.0651212540334981
0.0618332855573367
0.0662686251885702
0.0605896000052808
0.0666498181558354
0.0629607250217306
0.0650568134660851
0.0598530895892098
0.0625525782949193
0.0607581948683107
0.06284217834611
0.0597529195066946
0.0633938694682835
0.0575359246066812
0.0609854063587854
0.0605951380379112
0.0614638286368928
0.0581225741865232
0.0606472855512915
0.0599220612941024
0.0598019438006298
0.0545993995030249
0.0620005488477289
0.0581399202473474
0.0605953204786611
0.0545381992122628
0.0582135615476085
0.0558711185929177
0.0605139381618751
0.0564173007373688
0.0589502259581039
0.0571156988052007
0.059219695282431
0.0566328402953736
0.0570669618219992
0.0544622491128111
0.0574718646491853
0.052334831967053
0.0575278704607315
0.0547253199968186
0.0569510329573397
0.05368352881981
0.0544240331404571
0.0557855264491013
0.0555638014386375
0.0518913328084721
0.0575717270092953
0.0541390474838687
0.0572155134725613
0.0532045203542757
0.0553398688162996
0.0500440378900439
0.0537368483027032
0.0533587834630244
0.0540013659700623
0.0526607069213502
0.0568892718136483
0.0508447105405547
0.0547434529267165
0.0524344379798581
0.0518341197707877
0.0483996482001703
0.0540433061053946
0.0508527979223479
0.0525065612742424
0.0462983569749283
0.0522172452043215
0.0495135763871941
0.0516667524916042
0.0466724452288517
0.0531256320737495
0.0493669202040442
0.0513360605799997
0.0478575420541284
0.0527429242958878
0.0479469109911798
0.0510256101144484
0.0473851784352669
0.0502263787501584
0.0465568527104668
0.0497171800915286
0.0448892711051011
0.0484203686908006
0.0470682979398256
0.049319487675277
0.0461076150427331
0.0494396000372621
0.0450217944180927
0.0482306311660183
0.0457677998283461
0.0497749549967551
0.0460003822996846
0.0488551457471266
0.0464524120846412
0.0494256945623311
0.0447736255450265
0.047607176964896
0.0452792759051333
0.0464715936490734
0.0438152288400581
0.0454917830080453
0.0447707409656152
0.0469123934704895
0.0438928303134134
0.049241930556252
0.045066683168985
0.0469446868625482
0.0433716599710042
0.0460290895488868
0.0458270086455565
0.0474687063270202
0.0439041403190047
0.0471331904262714
0.0431933031203618
0.0471533114749851
0.047058123632785
0.0479030730516651
0.0436282247529118
0.0497974215563602
0.0433011671765962
0.0486904840667245
0.0440159072665162
0.045174305843815
0.0418118156731544
0.0467345115313142
0.0416298410443808
0.0446553739592813
0.0440058158795764
0.0491181203363319
0.0343641198244069
0.0394687540848812
0.0385085514056019
0.0439305757178779
0.0374182761833608
0.0416363986338893
0.0386762868864088
0.0468346272491706
0.0397260704486519
0.0401560977203604
0.0390328673137301
0.0434872318790602
0.0331240670105635
0.0438393645093716
0.0368932510452076
0.0480352084850042
0.0383528094168736
0.040761776385672
0.0398342682841349
0.0439062368558182
0.0422341762239589
0.0477831296889632
0.0360501491407602
0.0414277145206099
0.0369066724524522
0.0422072433664406
0.0337197879665686
0.0404384013582551
0.0328922915418571
0.0388699137925655
0.0335232392664226
0.0388820039763079
0.0332587653921271
0.0391805060754703
0.035218093802672
0.0429371398463344
0.0364285423404895
0.0420166801621641
0.0381574402515972
0.0416227975444074
0.0326712803276716
0.0403900617449584
0.0421677083211543
0.0497470539174862
0.0395426740384286
0.0360616860708444
0.0359089911845025
0.0449699304523078
0.0402802603445406
0.0378935785883585
0.0396527759761853
0.0432607860087596
0.0472855799698753
0.0371326847600804
0.0428024243161016
0.0433744695816476
0.0480362751946831
0.0388500824276555
0.0454800339979179
0.0423129453639538
0.0391405574794891
0.042861984465727
0.0426315349605944
0.044551331739421
0.0418417929232274
0.0442108486237688
0.0397021282902329
0.0428670463328812
0.0397272834331428
0.0446910861147969
0.0372027659677601
0.0417436024078997
0.0407028698809239
0.040472039364474
0.0395599582321421
0.0388991106856078
0.0396068834092252
0.041070687882259
0.039783325591643
0.0397455281565443
0.040390810214816
0.043238679969488
0.0378117283139543
0.0397017532532316
0.0348950308024663
0.0416791685080034
0.0404144273903075
0.0416734043749326
0.0366410210686139
0.0406657390244214
0.0370760261729068
0.0398794355193616
0.0375686749265392
0.0413362369576876
0.0390151014836186
0.0404771386431436
0.036950749854719
0.0388125409502523
0.0377580734940267
0.0391860958640406
0.0376094163265328
0.0374255849206955
0.0363927784630806
0.0392626157030873
0.0382906677453576
0.0409745858313252
0.03804325567477
0.0413503341018822
0.0393408717629784
0.042151896588765
0.0376146495198419
0.0384429799708989
0.0375981721187494
0.0418100173420906
0.0374849678718389
0.0384954440589082
0.0368754183770606
0.0383048703108957
0.0382040331375287
0.0420732781288364
0.0389214894923342
0.0413158959024158
0.037126996318867
0.0415197475467742
0.0376460003936893
0.0401373487407155
0.0385922018536152
0.0405186373284279
0.0377286088633762
0.0420433295453853
0.038986736387585
0.0418734245973774
0.038085277490769
0.0411812781666962
0.0360173500241771
0.0404894180809055
0.0364085414318232
0.0409693237565337
0.0384570107131584
0.039445156109972
0.0382301197062895
0.0414727929529918
0.038616056947602
0.0407319303784637
0.0360006185267941
0.0408078200976973
0.0368463726303627
0.0416546967693464
0.0372280717239187
0.0401144416627771
0.0388664027708634
0.0414543447893923
0.0383578896043158
0.0398152616821986
0.0371642610123359
0.0380745611425589
0.0367031298579341
0.0432227189026622
0.0367064600444083
0.0409711537382496
0.0378173033704853
0.038849474738619
0.0356469648500296
0.0412692612113976
0.0403500279657196
0.0437118114761438
0.0382945987006892
0.0402061099558483
0.0385851383435191
0.0416232948773424
0.0374582392808654
0.0397160020297197
0.0389053403451245
0.0408190874804724
0.0361042210596685
0.0411406719289438
0.0384916824274016
0.0428590342437698
0.0410664233954168
0.0432725738568646
0.0390342594527476
0.0422827945875639
0.0407088087884563
0.0427111514335462
0.0384532148379779
0.040957980413623
0.0387932167590074
0.0411515664166688
0.0390750721219189
0.0416414735676506
0.0363847392985263
0.0416197998766227
0.0382582884983972
0.041495050263707
0.0393050641401119
0.0419557883725127
0.0404072586270471
0.0404410526225131
0.0383453419762471
0.0423639865204132
0.0385288131112978
0.0427422409872086
0.0388246766384896
0.0423172936646304
0.0402239531982249
0.0436454686286605
0.0401848710395383
0.0401083954764762
0.0397512495472714
0.0436154848859953
0.0404313217747735
0.0433037050945495
0.0391227834420639
0.0428596118352879
0.0384200731790484
0.0425830395432911
0.0403091852565257
0.0447840778983929
0.0406161723973247
0.0446839960997707
0.0406296578831554
0.0444188143954615
0.0399534933363214
0.0444414365860703
0.0397430656983813
0.0452218425220317
0.040501796770193
0.0421815757070712
0.0394211617324332
0.0445442516947859
0.040907285273533
0.0447290770010455
0.0425046908366282
0.0435331913522058
0.0409179835859621
0.0452145161383985
0.0410653208506059
0.044649915737386
0.0400049154778572
0.0432400035462357
0.040375589740824
0.0432839685417459
0.0382159830295681
0.0421001429568676
0.0402882734737679
0.0445857988738994
0.0396001344334824
0.0401025797503041
0.03785002559287
0.0428533837644143
0.0376540226583106
0.0435914371064177
0.0385183002552731
0.0428911373015043
0.0399590186524373
0.0431899031810285
0.0376284113869318
0.0408071953597696
0.0376527405411096
0.0426650768201341
0.0383770995356492
0.043289278378248
0.039265940447917
0.042992082940228
0.0387833305858261
0.0405092216461543
0.0367111538460833
0.0411962992019584
0.0386572330033294
0.0403225473981644
0.0394952638388771
0.041017255159452
0.0395173815440843
0.0410462680287848
0.0383091095943138
0.0419912408707183
0.0359415377531359
0.0402307912966499
0.0380364069691505
0.0423413301981111
0.0375959803393587
0.038904944102891
0.0395160974831768
0.0423161469912797
0.0361342886417971
0.0393677045110747
0.0366345905506473
0.0392997753007345
0.0366695224450913
0.0411486269033312
0.0365368383380008
0.0398119862158005
0.0363500593521874
0.0398567779647288
0.0369589975478644
0.0422117121827697
0.0368079996199737
0.037935974010834
0.0384372766930102
0.0405640177296989
0.0357212675476935
0.0399303863152203
0.0376464688172721
0.0425684698688569
0.0357784996936823
0.0407792390201239
0.0357506492081911
0.0397873084134386
0.0354372652604359
0.0392577782414207
0.0358083910173701
0.041247263475272
0.0364251962293966
0.0384229858588257
0.037838003289339
0.0395579882541655
0.0358189928690536
0.0398882505113365
0.0364811143919626
0.0395790299632888
0.0375966687455295
0.0384042286853546
0.03700029100784
0.0396122431176041
0.0345932815263143
0.0386389742948543
0.0386636526420207
0.0398506398669843
0.0366319313788727
0.0406604538702067
0.0350794548502681
0.0422196301804942
0.0356635939183377
0.0373663714079631
0.0342487859303425
0.0399554838016929
0.0356659101382715
0.0388425032173836
0.0347689525265972
0.0389054144098786
0.0366985594709471
0.0397976594194101
0.0358869001214513
0.0392956655585051
0.0363013870322415
0.0384632128950929
0.0337796224656654
0.0381161325151374
0.0333841021484151
0.0388266228889413
0.0330363724355357
0.0384041003300413
0.0372714373633652
0.0369243226731663
0.0353479593723946
0.0384141564579492
0.0329480403178201
0.0384447202319263
0.0353182450841653
0.037040564816793
0.0349477389297454
0.0383286270248638
0.0336261811042409
0.0353063173314699
0.0340146743080458
0.0372429678963298
0.0307830339480673
0.035823782291892
0.0343503457610793
0.0367978244041029
0.0339206365667406
0.0375201735628579
0.0341558809830927
0.0363592289683805
0.030860726399901
0.0354747297823802
0.0346379161651911
0.0353913278053556
0.0372250840762898
0.0375473693672397
0.0325863435993945
0.034464303635338
0.0310865023404545
0.0381156691735329
0.0320953293923625
0.036293323524964
0.0318324274233994
0.0344858002232645
0.032855235595486
0.0347020505000003
0.0320289931878886
0.0337080761596155
0.0310256362162598
0.0336444339890426
0.0331925479479363
0.0356849037375833
0.0303876441034664
0.0337001416933512
0.0306293432592608
0.0337587969359768
0.0311812471702443
0.0353092878199666
0.0301624014815079
0.0345282338204296
0.0310005742006753
0.0410297217360144
0.0320932077815522
0.0338925193365922
0.031495518767953
0.0391538385022483
0.0303027432300467
0.0327683471100786
0.0293164068381702
0.0325434037008023
0.0318779482583058
0.0330827054332211
0.0309723764145248
0.032235447973524
0.0300022977683049
0.0335816983073796
0.0313421365301019
0.0310214458863082
0.0294854531848216
0.0340619261565476
0.0297290361998721
0.0318575818156573
0.0278668024456499
0.0313216970768335
0.0316264486493176
0.0351443780298555
0.0303359531860134
0.0402852310597497
0.0345146315493433
0.0351916412615058
0.0277922227634484
0.0308785262959508
0.027775299673676
0.0317392347221781
0.0292989607565093
0.0321765668707838
0.0302338186619885
0.0316800232286999
0.0302232849171229
0.0310714141207589
0.0307983100850244
0.0313412716688027
0.0276893792860686
0.0319767919453165
0.0270533460910655
0.032869008678122
0.0284804873242422
0.0339873916433466
0.0286913785349149
0.0311428400759022
0.0292699827712902
0.0344648657517879
0.0269034469297413
0.0328163830498232
0.0437417891663981
0.031870564443134
0.0304815776727287
0.0297615549726371
0.0287010603465129
0.0307587680110655
0.0282134323169099
0.0297745292551266
0.0270231955290212
0.0303628479668855
0.0307485178283925
0.0315095285593071
0.0304998728358587
0.0312318464205072
0.0270745194771863
0.0301820970668527
0.0278319684313784
0.0296786464273499
0.027981137934477
0.0290463996847971
0.0326181848908679
0.0414010513512419
0.0335478675483502
0.0316031348158783
0.0328115152656942
0.0242576935703452
0.0439592607679813
0.0343639778898835
0.0292529298442479
0.0308134138508397
0.0268031502901807
0.0299050719519058
0.0278361254336875
0.0292296483770589
0.0267049637204791
0.038618605797114
0.0265594573803389
0.0356190908586118
0.0260417602831434
0.0304979899552637
0.0259283673159169
0.0326802927963382
0.0257542684183996
0.0305849842413124
0.0259823596235439
0.0304216561673949
0.029847918696624
0.0278487858117548
0.0291488393724198
0.0284371119974551
0.0271562727494246
0.0362005039557991
0.0275771164351433
0.0320856331683166
0.0294650318198739
0.0273642644277845
0.0274679995594283
0.0502948157666939
0.0242658928571449
0.0346476855103625
0.0253241506331642
0.0336700376862416
0.0264717381383641
0.0319376937798427
0.0251002905142797
0.0302799957681456
0.0245584171670912
0.0304752029490945
0.02566532550203
0.0309278477862934
0.0267053044459195
0.0292382079856637
0.0262919077280166
0.030382708335628
0.0279092523546768
0.0290692197130137
0.0314706533005574
0.0296466404494349
0.0330943021608476
0.051557375251162
0.0332155447185292
0.0431580214409171
0.0316213610136758
0.0352028963928298
0.0276304109772818
0.0328410646429576
0.0253954767557827
0.033877147763934
0.0251177723795048
0.0348177468185102
0.0247559492092128
0.0327663623827443
0.0240168053278632
0.034501005247851
0.024258705726983
0.0327762283537211
0.0220898983545193
0.0345100775963658
0.0217673454075787
0.0338128615176235
0.0216913701623237
0.0431507664988322
0.0269400399012013
0.0387435724291469
0.0191002183841422
0.0542468839377045
0.0518436833983612
0.0315938131596479
0.0371114772411426
0.0281802689139705
0.0279500294488971
0.0292867543442378
0.0287613033604134
0.0363533800379549
0.0304495383882571
0.0291696172080654
0.0287324308074694
0.0306113494325235
0.03191108965265
0.028037895610717
0.0283359743095778
0.0608268918072235
0.0340878637108007
0.0355413357531753
0.0303250312657852
0.0280998248667058
0.0523365089124318
0.0315666338965896
0.0368790765180204
0.0344608168317752
0.0290904500736555
0.0330747405629132
0.0280280436736331
0.0291605828227628
0.0309396564112728
0.0359174629973973
0.0245742371637351
0.0334493489464563
0.0224644409073317
0.0361960766529483
0.0313007350969786
0.042607740088863
0.0386320692728064
0.0308272813443627
0.033757391243974
0.0332132600094012
0.0298653790412844
0.0352129824511446
0.0282456939706719
0.0327587460847266
0.0362614741387738
0.0491715499650549
0.030435685197947
0.0477406217776466
0.0406904154335307
0.0294834681846687
0.0344792932450405
0.0379071973180498
0.0370527335635136
0.035278063473595
0.0261268202139121
0.071150452044228
0.0314547386946597
0.0644186588700511
0.0234159282271704
0.0451971576577921
0.0229766033168204
0.0414231835250221
0.0215922283665648
0.0480616278847317
0.0268042010024257
0.0402023270713135
0.0260456093975716
0.0480153764789215
0.0434290630863305
0.0373465396334101
0.0371340039070059
0.0348613806637317
0.0307556673564289
0.0432393047368992
0.0392957426771713
0.0258392623074456
0.0579587852073097
0.0654825305730619
0.0497813841056205
0.0454535067396449
0.0233972276938131
0.0801687846402787
0.0346041154976449
0.0420000231947469
0.0339396658322785
0.0392323390922807
0.0360691441376692
0.030520799153944
0.0606429614336319
0.0456478573636159
0.0307907344919489
0.050635526780478
0.0231360449147802
0.0597616284856023
0.0440230729042976
0.0418316687751612
0.0315813564058973
0.0474789759706025
0.0276555951933643
0.0798128947460447
0.0546351239661897
0.0432725073510108
0.0712217048280885
0.0461923254023936
0.0580683848842457
0.0470420189026132
0.0506062268762555
0.0523674081947642
0.0633361044851634
0.0462174424482382
0.0406722454330742
0.044345953365091
0.0758533621797254
0.0395308813274244
0.0546810655267267
0.0438832832197775
0.042634052150416
0.0710618531302269
0.100951837693346
0.0732082805430273
0.0596497436094359
0.0469027141893239
0.0777000432317612
0.0530530968111309
0.0513901682018949
0.0519339137974131
0.0480305373878019
0.0523355096032764
0.0474099444760338
0.0660749328809274
0.0574721040197789
0.0526161033331762
0.0570201515557715
0.0493784912600657
0.0695197584125444
0.0873800924734137
0.105153517070422
0.0596602963017245
0.104124278288186
0.0823720905051211
0.0688447721935035
0.0660753482241196
0.0578178332174041
0.0761338386838957
0.0631311538810632
0.0658844741617897
0.0581415104997063
0.0878144832807633
0.082710493249639
0.0628813175628607
0.0989446136108364
0.0642120434910119
0.0871287964183972
0.0334010222944231
0.24141435375057
0.0939202650571325
0.0911963888846886
0.099293566655768
0.0648995156242233
0.160167468029846
0.0905632789335836
0.0889733303987537
0.0890752031009083
0.0914100064310403
0.0889625304964701
0.10291358782757
0.0983403216066249
0.114483908696051
0.10556159212919
0.102388350973946
0.101622556364596
0.177173234047628
0.147263989125336
0.144436323253423
0.112876058916315
0.139523458136649
0.139710196414398
0.12854193149361
0.125329971464273
0.139135642611043
0.107315531504284
0.202806589601479
0.131249028840417
0.158469891440473
0.136275661360636
0.191631691877509
0.134827917536577
0.19189685695923
0.190220478119754
0.168391347867177
0.169705333850611
0.166273039954514
0.179695319531577
0.158180718655075
0.204897646003198
0.192693440003096
0.181468466581574
0.19174508865716
0.181732300002331
0.192869918835422
0.182082052400991
0.20175177650676
0.18269372297978
0.247290428381667
0.196934013124248
0.332540981643412
0.231978511446695
0.198216711959583
0.216259236825525
0.187205351882158
0.243973541725276
0.2173838364304
0.220486953393705
0.233959128812244
0.192405788086736
0.217925417167246
0.197122751832493
0.212800954269121
0.194737227065648
0.216586639150638
0.19379589849966
0.233877085346887
0.207846460685013
0.194532291791333
0.27773962305498
0.206177566480032
0.207526715362473
0.200774215143556
0.209187352420041
0.198957543590595
0.203654084361493
0.197677155340946
0.23818663634022
0.188585919722967
0.208746034361255
0.194719952754362
0.210589283880822
0.221165345336334
0.189635657929182
0.205185950344797
0.185991659979797
0.191414128456795
0.189665052650761
0.172012416363319
0.251203779186534
0.19245688896486
0.194985924821451
0.18767002735476
0.183898394398266
0.187582359234011
0.179633536465743
0.181225830267151
0.187004435490746
0.177655369723543
0.192445810835942
0.180858008663218
0.180773827139891
0.178513958806217
0.184393140655255
0.18017264532113
0.175439153413152
0.181880222977648
0.174085709033668
0.17926072987768
0.175134305764104
0.180434670347209
0.173266079238203
0.18199406398283
0.178965162508285
0.173875914979833
0.175252354297701
0.175733659712259
0.173840739079005
0.179835410151635
0.167350899784038
0.177637098950397
0.170198144800795
0.175249787201926
0.169552340932585
0.171461480996833
0.167144859004294
0.170799716801613
0.162976800571721
0.172703660193041
0.160321270200837
0.179165237244754
0.154087204677285
0.206175658386097
0.196266278286071
0.157192052164196
0.176428685546737
0.147253060999698
0.166629684177742
0.14307322452773
0.187729811596318
0.181133306661858
0.151347418421964
0.156436544603018
0.146349785189157
0.155487760653491
0.163599210033785
0.133376508147985
0.154131132552826
0.131861860034831
0.144217978257776
0.226966709891189
0.135895506949702
0.240876508786421
0.149161429880444
0.14557146224172
0.111443212930449
0.186676480253737
0.119552931408452
0.143899682422535
0.125975219433364
0.169871133218941
0.145655140661513
0.122696970602218
0.129816025816575
0.118906014880662
0.132911362012009
0.149708749966594
0.130088946257127
0.127359185681636
0.170240889912102
0.134718584466985
0.168984912880612
0.166693352749272
0.157610563816863
0.116618846833769
0.117302587515959
0.125482858386072
0.100113043223646
0.183911747789089
0.12265972782765
0.12740235961016
0.116071977051588
0.100528200525487
0.116478984714666
0.119164789603913
0.138246305504191
0.0942418785680901
0.162286276285081
0.0997987399409252
0.11997565416881
0.130157833237667
0.134631375431559
0.158774970010391
0.114204413943489
0.108589546086439
0.112390291713729
0.159615698959236
0.10440196539915
0.12553220502252
0.101546839965834
0.0959164404755707
0.125072283512028
0.103711860612978
0.113333125200236
0.128258088623694
0.109720006222329
0.165027761555797
0.145606033916645
0.156023078830755
0.121927632826044
0.0995259360430582
0.104956652298668
0.10336461594991
0.110132645340628
0.102069808908348
0.110448058730058
0.132139016714337
0.0774859840643177
0.168877801939962
0.112864171510921
0.10765158831572
0.108867354462177
0.112408679785423
0.108870267666525
0.14018857467235
0.140060557104686
0.144112449785287
0.112480124554457
0.154943181545853
0.112652268389286
0.133632654246894
0.113206229238691
0.13430102997696
0.119895028617498
0.147806738761158
0.135136616827035
0.142368140859729
0.133918029850068
0.154770439330097
0.13478808593388
0.198912915271243
0.130056243886264
0.190278824172754
0.171115150450279
0.208330008600365
0.186118347050081
0.166225634469321
0.173473863788419
0.170870565852496
0.175289183015403
0.185768500289193
0.173071562214006
0.231691982666986
0.175242374554729
0.203461532428595
0.19046931195462
0.206826055793596
0.191211936755607
0.224455175638472
0.221626376041931
0.22857102166265
0.270264428417659
0.21197511668758
0.225435738974417
0.198524546353214
0.216509570254594
0.217897093823024
0.20648307012673
0.217877440556101
0.202071216221826
0.238933521742663
0.218465956135688
0.216089559980937
0.217945696805972
0.219069534228822
0.221004676023464
0.223728545000247
0.219972739006576
0.226304998844036
0.215555633561854
0.241714274297314
0.202428015170546
0.296119140660087
0.253393557084353
0.23089642021872
0.242882749837764
0.234161060862831
0.249796659336231
0.239279913279954
0.254226754601458
0.2554813483797
0.244540301861541
0.254784715939055
0.247637404275961
0.261422835478791
0.252084033302237
0.288964337252831
0.254011072604427
0.262508709232434
0.26534897102651
0.241260200348538
0.323427627506635
0.261958131051744
0.293272750672897
0.261591943923374
0.272092344657087
0.260048502428378
0.269653961702312
0.266196984713286
0.270806455314002
0.268621489572261
0.268437611604775
0.270848642949439
0.266069121940944
0.275560124054623
0.262802178528042
0.28864579630434
0.271233962728184
0.269375537374502
0.266315050193839
0.263849423194784
0.263662690964531
0.285889855383866
0.287016896075396
0.266417709612538
0.277591272499373
0.265754529361112
0.280140331056016
0.279711862760937
0.260698483639368
0.269378601685635
0.267164583733417
0.262174612214575
0.272660955390263
0.256535842635871
0.297551488945567
0.273383986996169
0.278635839590556
0.266935381167559
0.275113033574824
0.268796983178375
0.277451401877418
0.276895521179692
0.282997998438416
0.276196145348041
0.282345675228434
0.283165847115833
0.281068431960438
0.294244620359619
0.287100059217674
0.287271251607345
0.27818888300928
0.276236177895544
0.282138902431521
0.27129868409731
0.286676550147643
0.268620355393042
0.274856005040292
0.26274352977472
0.273423948734848
0.253485500485971
0.294667979211918
0.268692791477844
0.262190479701968
0.26664349103674
0.24667061179793
0.258097148120719
0.246849655365743
0.254155388651159
0.241839203156978
0.25082921375866
0.240693946836327
0.24318825906886
0.238314749115845
0.238669794462125
0.237111818150308
0.238869498037704
0.237623731891736
0.236898482120931
0.235601599866144
0.235364561619899
0.236712080140101
0.234301216273983
0.238383536082962
0.233544910480365
0.242988794656099
0.252521854008747
0.245929617095899
0.246552517716077
0.230582427301965
0.246516462704632
0.229515378622639
0.239507780570242
0.228899186137783
0.236354813941716
0.230925787688081
0.23293723821911
0.229937331902528
0.233255195263419
0.229850579830356
0.234217863947396
0.228132019472759
0.232269261791749
0.226128095016731
0.230312690502976
0.226490719213145
0.230080021642403
0.229848089298144
0.238126408224755
0.235021301239024
0.227863552085819
0.235499964156115
0.226227877378613
0.232760127498675
0.23391756325174
0.231204036730332
0.23266089187972
0.227967768880614
0.227761273738839
0.226671374567585
0.226288898891819
0.224879647630813
0.226645755850004
0.224850053230309
0.224736724402054
0.223827134785906
0.221414056728157
0.219365052260193
0.219278749207815
0.218213251765878
0.215388113370466
0.213049234789771
0.212340038226693
0.209034928225236
0.205940788937242
0.204154254546191
0.206540886571459
0.204340099130818
0.204050406666607
0.200002186681236
0.196428481816232
0.19962506881797
0.199381658914447
0.199008337582472
0.195395133377243
0.194568245030079
0.194292560250084
0.196563908891105
0.193447793136422
0.195357879137309
0.19571436536559
0.193207382196874
0.193226227392537
0.196289496776187
0.194429238809465
0.196442526958329
0.196490266037943
0.197293880376459
0.197794210162873
0.201787121313656
0.200457292640513
0.20178101926182
0.201675223993675
0.203731906887153
0.20552435645746
0.206499931754429
0.207364586094701
0.205573342028554
0.207208928478144
0.20540881595069
0.206741623143027
0.210962836831959
0.210767050642796
0.208596013558972
0.212681860343415
0.209381832144032
0.210875272242979
0.206894068440812
0.207589509881928
0.206078774683409
0.209896442498111
0.20603286966736
0.205036959000912
0.204435892137145
0.203974132525189
0.204795914899899
0.201918413168568
0.198655176979778
0.200644372874107
0.200208187829121
0.19871577500027
0.198505010473031
0.197230630864112
0.197292318293585
0.197764786250542
0.196788800858183
0.19524294163139
0.195631522490427
0.194762318442197
0.194307701263673
0.192711274620133
0.192794674682463
0.192831035661232
0.191697058516063
0.190177822501673
0.189184125853836
0.191520400610156
0.189026354975046
0.19174048216392
0.188422794051239
0.1885984853848
0.188568200146253
0.188522295972104
0.186632582682619
0.186896786589771
0.183996552490431
0.183593615230408
0.183750180973774
0.181974623524176
0.180439885911161
0.180918966215781
0.178522198119575
0.175778597207664
0.177133583515966
0.175189962115045
0.174406282761769
0.172371223087027
0.170773074981271
0.170954683477371
0.17095508227045
0.169403286214354
0.17028532582891
0.168969010678619
0.169235032863805
0.170417624413466
0.16996392797977
0.171488118672839
0.167429231557466
0.166552194451577
0.167576070691545
0.166898763996485
0.163486998757873
0.161855683841986
0.160308189820267
0.159460036987789
0.156239093266194
0.154184261596477
0.152321120173959
0.153166758570068
0.149915008971187
0.151298070459896
0.151716257894938
0.151983323816646
0.154394865458308
0.156563148190667
0.158400206719745
0.160927077897708
0.167887737223504
0.172450680224124
0.178100374567915
0.185325604965235
0.19203967369834
0.200808939288436
0.208442571569019
0.217944698511922
0.22488725243541
0.234609652307965
0.242614799738229
0.252224582330859
0.261718453398969
0.269337282784824
0.278182030612226
0.287266667071448
0.294752665702944
0.304225415983821
0.310356139638419
0.319945771555949
0.327345014554853
0.332941608562357
0.340295751661656
0.345956660689784
0.352576684957036
0.359686048241428
0.365583953191944
0.366264260341351
0.371941435238323
0.373791625492157
0.37757132721494
0.383261176433166
0.384752867503849
0.382666872583759
0.384086124755664
0.382948987197304
0.383487296096459
0.38597521077424
0.386011768292297
0.385048664375936
0.381065851747969
0.384068006176893
0.384040228416534
0.387954964740249
0.387365378502229
0.386995033267668
0.387211093838317
0.392593587066097
0.394710603245119
0.3988641914693
0.402015628747364
0.401567669535595
0.407225087520996
0.410472621443424
0.411761220336077
0.419608263111057
0.424774025411576
0.430295413341852
0.432394912620174
0.436528486290866
0.447006244104133
0.453545527908473
0.460337102126142
0.464775821366442
0.471186822578214
0.472782197236401
0.477755896300107
0.482130795455174
0.481170317993786
0.483045625686636
0.484652757516801
0.484002234928448
0.486821782896566
0.489551169648519
0.484916492654591
0.479483581435288
0.48280411701529
0.481449218180432
0.477127822584448
0.478761045314446
0.483248768327946
0.484795078666048
0.486143867515406
0.495246863676709
0.500838753561506
0.507950430014331
0.517988863488606
0.525805621842546
0.532226662364554
0.538971863035552
0.55251001982682
0.559702300640599
0.56461786157599
0.571307661537795
0.577421160656657
0.591832496699569
0.601095635245875
0.603740531936657
0.610142702704354
0.625580394584061
0.6344725079643
0.641101352816535
0.658033937160718
0.669831521389866
0.679559772278106
0.683615387816465
0.693441867897274
0.707256937945389
0.713946245279039
0.729269580930248
0.740304901389682
0.7437289357884
0.756074370129654
0.758112593509833
0.757038213668668
0.769988759308766
0.773513497730916
0.765772907869664
0.775286739383503
0.780479455800875
0.777715512908617
0.775959006666428
0.774511215668668
0.76669413812698
0.775836791266951
0.758369375088481
0.748234436009929
0.758029011753603
0.745914653346984
0.744722083392289
0.749073665337264
0.741757913860569
0.741296433134822
0.735549328295087
0.747798168506946
0.761002130808702
0.759833428061903
0.759756943542408
0.768700457846684
0.769594313630655
0.77346116869126
0.788316510929897
0.796231943175799
0.79294325529459
0.795899410974817
0.811937166383559
0.812720713053298
0.813722541248504
0.823710924736621
0.820094247227214
0.826370716350128
0.827243314930138
0.829121956517091
0.837737600885056
0.83219775071851
0.83199301405032
0.831422308805674
0.814766546085405
0.819223417812564
0.818120462913503
0.832004222350488
0.83532501838439
0.828888498568548
0.820294367461272
0.820594938224047
0.810981658496827
0.804099238287504
0.805435471244029
0.798245255519123
0.796221138849571
0.790045463794348
0.784652671990074
0.771712272352053
0.763166389977346
0.750600004515332
0.733762387352053
0.732469574326006
0.707863043992552
0.688660740283048
0.672447360136296
0.656642534773244
0.638976852444606
0.626597599867813
0.59706790782559
0.579536423273733
0.553450018123382
0.534938194159163
0.510233646148557
0.503168803990677
0.486378681876542
0.482382668204402
0.460070157048446
0.465520412406918
0.453791586925447
0.451407850715585
0.43585718581006
0.441456497824214
0.432603435690335
0.436319661860419
0.427819014897409
0.422520056884898
0.409870529384933
0.410941818168943
0.406704075485534
0.396396866248268
0.388033832984976
0.380497724093279
0.375975365442417
0.363847397505472
0.357548828987858
0.347030489158279
0.337390726986011
0.323727089002793
0.30994411131054
0.30011190561652
0.288372299810121
0.276335956186297
0.259592219288307
0.25200420272666
0.23920629705095
0.231251535549422
0.221558220075912
0.208655604006733
0.20130758092717
0.193823237022593
0.18387760859707
0.177070302261381
0.170482597690863
0.166377381819117
0.159155261452432
0.154360260023781
0.148691779399493
0.146365545119568
0.143724257216433
0.143871184723166
0.139026258139916
0.135313063781298
0.134948615814528
0.132032491218191
0.132849827115373
0.135072162342852
0.132406077395572
0.132199742334275
0.133264266609185
0.134403438290915
0.138066583378456
0.137192273502978
0.13471110061663
0.137891966632781
0.141430984781733
0.141823727736066
0.139032022987394
0.141822177491684
0.140497859678747
0.140756549967499
0.14050197597745
0.137928928104066
0.133944867136286
0.138548000107594
0.13906563204822
0.136025740486355
0.136894612753827
0.133054387695872
0.134313757251729
0.134032998265033
0.132553200258342
0.13265251487971
0.138374854290612
0.135555802597582
0.134012427091894
0.139835544299736
0.138960690686935
0.138662441715794
0.144085875306085
0.1413096893183
0.141885431420645
0.146364318978148
0.146282088528359
0.14984090719427
0.152957224377581
0.150568867447204
0.148780007249069
0.15497715460576
0.152951711176494
0.150463606381051
0.15119189582906
0.14805314057585
0.150893782540944
0.156407148049222
0.152811108188237
0.156876929231939
0.154838076215846
0.156312671773708
0.158677091125792
0.158891517977405
0.164481194760712
0.166807783231694
0.167774063037216
0.172753772712776
0.177090072115268
0.180759464743767
0.185310460288106
0.192060776146412
0.197162405178385
0.199832415880073
0.206236080123631
0.208633812504145
0.216126543869546
0.213669544914452
0.206288723406892
0.206561855905388
0.209290748344458
0.208104935396333
0.204302155333481
0.202336696240451
0.195255630046074
0.193374864399286
0.190648363196795
0.184318190789804
0.184974772807097
0.186253431837842
0.185814306061642
0.185950428944398
0.183690622831991
0.189421073865245
0.189112176766535
0.187148036150956
0.189136320720842
0.190446962392641
0.183217953584252
0.185353341427151
0.179107701196065
0.179565636140177
0.180012027874784
0.179045721267576
0.170715840318895
0.173000297951363
0.171576140624218
0.167880982229138
0.171226526554461
0.173183284292003
0.161413510553018
0.161680641370974
0.164156016547627
0.164800596382141
0.161967711042724
0.166632631932033
0.160437118790924
0.158494418343076
0.153436069595881
0.157417165169958
0.158488081488603
0.1513863950077
0.152003104128039
0.156408298573372
0.150936169658198
0.153618914147271
0.151611899118915
0.153048573305777
0.146627620937326
0.156269239662921
0.145241114731558
0.154037184140799
0.154512487344529
0.142528035751538
0.144967434583736
0.14328008166967
0.141613272628217
0.14143062306011
0.146418916000101
0.142507895788402
0.136881204778807
0.14201712056287
0.140121293775479
0.14112072802302
0.140710733148558
0.140051821806712
0.136115845466205
0.145984926835297
0.141445187415213
0.139803993700797
0.144464631282245
0.151981129987989
0.144639129501564
0.145089564708495
0.147971395116809
0.151371653604095
0.141984737220547
0.142378237238091
0.145678579595136
0.150262318132397
0.152088270823129
0.149915782839159
0.158117047134317
0.158031904776434
0.157926311913075
0.163424213837114
0.163386270300626
0.167385898131881
0.157938330879905
0.169431410559883
0.170121839966971
0.165182163836759
0.165861397315801
0.178752194381743
0.173134204470409
0.179654772434131
0.174675011109789
0.172197353619448
0.181526969205211
0.19643792675639
0.195701178707974
0.195610378591843
0.20704718449227
0.208939331393459
0.206642187205023
0.229161397147613
0.225746408537003
0.241683559281224
0.257330212589246
0.240989131508781
0.242158919385509
0.275411999216596
0.262499499578594
0.258268149813564
0.272171582415837
0.26756843971571
0.260598942394595
0.259866145849362
0.251904151277339
0.259825240601207
0.263661668188397
0.264151961024599
0.260044715947014
0.25742946429805
0.253317083800419
0.255467608567081
0.260107281400902
0.264726679613763
0.257716550323043
0.252367648950451
0.229644755397106
0.240133921548208
0.24789625760058
0.240120897176522
0.235822924078925
0.23517734638487
0.230098441082201
0.230892366406528
0.243232935468152
0.246984261908362
0.241950272245981
0.228002291437369
0.212116514415702
0.234937762959352
0.226891601179558
0.221664219184179
0.226296042849098
0.23474848927631
0.213423028714398
0.224626957431977
0.23198761869381
0.229242138819039
0.238320092686804
0.224445911466236
0.216837228135269
0.225832016462189
0.231239071521862
0.22537521456712
0.222092600074338
0.215541929949758
0.215162517756571
0.21449973136051
0.22939215106723
0.216509744617083
0.225501065228045
0.224111002690575
0.220884800277985
0.255713816514046
0.250422158538086
0.228054072823319
0.218128384236461
0.227262390027808
0.234872263915618
0.23851814612396
0.23238002592826
0.224243189592571
0.242888148286151
0.270448257725327
0.249563948736094
0.240715314532508
0.25416102420858
0.276666434241054
0.27471365576732
0.306863318586636
0.257029747423799
0.258939425731142
0.260748949353262
0.250832736769132
0.284823071784915
0.29962803823319
0.2844018765594
0.271122700017402
0.322286780756917
0.312275253952377
0.315215401517544
0.324243321946954
0.310376615296404
0.318680145247115
0.315337887000771
0.307183496957276
0.306614505860844
0.320623469479077
0.320163323662331
0.325013395554643
0.339534083895326
0.31731095935189
0.305450810782047
0.268276023425096
0.305083342677056
0.300861164749586
0.33465819765297
0.286883414854368
0.299199364773942
0.315158373523406
0.281101523041281
0.305783326124175
0.318116308303967
0.26647660061513
0.310252222822778
0.299367821219417
0.243354502004798
0.323855169303489
0.259631860258853
0.374497219524352
0.301445428473978
0.280907967709293
0.340484763941247
0.340145022224878
0.212839713445918
0.310228235421057
0.285328057972444
0.305686387832592
0.284032476139425
0.271479096981354
0.300821168624094
0.308151372124056
0.251328443530204
0.229542464647352
0.371191902365838
0.335754379038475
0.404353295757214
0.320152585875003
0.2233542833294
0.257769697923885
0.33444892338675
0.430055311603185
0.302006938063337
0.341669556288431
0.282402784283071
0.350043720073065
0.263764502820934
0.340710176443581
0.211728887214907
0.340433625354141
0.283434453866516
0.388518129533626
0.324987388013302
0.225756686236966
0.456304694982209
