3596
4000.36533379555
650.420452594757
1
2
2
0.0747256154288933
0.0748164004010182
0.0848048600236662
0.0757702726906804
0.0855017147969857
0.0857339571514031
0.0807603633027233
0.0773819099260845
0.0774860036079841
0.0878510103214578
0.0870326397626058
0.0776824973493687
0.0727236038515532
0.0760741348916439
0.0768702631970291
0.0850803560208022
0.0798140464444713
0.0733895904159594
0.0769836173495043
0.0754396024019236
0.0801929757825312
0.0773332050372584
0.0787459284942496
0.0788255593710991
0.088765804308415
0.0859717044745659
0.080766866218551
0.0787515224184431
0.0845024375018333
0.0842253687643254
0.0794089414603636
0.077223412505781
0.08065949740091
0.0804094449488252
0.0751479674635711
0.0779267316808756
0.0772751548673395
0.0773959428889942
0.0709029126742799
0.0859619734444166
0.0850984424961964
0.0753000408851595
0.0773588720553554
0.0843040162055198
0.0849459794061096
0.0745891919221651
0.0753740654169971
0.0759359977817788
0.0830548893296128
0.0826653693470996
0.0753611133135585
0.0824314153896661
0.0870335823216179
0.0854285958463683
0.0891012789355281
0.0955759088703157
0.0798927829259811
0.076882776025084
0.0771032628845246
0.0742544163524973
0.0979548842765038
0.0890440855824878
0.0833922008809057
0.0747054452070231
0.0750521304409417
0.0797709160035105
0.0744753029431988
0.0752621079691327
0.0849698898715092
0.080394144758142
0.0766462159892297
0.092952541701042
0.0881554337622547
0.0754802574600716
0.0882499380515206
0.077557681481908
0.0793768879472087
0.079173249340472
0.0674877621726448
0.084877734120212
0.0944545146684635
0.0828521987628959
0.0755765316902046
0.0631250460268489
0.0804837384261606
0.0907925376366632
0.065973037841506
0.0864931904445144
0.106684054104255
0.0891425420904784
0.0737839758968823
0.0754286766170515
0.0685213936373865
0.0708380259077776
0.0750101126075624
0.0708251220110926
0.065773019944853
0.0798070121556037
0.0621803446907209
0.0763731025478493
0.0744778240304288
0.101784141611174
0.104119903200232
0.0696398806465908
0.111808533632387
0.0779405584676759
0.0828103602177152
0.106617411741285
0.0908570722433174
0.0770057709227197
0.0742985756619847
0.079788679232706
0.0757332998139705
0.0833510658114673
0.0576705655135835
0.0813625565188442
0.0948451923036919
0.0780678772850776
0.0762552606528482
0.0762388787750981
0.0572724128944701
0.105435365132293
0.099507016025862
0.0822548733403782
0.084096801794538
0.0743037156869785
0.0663283118444851
0.109666415080546
0.091222654474596
0.0723476718789633
0.0670419010758263
0.0708146620542893
0.0605415083685176
0.0779069283690402
0.113715602678392
0.0776061485291204
0.0756573855195231
0.0595839433472684
0.0926321774138097
0.104052843633479
0.0824320944299672
0.0824206242029602
0.0650779652156141
0.0823934227871407
0.101955117905392
0.0802558812703361
0.0716969643007407
0.0936684834838411
0.0764074660566163
0.0706455423363187
0.0610960553640632
0.0712416023294066
0.0959972779652985
0.0875698292718648
0.040181251228518
0.116600942295624
0.104125158844184
0.112286531477059
0.114509010103882
0.0759788359137571
0.0798815609858997
0.0719895690745614
0.0762710798904826
0.0672247876626131
0.0707115833061918
0.0571421314715305
0.0926499206514374
0.0901418659922494
0.0743527494823164
0.0765125318884871
0.111314212500187
0.0803044851437885
0.0693448809379343
0.12823190373109
0.0762286129318422
0.0748237359764681
0.098025638212807
0.0855500772347078
0.0602289135075852
0.0839107616816014
0.0930268316302363
0.0779616951103943
0.0678688894864782
0.064864844890287
0.0764379230271195
0.0871068783550892
0.0782379674987941
0.0699678071339761
0.0731834653308766
0.0619930016684517
0.0881754210120737
0.120816323831354
0.0960445390316094
0.0835741061811528
0.0735294349113467
0.044056079482674
0.105990000148746
0.100907757543267
0.0778521549910589
0.0678604870279015
0.0623117302705817
0.0681390621831364
0.0641652164330376
0.0729560444462027
0.0605460054559716
0.0597039308184854
0.116057069849201
0.0865132490439465
0.0762879460089631
0.0632628921932555
0.0724173205680554
0.055464932286301
0.121452739434113
0.0925841500501077
0.0870698481283557
0.0727009716955222
0.0737353887676064
0.0880098938540139
0.0859081100192522
0.0699102581281368
0.0704003414637007
0.0683325687103754
0.07999860858456
0.0692116539911339
0.0683725632880684
0.0717162546835635
0.0780175815146363
0.0743129396213253
0.0702709952489519
0.0695865771224744
0.081043789253888
0.0650343018505795
0.074128251551
0.0695834195168706
0.0603685492411468
0.0880915162857494
0.0897372775788128
0.0757749208491876
0.0753504296931199
0.0721494581443612
0.0736945614314444
0.0662258550323968
0.0667745416407127
0.0716028631517609
0.0649456644923935
0.0653908842415801
0.105752110132761
0.0757456287578955
0.082931834771971
0.055339115364253
0.0952007610474214
0.0787383461178864
0.0866408200940146
0.0642770390859683
0.0782978170582654
0.0558941185413566
0.0807547450431991
0.105534938219103
0.0895509411422091
0.0630006587016394
0.0986162347760557
0.0837435083403469
0.0841560232359342
0.0633014550584299
0.0672922684188025
0.134057174188091
0.0950726405974695
0.0853439403657174
0.132920722318399
0.0863605707332414
0.0919146007340549
0.061754419166464
0.0532526989738635
0.159098683026765
0.127710994383147
0.073412439365967
0.078535378320321
0.0919144203517213
0.0702100124873532
0.0877274914662331
0.0782691818727645
0.113317201892483
0.0969709623978229
0.115505468746341
0.12134880442148
0.0612941553302549
0.118738474612917
0.0888286742471082
0.0935046920763123
0.077581852332268
0.0860688361142425
0.066832655065839
0.102569095075338
0.0826032158775077
0.0954506071016772
0.077571963090189
0.0875297166162848
0.096427115856706
0.0909058161326845
0.0717249589987004
0.0830349603672629
0.0855632983692627
0.080262020076293
0.0790692434908512
0.0853249395764309
0.0932998422837022
0.0743206915402981
0.0797194487601498
0.141307333449611
0.0840037649109942
0.0975242742074915
0.105902695408592
0.0901560856915109
0.0742417021002769
0.0783569570932783
0.0827086264217649
0.0879127189386191
0.0731615392140708
0.0787353001525037
0.109813890861442
0.0902694550363897
0.0860454474004717
0.0855416450634895
0.0804633375724967
0.0870031834372471
0.0933269032334123
0.0943952001419993
0.0910938183484648
0.0903433554315597
0.0828397109063119
0.118705880565009
0.115265674006121
0.0916291493755493
0.14319405346032
0.119123635280714
0.0990532098166186
0.0946519040350787
0.0867858167275874
0.104627027504831
0.0903823317899813
0.0981606942006881
0.0923167000268694
0.106956678810263
0.110987599527328
0.104473540382753
0.105648122634593
0.122467083847575
0.154599137411058
0.16023753082611
0.131256056356421
0.116770570362841
0.0878824560786608
0.170617065481746
0.122686711224946
0.160165458761637
0.137395213766169
0.129076490579683
0.130463658701905
0.113689037873898
0.124720942712389
0.12019035077258
0.125775069753994
0.125302637619133
0.134942759687868
0.127324748269952
0.143435433309221
0.132086593227554
0.141015520653967
0.18270217156542
0.148069534746165
0.14651996291647
0.154674241895862
0.134743018552485
0.190186205843205
0.167162189839391
0.225274804768476
0.183970427647371
0.198698532383672
0.210319553380257
0.169742983533794
0.169907787660268
0.159759006759164
0.182650777207376
0.181311324115314
0.181314812157751
0.18701194001721
0.185907037732381
0.184458259065517
0.186512059920796
0.18843759211148
0.192945876717457
0.200265633106943
0.238148792249555
0.19975756153488
0.215035945774663
0.203191089088962
0.247426537865242
0.267652861159043
0.272183394940639
0.215670513846399
0.238350370101097
0.218461331594966
0.243678697439423
0.231640310936488
0.24139236581736
0.245681633419498
0.247643666014855
0.296434922991184
0.264553684594766
0.278974985831995
0.281683328655275
0.249063259372359
0.295411119906037
0.257893912904817
0.30309031584279
0.297990113735909
0.292325875275803
0.260070529611769
0.332537938936444
0.301489375040899
0.320367478841928
0.316766747801505
0.287438522077386
0.294479539191616
0.303310043043157
0.314355795900004
0.321603401382915
0.319020275578948
0.328989050862325
0.324396918318564
0.341958183113339
0.335566323902198
0.349718312107029
0.357131820305993
0.349650558860858
0.353436400149654
0.368929296301778
0.340525073342335
0.363358421349738
0.338269230704937
0.428541759462008
0.370701461344173
0.410435896176711
0.390857461679864
0.387303065746796
0.377104483138782
0.401799987472615
0.392931423170787
0.408794867167525
0.41208334720806
0.419019668322427
0.405552927824788
0.415695116873213
0.434535762805482
0.449390818180602
0.428193660003507
0.436859472090787
0.444404215643769
0.453762248531312
0.439084258582464
0.459797870519774
0.442029434038136
0.536639355806126
0.492348971488166
0.526596871029294
0.502644061788003
0.487176013171367
0.469953148148317
0.50046052209318
0.499509388468284
0.512272237707312
0.526217775855729
0.535296905094383
0.516410507116521
0.525489442937169
0.507799805774343
0.572629054711676
0.529229223917016
0.545071336947032
0.558336540264524
0.576205186145678
0.550053970224991
0.563591315317401
0.561203290627896
0.586084429530005
0.569969958753505
0.577278534434943
0.633151044519128
0.596358950919346
0.598398405893081
0.613416977799225
0.598972910980518
0.63317901777494
0.614194368237841
0.645504898389446
0.619691052084529
0.6206040239828
0.61369396208101
0.641190321984794
0.641151048378066
0.700896746268264
0.632712650836957
0.641137075271756
0.641053178349983
0.709145873837855
0.648065440088047
0.727793008300037
0.684434842011994
0.719367285856055
0.695247557872213
0.760236972769951
0.713398106032986
0.726601662186868
0.696324676521383
0.753885044798845
0.728027757389798
0.773633963614897
0.720818915710144
0.787922673642647
0.740125190995096
0.791709337461591
0.755586741665701
0.788963206453668
0.784462036119522
0.833731615183653
0.814297749775829
0.866499495969392
0.798954384915709
0.792767406174466
0.778143141493627
0.834616024123815
0.788796292018203
0.835856819220662
0.80825128679636
0.929213444802456
0.804666207209227
0.898818244882879
0.806094405936751
0.892476426579821
0.829389279489592
0.891538719861345
0.852711745827287
0.889920503962215
0.836859566141292
0.901881505775559
0.87962486553012
0.945447799512064
0.899419608441819
0.910376739786834
0.920743396189534
0.946859081098691
0.944951814186882
0.995797495573243
0.90689826001699
0.97736342267929
0.950992064281408
1.04603865614657
0.886519680779259
1.05075913612534
0.979900647661604
1.01398020684439
0.964216621598972
1.03019928271197
0.971610787678584
1.00797311320304
0.92550411521561
1.08461197469944
0.929378863382352
1.04178912901249
0.975231363295262
1.06827687404845
1.02312353255858
1.13294673352934
1.07012550193526
1.13595337896808
1.00683159759015
1.10948343940352
1.03458827921644
1.15298308351021
1.07067420108365
1.24242092227098
1.07167363813318
1.21081606325981
1.04181367514896
1.14823931970181
1.0463952579044
1.2403848292586
1.08623408629251
1.13520004867445
1.11267163852188
1.18960339139614
1.05473565409158
1.17064899500285
1.08419519448118
1.15638149397345
1.18129267414292
1.29584283416223
1.09496674895909
1.28119647540151
1.11490079985422
1.30533089737027
1.16481628533528
1.21602189874832
1.10240984502553
1.27808575771855
1.15530071357585
1.21535175123316
1.12735115186687
1.46709658177763
1.18531326163861
1.38074850879005
1.15963798157212
1.38805996365091
1.28194760600002
1.44856016935837
1.16617906047312
1.47363446086483
1.27549765990624
1.40853751487126
1.187851417941
1.3775685900617
1.29313989256756
1.39716614397356
1.22407654875702
1.34535055217234
1.33592867511441
1.41267130994901
1.26137069997633
1.33710048746477
1.25656818687092
1.53676636631899
1.27603300400696
1.38215053362347
1.2400411788912
1.49762925186753
1.35987109067031
1.44181630414276
1.26094329961509
1.42260881769876
1.35639225808426
1.29723120938661
1.40514984826755
1.53280016682683
1.35050266449089
1.44207566415159
1.35202065884194
1.42271689916095
1.36523969843035
1.43012577359923
1.31483663695375
1.48645755896322
1.32348283287014
1.44804630915761
1.41585592276027
1.86974981812163
1.39771395005214
1.73266447614269
1.28481686203172
1.63032079232435
1.30674087428928
1.66700075415049
1.4494795308114
1.55900703685579
1.50354994826895
1.66733075381286
1.46369383750283
1.71777079871417
1.31186744116663
1.71226278990602
1.48461585709436
1.57496419504488
1.40024909136185
1.92934421748352
1.44244350258338
1.43237977014489
1.39491304040974
1.49147092096112
1.45883728533374
1.59442034469181
1.45027576072517
1.89562766528922
1.43578025769161
1.52265474179415
1.46063817669568
1.5734006591113
1.52807849584937
1.57726186279086
1.39371388109542
1.54422100367902
1.61626575005756
1.61788501972017
1.46040580805802
1.72789452587791
1.46917719237553
1.7910094714302
1.33531211252163
1.56477239499142
1.57546263630027
1.80292559093319
1.6528160880627
1.69108751094635
1.50015762778898
1.83812427563944
1.44543020394341
1.59708892325407
1.60122076618878
1.57019271883592
1.40666270089627
1.62321562123386
1.4328150427755
1.5991389424766
1.55174355671084
1.89908824615388
1.60490650677609
1.78065671038276
1.44770442371104
1.77628269785813
1.47172462342296
1.58466012586435
1.68548977229724
1.77649621485297
1.42128922038067
1.5650394708474
1.52997074860465
1.86022705225856
1.70527883537989
1.92455737749822
1.50506610543878
1.56120214950701
1.4958730522362
1.7590290708343
1.52047578244335
1.61797197792047
1.46272638677153
1.86175195977031
1.49088488301726
1.64270384990835
1.62036886045595
1.52528993846606
1.4498967894219
1.66893684768616
1.43778019563333
1.7124345559557
1.69128502106117
1.71215588289858
1.52642567168283
1.51230173134912
1.56816498382087
1.69866447049051
1.52505215292271
1.79060157619838
1.6111602424891
1.78924218380264
1.57238533903229
1.52968421586782
1.57903758041182
1.90261034851421
1.5467145828505
1.75490470691318
1.51878356356058
1.63701406774103
1.56401026487969
1.74327545526122
1.55101908753474
1.62188122002571
1.47883463615841
1.9151103029086
1.46969720077053
1.54499452339626
1.6473591506431
1.69451307359923
1.61529241726601
1.80529828796857
1.3543276340552
1.52195023648634
1.47687137424117
1.52905248202908
1.56834181662278
1.71488993833458
1.52873945086149
1.70558293325739
1.5584459125082
1.6935146075447
1.80128439035913
1.72025359587175
1.65180290524309
1.98249345135262
1.60172561077779
1.78349930783916
1.59184165481518
1.70461489566119
1.51740608667274
1.82956077691849
1.52433878053858
1.64579377241982
1.41872580314679
1.73006394305233
1.49227375782103
1.59631585580969
1.52910320418335
1.50669707152779
1.57018716931828
1.59092877819782
1.53643239391285
1.68822732976068
1.5778060195608
1.78333174492063
1.50841027827288
1.68631545273305
1.43073974366834
1.69039209034389
1.48738591299259
1.648280361043
1.51516595091465
1.56425987455719
1.5159732794749
1.49587904745975
1.54686811636679
1.50612421779632
1.37672337222759
1.53189173482232
1.40413176875572
1.45414408726712
1.40665097918317
1.64984843145639
1.44784505563708
1.59377184536405
1.41278905574356
1.76261351811017
1.36277297304939
1.48849317843953
1.53019298403318
1.57376975293345
1.40754151310618
1.44856685129195
1.54966694464097
1.71481471525294
1.50916399351395
1.4448206352189
1.41113120943982
1.48360665316901
1.4249321534652
1.49477793571374
1.40061422014511
1.51836647923005
1.37961838784682
1.5015287938288
1.41516305017191
1.40327421453218
1.37821376800733
1.44896782940564
1.38430472926323
1.46731413467591
1.4376439699341
1.40788203403978
1.36149623606525
1.42206920554707
1.29415211472802
1.45291764106782
1.32422450831138
1.37309769794101
1.287691292783
1.4097003324553
1.31073444512478
1.37301459925691
1.26683644437
1.41584571957356
1.29069999822265
1.35513311400603
1.27314070467629
1.34717455647606
1.2699967425099
1.31850517052634
1.33597166468219
1.32699647840613
1.26014095331786
1.34016302865852
1.25688299006118
1.29076535213588
1.2827439516038
1.34592673805227
1.32187035363012
1.26993282936489
1.28553138510984
1.32318103803005
1.2184370524806
1.27013283463344
1.27210213879455
1.29255686688592
1.20639031573552
1.22332954898858
1.21896824934063
1.21278103315166
1.24468363496921
1.20987095458454
1.18083361233368
1.2794844512363
1.22654094073783
1.20270975740047
1.17656603094648
1.16840369520279
1.1761210677378
1.1795017327707
1.1627169587759
1.18495028608911
1.12541213803697
1.16969813865542
1.14166900238285
1.15100373569401
1.07586645283882
1.16961452317141
1.09612270244978
1.14994736091451
1.08157132269452
1.09454604113565
1.08480135579138
1.1007459837357
1.07318822672608
1.12809399323858
1.04231448191658
1.06869977566581
1.05855394867056
1.03812471617909
1.03256442781165
1.03500387780634
1.0385007290914
1.05565876990299
1.02804823902213
1.05605795572334
1.02279729699499
1.00070776057807
1.05020030822433
1.02542048978493
0.988171588711684
0.960714701253808
0.978207237259029
0.997853304164747
0.978266055409189
1.00060334887893
0.981534391496521
0.95951399878797
0.930277456215091
0.950855095429403
0.945642341527177
0.969281211410214
0.930521079783723
0.943832454873723
0.926487508700397
0.937013867756922
0.917191827262889
0.922091207459016
0.897121129325
0.917089727663547
0.88432818877935
0.920990875060816
0.874471119672198
0.897120372276655
0.870001756552571
0.881150350483614
0.849165200869108
0.864031363206882
0.854284530483536
0.883461377615879
0.851695066769365
0.865563171969532
0.857723521452444
0.84709976517108
0.832732661368154
0.834696891509333
0.827070129308897
0.853504206144974
0.806115463904436
0.818997503485782
0.792347278688559
0.827076441262235
0.807398550098333
0.815305705505532
0.795025774222328
0.799981201906081
0.781381265246946
0.779269605772343
0.78738057293134
0.780752554437113
0.759836837705907
0.77829315921605
0.766561451541416
0.770515543685264
0.737701712713817
0.754960284383273
0.745749980772228
0.75497600447373
0.731693084111411
0.753874713870622
0.727712454624813
0.721869883137909
0.724876043329026
0.719874583983766
0.716862831580004
0.732164493256811
0.696883547642044
0.720481116947494
0.701067719174367
0.708235206415751
0.696353603848937
0.703789304556266
0.689831089840232
0.691405199387111
0.666387678783537
0.68028697404652
0.663382992571947
0.669018374976021
0.65099193916241
0.670981291336353
0.656406852942013
0.661248625217758
0.648967032468958
0.646511511480906
0.643308089834338
0.661414560863193
0.63159590970514
0.640724071162573
0.625210322153206
0.642770448379713
0.618934024488908
0.627403263637912
0.609957910103203
0.618969851156484
0.599515252426985
0.611622161393205
0.610813781945767
0.619884530129886
0.596092037773187
0.601754377944696
0.592840061864006
0.597839718837016
0.59340677271976
0.587595095106891
0.573215575526141
0.583133714044161
0.588526507962866
0.582221810087829
0.571239839775817
0.570041229901923
0.56652599944785
0.561848796662256
0.556422673610648
0.561009525730343
0.551314777987141
0.545983438774472
0.545573219954037
0.542424199541321
0.536237115838848
0.54242148749384
0.532436829024445
0.536371671893295
0.531355412666264
0.533459521396902
0.519521237674851
0.532240290528949
0.517750355316159
0.512156132323829
0.516407730101421
0.520638619385636
0.508837815804153
0.522113927513029
0.505348499550849
0.511138846028622
0.501364872175891
0.513931890264827
0.50458844050157
0.510052532787592
0.498357215010205
0.505482287095575
0.498410746890502
0.497379093178508
0.488269938217681
0.494787496853256
0.492737074907549
0.493905487553162
0.490300604797418
0.500936303704308
0.492022864751198
0.496102307355449
0.496775526754978
0.499058414354631
0.491264533512974
0.504576795777562
0.502397964932577
0.501485268795203
0.503212597412744
0.495667309863981
0.487760881528994
0.499503932490285
0.496396292735373
0.49153821410467
0.50213749016209
0.517121507665067
0.507906955111402
0.503253787319507
0.509080274946326
0.509088376786768
0.510048408963481
0.512619763220889
0.50912632554317
0.510503081385619
0.507443782416432
0.517154087579801
0.509874498459187
0.527025538638524
0.521341715313174
0.526897036076631
0.523263845152838
0.528281295832421
0.53150960859354
0.531116452601525
0.531175399084706
0.539108863951194
0.537472941392106
0.549298066107807
0.553304619680241
0.543892995073195
0.551467792391751
0.563712649221769
0.561371248267018
0.563159854746572
0.574374203156032
0.570310613032034
0.579395296975292
0.582703796884279
0.576691496076442
0.590318124982774
0.588052995280471
0.591214230592729
0.591989403379076
0.607167661648757
0.609693056287469
0.618603219565454
0.611961950774779
0.617532661082851
0.615834135082057
0.627567994979931
0.626417172919268
0.636682539983666
0.643166799526455
0.651177942401584
0.64032673248719
0.629082941707981
0.644187856170943
0.661430915725806
0.640002561133809
0.647728837730329
0.653141496249364
0.658150449426504
0.639798323682819
0.644718369185294
0.640200530484636
0.652761863304474
0.640742339557845
0.643845381733676
0.646762748783879
0.639185968757026
0.633306070187407
0.653427131498863
0.633964062736179
0.642349305299928
0.644935152480711
0.649080914495667
0.633404751002293
0.647971250860821
0.633938272037433
0.630859720214724
0.631019126788195
0.638257613755572
0.638798969681281
0.632289513253981
0.627074714277742
0.627711262828361
0.639543700321408
0.641022964520563
0.633798900226096
0.637883181544003
0.630290543993449
0.636057327903153
0.635242076417773
0.64531651982702
0.638475102150385
0.654542060804867
0.634759901878388
0.645245932065657
0.640233805127378
0.638548021063103
0.64266224188838
0.647402308640188
0.633120539681106
0.635378642804561
0.637105366018467
0.640925086056208
0.63833702272614
0.636571946715464
0.634305102392583
0.63288896844211
0.625284205077702
0.634386336206617
0.627253359571985
0.622719594213772
0.61317534329525
0.614137008747922
0.613964527874853
0.621257962943484
0.611879537088172
0.60422822037832
0.611038134857962
0.615151753625195
0.598799403654198
0.602040426524507
0.592485924726157
0.586013773570305
0.583681164134586
0.591412659065026
0.578291985333706
0.580756979633672
0.567324784720706
0.565986808065373
0.558448137514632
0.570795574450525
0.558820749932929
0.554876865393339
0.545785346167437
0.5438343172835
0.539180362808797
0.53439462153925
0.525115485531123
0.519534913948609
0.517305932920779
0.523075464898274
0.523599348317585
0.521994910890006
0.504341223477934
0.512191600736935
0.501723018673922
0.498307889474949
0.494357234679578
0.489364532889562
0.491392139790655
0.496174974736321
0.489157032894812
0.480957623429845
0.472674558777625
0.474166748195697
0.478644774364435
0.476395215089672
0.465418524716367
0.460715937216148
0.459464663919433
0.462779366571757
0.461531432683903
0.458597621578462
0.454973169238163
0.449952789595897
0.437595088556426
0.444422185361702
0.448453138296939
0.436582251467604
0.439973302595765
0.443389279390122
0.436080348830144
0.439689926526069
0.436652355762341
0.435995271627728
0.426824015629938
0.421880488335923
0.423049341711391
0.424399813573267
0.424211518365856
0.428439326573637
0.421442827924504
0.41825698219784
0.420509982569107
0.419010869504157
0.414422874939051
0.4101178083352
0.408033561891048
0.402660935046903
0.40174085739283
0.410414127884318
0.401741213750205
0.404041153017434
0.404359710305258
0.404297649680593
0.398287794849343
0.396229712692579
0.400054406749231
0.391752553282575
0.393031767987597
0.394813435321249
0.391275852558729
0.387066407626538
0.38490756655187
0.388338784188652
0.386924202043479
0.383478959931719
0.383159151016195
0.380448676867576
0.378541931266258
0.378615100725005
0.376131482513895
0.377552790242999
0.370772991627479
0.370624047784565
0.376127750243317
0.377347695247547
0.370881223571805
0.37207067145618
0.369187113987199
0.372732912671459
0.36774827315582
0.364135871075957
0.368776985404942
0.359902837034889
0.360550723174747
0.364172373942724
0.360538322597383
0.357515911073848
0.359017121576869
0.36018672101317
0.355238574243974
0.353895558709662
0.355126649555994
0.357134578188415
0.354242046518068
0.351061197439414
0.353541190461777
0.350200777435497
0.351687332170633
0.348346118641794
0.349155631703929
0.352778557454998
0.346591027671104
0.343122567272053
0.346121567859258
0.350503699061398
0.344811975208589
0.339344042117014
0.343203768290631
0.339673368755883
0.337719643616903
0.339047356240123
0.341576357946538
0.339909546730187
0.337453689502737
0.340027706501875
0.339834040969064
0.336289042800391
0.334733624348929
0.334813713693008
0.336432551124074
0.337958636341734
0.33593212693958
0.337211369008403
0.333381564589876
0.327901761451052
0.334957927632539
0.331072064564755
0.327706999930569
0.330769096685792
0.334256184787385
0.331807552018137
0.333535759426294
0.331567848776703
0.329462565079683
0.327303853422466
0.328924037189357
0.325526570809531
0.325691152952088
0.325613596287167
0.326401662182464
0.324928966748352
0.324321671457566
0.32092755668693
0.321145546485109
0.322862884718417
0.329399497555782
0.319432607873207
0.31650691402205
0.321450921023838
0.319531122573163
0.318610747030442
0.316346763193573
0.316764238477598
0.314086166830034
0.310821773143865
0.312061190212847
0.309265875963171
0.309078432132371
0.310155610350881
0.315678489422978
0.305406202640114
0.307444328584977
0.310497757536081
0.30325126192513
0.307216200139742
0.308951691453973
0.300246444632914
0.304295490273906
0.302446629450056
0.304124899467461
0.302142632165575
0.298460516349197
0.298926974411488
0.299641303504555
0.298218320236937
0.300732978959874
0.300005223470187
0.300646845822863
0.295052934159883
0.301980273243223
0.293015738060954
0.293202309848313
0.293845243897478
0.292771217303838
0.290492900186729
0.287321799096335
0.288940897996424
0.288845640364727
0.284033448038629
0.289020758586615
0.286887257682131
0.284445944733613
0.279304181086798
0.283914904763893
0.283190652884023
0.281901573476159
0.277505174200414
0.282836730982834
0.27664830471963
0.27485107230677
0.274407758063878
0.277231775821793
0.269799075435117
0.274311498010504
0.270355183604842
0.266508068049133
0.270512899067821
0.269494872347276
0.264723970351213
0.264338652253259
0.260352489130493
0.263067306424984
0.261535782098667
0.264980923996458
0.26216576752751
0.261384149091804
0.255966225887738
0.260058575002238
0.259238163896039
0.256957843388912
0.251507495728027
0.254997215710862
0.249156311788048
0.25070417290096
0.24755301843356
0.248622753152139
0.249215995494923
0.249088896650691
0.246755388043515
0.244501638856774
0.245074414431384
0.245827738111894
0.23718581079891
0.242770064766996
0.239444820727776
0.242395454972256
0.236505626122279
0.238891925707416
0.237485161313739
0.234961058296998
0.236827479633392
0.236862657361847
0.229226070058953
0.235990665510125
0.232038497820347
0.234096743253238
0.229772598557246
0.228127696928571
0.2258580584156
0.228730550660867
0.2249637232111
0.227098907538137
0.222827971261872
0.223475036837623
0.221801117129071
0.224588422103056
0.220988513218209
0.220483843129046
0.220345645253206
0.221376241033249
0.216455330637371
0.220773604801965
0.216576444370971
0.220366377510586
0.219941651159709
0.218470544622646
0.214650763657317
0.217052188921763
0.21050863235724
0.215429706022221
0.215547574241221
0.217799420532013
0.208908402896187
0.209787713541924
0.20961969852024
0.211605465603072
0.207996765215267
0.20918607471696
0.205916816703582
0.209542974421749
0.206543632868568
0.20730475584817
0.200579101323591
0.202836436612813
0.204052549364975
0.206553754683322
0.202507874888561
0.204884399450928
0.204497320640293
0.20263290920333
0.196571874226462
0.19892863836012
0.202380593363218
0.20188711529276
0.19699325197208
0.201647982853678
0.196442934283386
0.200938586170769
0.196300212604007
0.199404457324832
0.197640339419375
0.198264020446309
0.197259564853688
0.196163522599974
0.194330840327155
0.1962627195139
0.195307577013906
0.195250493785759
0.192469018290982
0.195338638808614
0.193207317732533
0.196273752602616
0.190948624330911
0.191595497277973
0.191464960572377
0.191599142242887
0.190679024760418
0.192104252743762
0.18978025070163
0.191983659333671
0.190538096520984
0.191198713219515
0.187565991592137
0.191079099362755
0.188504543054728
0.187241611755442
0.185262162368915
0.187417736043277
0.183153567398981
0.186427752276669
0.1845904395111
0.183468248255139
0.180502031606193
0.184664244366622
0.181669146583704
0.183214339772642
0.179064800033237
0.184664339859398
0.178089418188145
0.18079827103163
0.177634186422473
0.1815700136035
0.179019237492084
0.179830711362967
0.173273890593054
0.181353195679177
0.179248330455934
0.178262156118332
0.174460142164355
0.178205582481906
0.175769446720936
0.177849533093011
0.17425054281514
0.175394720404325
0.175583436643773
0.174854886674847
0.172404874078549
0.176450292059167
0.170548028827213
0.176966205123671
0.174064846085533
0.174273383167325
0.171370711557292
0.168512885301222
0.168014916773
0.173882257305009
0.171162058146606
0.172691987171555
0.16734131814474
0.169772939290206
0.168053264757458
0.168442119078561
0.168439171942734
0.168254305080152
0.164172158333074
0.170205924511291
0.167228702198609
0.168272661868117
0.164260021854117
0.170034449446283
0.164815820041547
0.167224532811774
0.162629066385963
0.165859640706077
0.162578977807425
0.16521414529442
0.162586632428276
0.164205000689494
0.158624287958837
0.162601304180704
0.160394802281452
0.161455058689897
0.15665520375347
0.159130086017869
0.158300146882452
0.15814188309391
0.155516333730548
0.159382655185112
0.153555638070383
0.15701646069217
0.1548726334991
0.15563220548208
0.151144438003389
0.15436710818235
0.154130470195036
0.153545322290797
0.148670526020778
0.152975207294401
0.151785135793507
0.154850178088233
0.149977733135306
0.14962096390146
0.146767650035029
0.150623627482613
0.147723115681386
0.147063131804399
0.145781526289279
0.148102523365982
0.143246010054229
0.144414565842949
0.140871793782083
0.145725393686208
0.140877516486461
0.144096454271171
0.144475726667407
0.141312356874655
0.138374681018101
0.144161152746108
0.138469872310771
0.139205728329975
0.138891969363817
0.142044151910311
0.138858673933283
0.144489261487139
0.137874544778794
0.13814971542131
0.135875584123394
0.138018665231139
0.135875899670735
0.137714957575916
0.13565821188211
0.136937755985001
0.132131704226723
0.132821380357756
0.132904038158977
0.136167308522479
0.129980575035001
0.132192590056547
0.129660902645973
0.131739247494983
0.128419124407568
0.129208593186712
0.128238958049731
0.130353180676512
0.124160018901731
0.130751139676048
0.126200352320246
0.127132021188188
0.123438834224698
0.127648282388643
0.123678155251966
0.127281862528945
0.123216951613093
0.126151170516997
0.123078918362128
0.124605099744687
0.122911355947755
0.123570289244426
0.122199612964874
0.126151045694804
0.119562699069771
0.123006313074028
0.120840547899536
0.120957996739824
0.11683067813243
0.120374688318926
0.11993894242688
0.121327391469343
0.119027564196268
0.121875798839338
0.115450442903853
0.115795405666311
0.115950598009739
0.118081949397781
0.118237473333537
0.118647202801316
0.114986861845688
0.116727471339785
0.116067834057268
0.118949539967758
0.11670160790403
0.117586685889837
0.11355825388276
0.117330256865033
0.114158271702591
0.115749081555123
0.113572844593482
0.117928457200967
0.113400986382594
0.11608176765263
0.114190283518093
0.115103078804055
0.113752295498805
0.118638864331234
0.111876453903701
0.116510864865166
0.115593043815717
0.117513671359997
0.111778483060527
0.118283169022621
0.108116555026722
0.111270041638173
0.111693657008871
0.117127178049175
0.104211519935773
0.109758072570807
0.105163102465839
0.110690103132945
0.105015145067323
0.10666350455917
0.107054516422352
0.109832286266556
0.102877588410754
0.105967688554781
0.106456098707126
0.111878738596572
0.101247458415517
0.103882873184297
0.101040953172686
0.111743056569328
0.109301234379361
0.106751246824491
0.104915579275528
0.110240160890092
0.106202816190053
0.112398655451648
0.103129867767788
0.105444123744184
0.102200261208528
0.106422228187348
0.100027015734656
0.106932679066239
0.102990956222957
0.101240564216425
0.101975606404969
0.102875149667818
0.101239410608023
0.10676810718143
0.102607466260849
0.101128797056351
0.1009204759457
0.105978823795194
0.103393176688031
0.10338385467057
0.100683531408316
0.0968856047268549
0.109050890191053
0.105779223872663
0.110714318232848
0.0948055627180422
0.105814745943122
0.100279497771783
0.10964799409151
0.0984653541409886
0.112548297624968
0.0981638175363462
0.116209545929344
0.096529904442708
0.113760204892931
0.100708065682136
0.112346965379322
0.098436002235107
0.107927633906212
0.104383178294322
0.105259217689013
0.107849941187278
0.102927876219499
0.108652261206619
0.1023942510096
0.106846872430609
0.0996575715322906
0.107178630371452
0.101699144843648
0.106917815962867
0.0993863618118647
0.104240860775079
0.103539239088331
0.102808335177226
0.103941009596137
0.10058571559082
0.101610878364187
0.103690190937998
0.0979790785245922
0.103246324395359
0.10051234815206
0.103502661130032
0.0996782177384819
0.102752067344873
0.100497984628858
0.102664221829671
0.103631428441157
0.103560033146989
0.099470976585216
0.103800831672344
0.101766652729249
0.104682961296523
0.0986438270175569
0.102553077418839
0.0993562208558267
0.101903261095487
0.0993219897223805
0.101659879137492
0.0997457204145619
0.102043508801613
0.0989746299053824
0.0998331195949882
0.0989030909049331
0.102142416361988
0.0995122241119127
0.10626510039547
0.1023484237765
0.103548717538257
0.102679531601463
0.103679397721543
0.101676121610978
0.104281255483598
0.10131778859903
0.10394915454126
0.101724595319195
0.104270981532454
0.10307911611923
0.102525297412422
0.1004735249555
0.105539815915971
0.101619469375201
0.105175495610021
0.100536540099652
0.102859447860994
0.1013330060326
0.105426576980442
0.101482038436713
0.104105583532294
0.102690012844559
0.104763376147893
0.102501887189965
0.107775025653934
0.0999783444223193
0.103863902838108
0.101270837592244
0.104415389099647
0.100449657594898
0.106612042851968
0.10184882267871
0.104133363836116
0.102967075824563
0.106697066739239
0.10318511945507
0.106633209931931
0.102588955070453
0.106794667699505
0.103005964353744
0.108030282663004
0.10372773747808
0.105313031469126
0.102419321064145
0.106893016401609
0.103572540319207
0.105104227709065
0.103839869579509
0.105287118953941
0.101879818785614
0.108484708592915
0.103767121931597
0.107425904449074
0.104394536890904
0.106180649678502
0.102981846788606
0.107843514036672
0.10643918292662
0.109423433301435
0.105182843097955
0.110359714389796
0.107014763217232
0.108633551297989
0.105260375936929
0.108605650501778
0.107505855998816
0.110362963569143
0.105078562386256
0.109514909544812
0.107060483781104
0.111218787258526
0.108307266686347
0.110457670684583
0.106000004352662
0.111804025188628
0.108111463310815
0.1091385376112
0.108139373663041
0.113770325567148
0.106158308578369
0.11226039241856
0.110583407169191
0.111928068126203
0.107912497581735
0.113063724770818
0.111077076059917
0.111803383851922
0.110854694622719
0.111632869476487
0.110159605207661
0.111987676318111
0.107677951215272
0.112229631397793
0.110819919850572
0.114626809097679
0.109491213645272
0.112469224384608
0.111805506608994
0.113783591278715
0.109892820958024
0.110983234356481
0.110668232515938
0.114367917030179
0.111155301464092
0.116140203955167
0.112473934728032
0.115514593860069
0.111678120089112
0.116932580612435
0.112623134124892
0.117317045997522
0.113929200065723
0.116415644730272
0.113704299750264
0.11794705404179
0.113959474205478
0.118736749324047
0.115169227335412
0.118925435361381
0.115597602954941
0.119609085429389
0.114494600859226
0.117939040365066
0.117127180135858
0.116873830731415
0.115609403367655
0.117420339186243
0.114756705246577
0.118411550055035
0.114720792346671
0.118215604101443
0.114072409125456
0.120698976386383
0.114854355973991
0.116248973608665
0.112265784810018
0.11813646791504
0.114785272313985
0.118125034430157
0.113324254139235
0.116956324034256
0.112985562510609
0.115849454169314
0.111572252564644
0.116440186920541
0.111215341908639
0.116856043582725
0.113904891513022
0.117593290229399
0.111140172200702
0.115270916219073
0.112189164418737
0.116464492579566
0.107858887030307
0.114690382715648
0.112598863887444
0.114383772978463
0.110004563491834
0.114385237571335
0.109637803544791
0.113284402472781
0.110946782885562
0.114243600949384
0.111101339425678
0.112788300876465
0.110666709930718
0.112843206878321
0.108267410669973
0.112232394282511
0.10847121138664
0.110359035720683
0.10989520656564
0.114704261830602
0.10818196552355
0.111184542193719
0.110427967120789
0.110440066335496
0.107943173331525
0.110662245191886
0.109479940100247
0.110485398830423
0.107236580310355
0.111063903327043
0.109022790063369
0.110919496471557
0.106426154694945
0.109829370549134
0.106431464623275
0.110481450819665
0.105978105088877
0.108320932466556
0.107512226397434
0.110505090220794
0.106082751999786
0.110685641992074
0.107349117848246
0.110364388191941
0.1061511838764
0.109941703861021
0.105145579335183
0.109919207947804
0.106784090498952
0.107065144584994
0.103168935019218
0.109216537334828
0.104927997899268
0.105783704993869
0.104084563869584
0.109046634089444
0.103614012817963
0.109132698475213
0.104754394794425
0.107341293274995
0.104534787524854
0.106896502975771
0.10483999949466
0.108698192038267
0.104454026289755
0.106552681421714
0.107950511570854
0.109366502256641
0.104369024986018
0.108089746252392
0.104831395509692
0.109663761876054
0.103586857460976
0.105831138941383
0.101922777801748
0.106923923036227
0.102247766415195
0.106606748169224
0.101356782894111
0.107270755486714
0.103345163570214
0.104188458003817
0.100970791214275
0.103998553796456
0.101657536544191
0.104731616319664
0.100146390616331
0.103767930013311
0.0998383040005039
0.103999544039849
0.0982925859682106
0.103880719818328
0.102508733587551
0.103160988215284
0.0988037403285947
0.101879991491229
0.0968500500296433
0.101859482607213
0.0993835376904901
0.102250033978243
0.0975943088796737
0.0998523668234166
0.0962367163969102
0.0991357446276709
0.0960164078512371
0.0987748759637749
0.0934301436555544
0.0975185945560128
0.0970200578219132
0.0993953219391528
0.0956833659959625
0.0990390111472169
0.093653592255605
0.0963586074018238
0.092697428418673
0.0951125380485861
0.0935054803520021
0.096988070288505
0.0976500264920999
0.0976225280845758
0.0892565787702998
0.0932449291415939
0.0917187219135125
0.094836425121756
0.0900148252307803
0.0933470818876747
0.0913528983345515
0.0908376712547043
0.0902791467991566
0.0916192818695712
0.090337543866397
0.0905681139163472
0.0889729883546286
0.0893594940356985
0.0883805576575207
0.0911180818764305
0.0867893734411451
0.0906029891011686
0.087160200176909
0.0886370533870419
0.087603729767414
0.0888600996532692
0.0838839360139356
0.0898987565186236
0.0870523210704697
0.0944287931007644
0.0882101098055709
0.0884626338421614
0.0853875451409093
0.0907146178360748
0.0856745063896236
0.0876924873027487
0.0838132814905494
0.0878303676103137
0.0863606129281689
0.0861104829216593
0.0853449322153779
0.0855020275474787
0.0820934194447419
0.0871830658344062
0.084745342483914
0.0849898312484504
0.0821636586661308
0.0867905175968574
0.0819833010906057
0.0856293234672062
0.0810384286896148
0.0835846282164785
0.0858633972940969
0.0871659762934945
0.0814305467781741
0.0911331037824559
0.0866582246497041
0.0894779035428001
0.0811734546191419
0.0833113025548207
0.0777710329243421
0.0836368690013356
0.0804407398748695
0.0835010701152678
0.080413185203077
0.0826070206060606
0.0789060982437824
0.0854343030027884
0.083221531437205
0.0812784160170024
0.0795255199761746
0.0831466084976246
0.0767184100614617
0.0822700509914297
0.0788279598680765
0.0837899536972311
0.0775218870575915
0.081515441669319
0.0809112175351601
0.0850376391291491
0.0764057548271902
0.0848811725195078
0.0960724118905217
0.0861315773752084
0.0774909294634895
0.0803813519157097
0.0774300443067174
0.079328513453743
0.0769331348282311
0.0792470175607931
0.0777273677317543
0.079291364449785
0.0783814676682716
0.0807353713625613
0.0793471009326426
0.0788020870612832
0.0748354677350159
0.0778977590985665
0.0773773441629246
0.0790982643731818
0.077319454370689
0.0761051834732703
0.0822383516807589
0.0932706307282624
0.0825255148476923
0.0803911731121125
0.0810251390413069
0.077325665449053
0.0916878613594557
0.0836131801222684
0.0792808870071088
0.0804164214497293
0.0740264010658717
0.075895242194582
0.0752291836815122
0.0778674708497526
0.0752274360952312
0.0843696837902826
0.0763318418579873
0.0847750364484452
0.0763192128373824
0.0794228321035988
0.0734138235846089
0.0772449648717702
0.0733742183272158
0.0775804317024719
0.0730338256831735
0.0779883614208078
0.0765080169758798
0.0755842045618667
0.0775726188353148
0.0764983287471766
0.07734542351395
0.0865430259332771
0.0763928898848717
0.0769892344054121
0.0783554165317009
0.0764077124377848
0.0765301115908571
0.0982239836285487
0.073110578072249
0.0818602835772941
0.0724076903333075
0.0787287265326574
0.0766151281388874
0.0778720978892826
0.0732121937529313
0.0804516021559134
0.0714175475055776
0.0789530842786705
0.0740023125588962
0.0771324805717766
0.0739219836454767
0.0783032954465693
0.0741222583437707
0.0776406156320231
0.0749054814297996
0.0772568853683624
0.0775320322113976
0.0778186677084571
0.0833930633285172
0.100554535868744
0.0869574583764611
0.0909948478024523
0.0799776712100468
0.0786082230670818
0.0739604998634481
0.0797989301807537
0.0745858841151903
0.0811549190801336
0.0744141029027612
0.080333196236701
0.0738127592176199
0.0804618522729093
0.0728262883758911
0.080603744648574
0.0723485551957832
0.0800310020831131
0.0707037284194721
0.0804743320816644
0.0701511847075821
0.0810640391800656
0.0695711482910695
0.0905001846937105
0.0768853949027224
0.0867311910932712
0.0682739632754691
0.108028413014661
0.0999884928252209
0.0800223717338746
0.0841129375158385
0.0794187883801158
0.0784109774870313
0.0772400303227962
0.0767894181092633
0.0857999475709439
0.0803849941873534
0.0796748949860848
0.0790399517645537
0.0811582982063103
0.0791855557435809
0.0781409870302734
0.0762730440855077
0.109163960280582
0.0863456455655061
0.0859813573801788
0.0772050596369201
0.0842168795678667
0.100036257653158
0.0822892737371615
0.0867767461344677
0.0835613426332194
0.0779684520265495
0.0816340084341528
0.0783177111228309
0.0810597336266067
0.0830399190462379
0.0853782216922398
0.0778992531020429
0.0860955259922428
0.0764708889031181
0.0882595495028714
0.081149651834012
0.0946980568311096
0.0919388646367198
0.0825546559401133
0.0855919044811718
0.0867587882708455
0.081991614084816
0.0889084765919453
0.0810918363512592
0.086265362652914
0.0893187563226924
0.100470578246555
0.0839240646665607
0.101641861690835
0.0956383296579915
0.0836637179875147
0.0881573628154848
0.0949086685985444
0.093706733904901
0.0865709844618758
0.0894340923955242
0.125399297677741
0.0928086068028959
0.114434343616234
0.0796478391779506
0.0970040713664422
0.0809220335539336
0.0969281355390901
0.079729985462306
0.109807456664363
0.0832975517734108
0.0976577654427991
0.0829791201803903
0.106461253998416
0.100778389750404
0.098118107869287
0.0951388490055396
0.0946360295296218
0.0904771654578107
0.10385872694882
0.0989889351524281
0.0902432727204857
0.11757649614884
0.129432856588999
0.113085303067299
0.104871930117704
0.087625230328218
0.142000569864859
0.0941635135544149
0.103659223424428
0.0934004422573704
0.101472129993681
0.0955376506619749
0.097804052822305
0.124270828577032
0.109646626568776
0.0974879090912737
0.11221613016042
0.0915437699300602
0.125871729107402
0.110343907882242
0.108326278244841
0.100529315181887
0.109844455973362
0.0942036594791694
0.154538901102424
0.121960417318401
0.120950518491486
0.136909902405976
0.121796424648973
0.126299378607898
0.118776113135575
0.120574329482889
0.126248005191694
0.135513420881283
0.120040299874053
0.113190401986233
0.130080488499542
0.152038290783795
0.117525187545965
0.135116811307503
0.121659164202359
0.123855376048539
0.161594865079047
0.191546524390465
0.160087546486064
0.138998415587349
0.135038517444282
0.165208291937608
0.142239374862124
0.137058413977943
0.140548663112231
0.13911692996412
0.144861773711228
0.142397284184814
0.160373871987188
0.147820493320652
0.150465728370678
0.151435294073694
0.148848599149975
0.170055121987093
0.202302184133685
0.207049311697804
0.161598187498385
0.211919090694383
0.191703673151944
0.177267395483659
0.175246064438784
0.166199420067365
0.189173732096408
0.174486737298037
0.180652441516288
0.170411374346849
0.209737086603414
0.198246141821197
0.187342119400346
0.220014295083188
0.188952564018163
0.208859670854608
0.176783244339073
0.390102617352022
0.226290205550419
0.229568331248177
0.231235366448105
0.212653784275892
0.318533133897311
0.24090154502226
0.239794055277113
0.245390060632563
0.250397733306745
0.25383570281263
0.27064850032812
0.269037882871786
0.285375189411775
0.280199411010829
0.287346238868259
0.297753420873732
0.386248171842745
0.351559598319073
0.342738372325369
0.311042487079459
0.353140679870188
0.356504790518452
0.341645347638803
0.34847072346327
0.359058385258338
0.343735526581422
0.451046783499802
0.375242337306938
0.39879904823201
0.388109648590572
0.453469358213904
0.391234476505179
0.47428504265651
0.458779694033784
0.436004550904767
0.442001586394829
0.442743898502332
0.460815105279158
0.447908914530575
0.513061984652
0.496206309560129
0.47514748071073
0.497573668405631
0.489631568338419
0.508218153025212
0.499509892801187
0.521279823377534
0.503641187540039
0.574115213854066
0.52866859670918
0.724970825330368
0.563239081545745
0.522480087873839
0.543956543933427
0.519116130663976
0.580215916022644
0.572371897246853
0.596938716554312
0.58718112426338
0.528776754697561
0.564477149747931
0.549126633360339
0.560589771879698
0.537077638073748
0.571518141921963
0.540473481716551
0.597621644669247
0.556548196735016
0.556886037473169
0.666432586632638
0.560702692462842
0.552373118115231
0.545117181319376
0.550743985346798
0.54003302094969
0.547621021310033
0.538137781269635
0.589151690989681
0.527807634651076
0.541885897945873
0.531852745679307
0.551938195172588
0.568411349611896
0.520321260787602
0.527851441697176
0.51037353050676
0.510677690766421
0.500486905431716
0.503055667017381
0.578847135425814
0.506041534240508
0.491358615106251
0.491905085247257
0.481413573345313
0.485048696937044
0.474481392413379
0.477558837469336
0.483331038935315
0.471375319291244
0.483645987040402
0.470112733831329
0.466409147045499
0.470548711707486
0.470426541042517
0.46898931527932
0.466830959324938
0.463972441273598
0.452377611120502
0.460530295598967
0.452212416824074
0.457570872510021
0.44588206134786
0.458702342193075
0.459298299126103
0.449157776199692
0.45061193484308
0.44913835503953
0.448787760698
0.455500201323522
0.436591007789508
0.445785873358348
0.441520248056415
0.445865580570172
0.43067305944297
0.441000270004807
0.429384749764111
0.443310430137545
0.433107784404095
0.434351577092376
0.421094207458257
0.443480737487127
0.411557300125142
0.498714544816205
0.452789328879605
0.412688648242743
0.426160900541274
0.403604205853652
0.419860652469373
0.398476960084789
0.446338186605264
0.434729515566518
0.396323649123933
0.402083326320114
0.385953163275268
0.399576341324106
0.397795520232479
0.374992354914663
0.387396669492647
0.362849328809465
0.394776117381851
0.474220581452068
0.397236905323584
0.482108628096903
0.376333903754466
0.361667372836549
0.346879941934717
0.412424101223046
0.339040743991181
0.362418789031274
0.331632024139405
0.393838994935434
0.35850361278684
0.327463015945815
0.336789787692027
0.327348344243796
0.346938197472386
0.365099768935281
0.328782260247538
0.347464105040026
0.373270286807206
0.339242084002475
0.390360029658034
0.377245244768401
0.347490596027104
0.304601179881637
0.310189769917397
0.309480260452957
0.291046572646703
0.382303343632807
0.299795405834225
0.316320290464614
0.298356176056695
0.286920310505717
0.29690878043096
0.301285714011429
0.317923438061919
0.280466119891163
0.342330270560706
0.273896470809768
0.302016625219576
0.307454563872273
0.319647665591423
0.339934011702926
0.282021971690547
0.281784920591127
0.296216980627557
0.330871411378229
0.275489052961921
0.299789879813033
0.270055396831055
0.269977765228283
0.296598374342084
0.26758118323787
0.283962068569537
0.295274710971199
0.281829157816043
0.343831068809015
0.324364632739829
0.325500573561587
0.286191403685311
0.262899001939312
0.27488411439076
0.267169807143988
0.277716121292388
0.265011278918839
0.290371485976535
0.297071367086111
0.251461612842571
0.347952187605419
0.28650971810836
0.279439928802395
0.283440315197734
0.285460001824137
0.290302524265894
0.323766332405896
0.331734576364242
0.328595347793383
0.302558285600811
0.347104515354077
0.300389117786823
0.323777021362821
0.312632226226868
0.330009886453629
0.322595425503343
0.350629396453874
0.342018185277991
0.353385306105664
0.34617582430037
0.368609963389247
0.356802347498924
0.425195569094308
0.357049444654508
0.432709761067667
0.404869049233259
0.46558955058402
0.425468379283547
0.415601686852852
0.430800272433602
0.430981592467809
0.434395638078603
0.448890449918689
0.439795587818404
0.5079611651958
0.449335444094252
0.484887100257232
0.461287775424124
0.494780215989611
0.468266556137208
0.521636466336852
0.518432601086075
0.558474764332554
0.564958759847252
0.513619809585073
0.52364665839924
0.502536244699202
0.522865135758105
0.518593516220469
0.510932372744051
0.51671915194103
0.499848276718831
0.560038162269148
0.521889931763696
0.535380654604979
0.528021622875412
0.538823012343113
0.536740755902361
0.541771025845894
0.538163449322422
0.548384810867008
0.542344788771163
0.563427452133713
0.519493103221563
0.648692638441873
0.578061547515003
0.565593174693672
0.578375627846311
0.584119281793072
0.589029255771514
0.583411614578125
0.602972363688079
0.600623672749526
0.5973300104732
0.612664474850184
0.600102674717116
0.615873958370925
0.609733628773374
0.661240472835951
0.612321578680424
0.633505215912792
0.620947856735342
0.634778711098964
0.70342223125053
0.640547443551972
0.670781529318402
0.641492852920339
0.639323886937966
0.637427699191869
0.637287112306463
0.645729108829123
0.646214823133315
0.651620401223242
0.655006925214148
0.654759309711059
0.652368911152417
0.656253214603921
0.642039171387786
0.680434008669328
0.655233728958797
0.641230026883349
0.64470703682025
0.64285215784198
0.63424760086561
0.664189592577871
0.661362269453119
0.633931057617993
0.656044377710958
0.650510679918324
0.67341894962259
0.659814696057234
0.637712194487278
0.646882716152192
0.641641326499911
0.644625355719057
0.64588199116176
0.630537779772408
0.697433396130119
0.655694086644914
0.658416221398735
0.6592180922625
0.669380117080173
0.663887387051415
0.672174473339684
0.671630589162199
0.679990207059733
0.681079658214395
0.686812677197746
0.694319906608431
0.69356514629758
0.697704050812501
0.701702680026587
0.699554880638277
0.689387346484627
0.685126123288911
0.687076349515836
0.675318630729155
0.693212590924302
0.676527980519456
0.673716224238191
0.659734718636392
0.674843737415297
0.655040011409342
0.698659648062873
0.66829031618268
0.657106379161215
0.655817631364204
0.629245134881952
0.642451333338994
0.632460368741617
0.627037673525351
0.61381872513871
0.632346539884952
0.621674147791541
0.624664595909295
0.610606207351034
0.612794232462669
0.609218987813404
0.612905706631681
0.607574004012243
0.603641628227238
0.60692392901919
0.608751887488788
0.609331554192289
0.603995693200047
0.603037253559345
0.599810195220366
0.609707570240485
0.620413182196286
0.615731170322281
0.609705630653887
0.598648790768869
0.612099604000498
0.592818363635957
0.606219412980425
0.590702055271465
0.596436944982749
0.587127860066053
0.607137381634472
0.593013414721739
0.599117952287089
0.591688988977426
0.594738406976403
0.588350910254155
0.58892234469016
0.584890114177663
0.58561585242653
0.577503608054868
0.584797547479342
0.586461711208902
0.598615251500568
0.596686775748166
0.58621932931492
0.588511447023002
0.574121870093277
0.578174044950189
0.586775210577918
0.582488637337659
0.57660989906205
0.575962833051871
0.576093982955742
0.576610745099312
0.580454728313468
0.575519195111118
0.576551019872492
0.575865329244671
0.570965069148298
0.568654483975332
0.564001006193917
0.563612015074379
0.562027232322207
0.555548147389412
0.554779033685815
0.548691699663885
0.543701430985855
0.539782572706313
0.535035116157294
0.532268120183565
0.529849098667647
0.523320467243274
0.52421213509751
0.519794097870791
0.514652695427308
0.514085839112299
0.515159901167706
0.511114695771542
0.504394087180461
0.501985201615476
0.503877539942178
0.506778510683518
0.500610453312534
0.499236994795802
0.502774739158465
0.502537593633624
0.500099058383256
0.506444387505789
0.508933501610948
0.504095078658258
0.507636289511066
0.510266068962511
0.509270616076674
0.508682466686992
0.510061701857789
0.514420001012253
0.512580702192428
0.516820074100575
0.520629943991961
0.527169912976731
0.527089672848885
0.524912208513447
0.529253123977263
0.524781841339618
0.53113451766687
0.532079825578266
0.526847563637005
0.529566636281184
0.533675556176201
0.53153202748201
0.531452572746403
0.530700671678106
0.532493540292822
0.527634225309954
0.527813934738557
0.530763255455834
0.529826387708759
0.518946295160024
0.523389373034869
0.522186535512914
0.524083563917183
0.514449847891435
0.5167087493232
0.515674989743745
0.512038836421404
0.509121178992299
0.508587112510545
0.503800002633407
0.503799358337648
0.500365627153674
0.499674350592918
0.498298215163022
0.498007517188631
0.495554069982852
0.498874335107783
0.494663087250562
0.491985088302754
0.488441196888631
0.489440042864124
0.486385256271484
0.485811938072779
0.482351963514157
0.485497515852078
0.483079577877868
0.480159639488621
0.476625141254676
0.475273276380149
0.476467713769337
0.476091939496214
0.469216332995699
0.467954010841711
0.465729206607127
0.462091413146426
0.45840270336692
0.455045860713466
0.45235264833909
0.447343789826405
0.448193600778417
0.446161998509597
0.441070940422385
0.438438550966097
0.435019078823224
0.433138856287986
0.435292389966499
0.432693534018314
0.431264183910897
0.431604694242201
0.432066232424843
0.432384588285033
0.428609772440014
0.42737261443322
0.42484681966163
0.421307536681858
0.420412391086781
0.417628249846058
0.41176783056623
0.407724552070947
0.400853610655148
0.398272133158785
0.393263293944214
0.388934419661767
0.382418535756678
0.379754995968999
0.373389566148822
0.374399620473406
0.372098091927879
0.372732353455319
0.375268340955722
0.379360531726338
0.385590500119831
0.392500362792782
0.401108377398477
0.410742091606137
0.421097047711742
0.434548480377355
0.447136281981678
0.462337618972855
0.483405811340323
0.49953594299431
0.516996262469971
0.537463662336113
0.557320366184035
0.575271695267518
0.592925245563772
0.615318236097896
0.635473687228834
0.653317538280186
0.673976463855843
0.691041955464331
0.709834189241241
0.735228166076438
0.749339142200232
0.766289888226587
0.784905511259334
0.803896452545252
0.820567402199031
0.833741934745624
0.851418088938804
0.871346749582306
0.880904487871181
0.893682732131349
0.896611464759576
0.905546641653844
0.9148771737134
0.915935390764623
0.916379460131599
0.91905676921366
0.913061543965498
0.921135537716861
0.919062947949162
0.917799062167246
0.91496918139668
0.911197087510722
0.903768744729239
0.905512305340255
0.899876923927283
0.897972162444172
0.912633824860067
0.9084740747016
0.911688269294845
0.922209053230551
0.923843014906766
0.921169034261559
0.928163110942682
0.941685392835549
0.944543610941248
0.942597999175449
0.971996279224127
0.972122169597828
0.995158283235656
0.992071268655274
0.997503200803763
1.02962367703439
1.039236758484
1.04371247653465
1.07118400578459
1.07735646276644
1.08152104699677
1.09138781176765
1.09474050214885
1.10106613951426
1.10645706498664
1.11429716337532
1.10641424944863
1.11375480531466
1.10361727667325
1.10350585418085
1.11170706197677
1.0966145830541
1.09397928255338
1.08976107819891
1.08188301801738
1.08819371611984
1.10528577442473
1.12683508157063
1.13724973614692
1.14429362428721
1.16990053900818
1.1797046524247
1.18297791029142
1.20791553129681
1.22324876215094
1.2350595128799
1.25270137326455
1.26443052802108
1.28756002551625
1.29775679622279
1.32192487227942
1.3490532547258
1.36885120289586
1.34969096114261
1.40450489215887
1.41847652976821
1.4233996464682
1.51229149728557
1.51723137435282
1.52792767322458
1.56938027569218
1.60315637303337
1.62959800879481
1.58957083264644
1.62499059726394
1.67472190073894
1.65889364520686
1.69669445167445
1.71272895807749
1.77747641103953
1.84165011541476
1.71845951443493
1.78377411115459
1.81386398037207
1.74240396630642
1.78313222678253
1.82050978011375
1.78378014719992
1.87275202154823
1.89243421690277
1.80562077227405
1.76557912990984
1.79898446723766
1.76555353060985
1.83847469359463
1.84036677612321
1.74659205621722
1.79218537252972
1.8330214755755
1.7431938927905
1.86107312354539
1.85212485945777
1.83941289031387
2.01640605109861
2.10769068881588
1.96459951196471
1.95197268707082
1.82970491312267
1.83404088415777
1.95371275630103
2.05955942960587
1.95998588348018
2.05540436826158
2.24136303491145
2.14840189375898
2.11967726590184
2.27060396134672
2.36813609159802
2.18571963850703
2.25546608233045
2.51348764204498
2.14565186026822
2.00805513441874
1.98975243718176
2.15295383441642
2.37683262006606
2.38037380439251
2.22204401823661
2.36167626611791
2.31977302956004
2.48666714716808
2.42571076646943
2.19953542467671
2.48418765227372
2.77138701591535
2.22989832493758
2.41682968768274
3.44608259339997
2.76751502956808
2.20802915528093
2.20594296918053
2.14166566072709
2.18441374715759
2.49707235437867
5
2.19010750762022
2.05565452084216
1.86526104359493
1.82800798234528
1.88905461926506
2.00528104126524
2.00759276487565
1.80618239164017
1.79627462289491
1.61069278241003
1.59136307531511
1.68080440591085
1.62566355978508
1.55050784257853
1.54077791640059
1.55826509706206
1.52767475324419
1.53563374000661
1.52614000897803
1.52570184959939
1.47373538895575
1.4859526992075
1.43847590166584
1.43980094244173
1.42078175735148
1.36458126313879
1.32703778584928
1.30604778088449
1.28805937948032
1.26547840048179
1.19315219938159
1.15759187544162
1.10891703475597
1.05070284026521
1.03625137788339
1.00106268723248
0.9519003246619
0.910432793638094
0.864131877399693
0.84522997837206
0.791226256189237
0.753881922416793
0.730517097623441
0.70294681245579
0.67873509671084
0.648696704972423
0.628910417799026
0.608369165901857
0.590183911635355
0.578398612121599
0.556472878951376
0.548291392809398
0.533839547931222
0.52212932285444
0.514366270089882
0.509455233660571
0.502211183733961
0.49831468028205
0.489301974796103
0.497074802254614
0.493341746840919
0.489201917505012
0.491437400145242
0.488998223601242
0.494828466206866
0.492771802215
0.494858149250736
0.506233418932953
0.503234591497931
0.504007161626813
0.501860515834776
0.504179538913633
0.508019085655576
0.507604982758476
0.504267932044069
0.503207916182886
0.506431284483324
0.508194376631247
0.50585340903901
0.50925825830436
0.504132212193577
0.500452305672211
0.493629691028593
0.489564831486552
0.495107916738226
0.493981400885446
0.49555769686568
0.501999250453368
0.503264598443402
0.500719475706051
0.504640988893822
0.503762969742657
0.507994981726374
0.522224613724147
0.517864617240999
0.515822817028808
0.5164321689323
0.523564106543642
0.522422538755837
0.528017127453518
0.533224692835941
0.532465063668072
0.533805570504607
0.528160027186664
0.523130673552761
0.526923566824371
0.52783824094332
0.525110615799987
0.522182673718965
0.525512720255697
0.522897381215165
0.535757165080059
0.538430403966498
0.540555824786775
0.548547940071728
0.549929775165421
0.553769968360205
0.565871357953743
0.581259893989387
0.590463830686315
0.604380238859717
0.6204367982378
0.630064988941816
0.636063687350595
0.654059852040771
0.665143808308213
0.674888725652088
0.68034476247812
0.667954053230777
0.673352193094757
0.675956989696699
0.662665138551167
0.650172650189008
0.643483538753025
0.638543470887353
0.630962375076722
0.60831824867976
0.611455555202414
0.61479358705196
0.605239516069429
0.589883698418354
0.600366103854493
0.614473350841689
0.611763627630437
0.621530694700733
0.623244100610764
0.611894140724232
0.614342823393869
0.602485093091535
0.603145876882637
0.60327371593143
0.593300377412529
0.594503176163516
0.599753998863166
0.582014826615016
0.5904705296309
0.591538049433726
0.5770382814393
0.575891130537867
0.578755309120885
0.572533746601559
0.568940480772343
0.55729311910348
0.563432933261651
0.575075479074376
0.579784235268624
0.576603748862913
0.569129919046337
0.558653752285933
0.560428504930828
0.561488210283003
0.570396392463634
0.548874845847301
0.547571874800994
0.556292582560837
0.543144417416332
0.542470527910155
0.549118898037979
0.538849393997994
0.548389818412302
0.546958737053082
0.550094282175705
0.548319043243309
0.543485040227551
0.527302858751724
0.527717810639501
0.536408114550998
0.528026708089307
0.528092710047383
0.525445160973825
0.524537780531398
0.524230146306382
0.511189446912003
0.512076865373176
0.513131225337206
0.528375562558422
0.523548168880778
0.537713444414587
0.527501679793115
0.509600387182515
0.528619647381467
0.51965224094396
0.516577802960488
0.532770692128018
0.525179187532188
0.538684946877571
0.538959701036704
0.53691391911714
0.541174736158508
0.535008754802243
0.543124668279676
0.54338892622498
0.545072860599079
0.55531136617621
0.560906629077392
0.5575801114819
0.559647915417421
0.572885116043449
0.569219755879755
0.588603835608209
0.582188419390749
0.561899906043709
0.575074782574346
0.609998211111023
0.597585660539433
0.602868710835333
0.607679189809546
0.612436309999076
0.628295461214811
0.643664794235358
0.667939500752977
0.673600136885883
0.677010347048066
0.693984439712698
0.702676189796177
0.737626826779247
0.774412290461789
0.788062274057281
0.783929785249204
0.778289912331605
0.836611801277277
0.871126250608286
0.840071623555874
0.881377597986078
0.878382461182671
0.86798760749395
0.902157562219815
0.897192816049661
0.811608465676147
0.810001766017637
0.866121268005825
0.872352050469811
0.853996518035088
0.82990158211087
0.829539261454385
0.833645308981857
0.833705021096904
0.833850568810116
0.843408189808522
0.876338124115495
0.872572784832803
0.849213728118293
0.787648230587321
0.794350453041806
0.859358309026484
0.82426327015019
0.866984612433866
0.846223049274867
0.85918732898053
0.871903451679085
0.835715805643266
0.829842560507135
0.77942852022148
0.809724838168794
0.795995753341273
0.758363597212726
0.772348535423637
0.781235340913053
0.841705464362265
0.850286834002077
0.852034241431197
0.816563601400631
0.752531218086905
0.776782648103205
0.799710826079862
0.779568531922776
0.803867480671358
0.736136122027158
0.809117512757924
0.881369833021197
0.73364092460866
0.730992142593657
0.835872478665694
0.828256878068418
0.828618410396862
0.819657929045334
0.829311111415848
0.772812705940901
0.841036227530179
0.871757661808607
0.786812475248145
0.771896707505109
0.877990386767743
0.859849650899556
0.837124644237249
0.843409192720062
0.906756331683328
0.771151962383839
0.808860435512055
0.981696593240949
0.93655168988472
0.932599909540908
0.927788244932141
0.830289644184107
0.774149498977888
0.988532615850238
1.01212090635255
0.870454079786526
1.03530653463389
0.877963083793841
1.06755343429056
1.01806212322489
0.914714987756872
0.931176135134455
0.927440745507355
0.986326275377817
1.17416484013368
1.17970941894499
0.926848963380124
0.973979434986982
1.16411819511672
0.987201000512043
1.24990274274047
1.22084851600132
1.06088078785194
1.02758184981005
1.15420942881526
1.10664768523439
1.0461522773617
0.95490934023541
1.06337727685113
1.08613853498189
0.911889988774007
0.916482180892427
1.24613056661015
0.939870554413748
0.925739659811014
0.975604952754673
1.08024269699869
1.1170706109505
1.23634144704381
0.918451237023919
0.887460640343231
1.10099730905846
0.913434519974684
0.913480451382181
1.31923783211806
0.848338328496559
1.16384430932046
1.10014395537498
0.931066018382916
1.11540025840008
1.37874908090629
0.759766628586147
0.987604848444007
1.02407387494177
5
0.985498666091472
0.837356455040073
0.697802496730637
1.26121443823973
1.03957746129203
1.12851595235818
0.868055394265966
0.986056092119579
0.920386196506607
0.87124319643945
0.881184874311303
0.48436984104132
0.897713875664225
0.94582801401995
0.648235273755004
1.44109936723602
1.06606154279337
0.882257288313638
1.10537183493957
5
1.0800401413207
1.21250466850684
