3596
4000.36533379555
650.420452594757
1
2
2
0.0598821124970826
0.0650348892116114
0.0657174854510183
0.0606393652306132
0.0564804220637157
0.0570073149725
0.054943266763555
0.0569431263708673
0.0507932805619881
0.0642872935611926
0.0615415572782613
0.0564834308801162
0.0532567706391714
0.0575554837906056
0.0599081175820966
0.0612054034523834
0.0545921899417748
0.058633316224136
0.0566930498511346
0.0589988274232147
0.0558768517667088
0.063244755342953
0.059246276818751
0.0539229304795354
0.0614640206792165
0.0703244586954273
0.0574344868549007
0.0569277004632312
0.0655003239720039
0.0666960480717354
0.0582823640543407
0.0649966547764068
0.0563065255945341
0.0572267252044923
0.057856916229534
0.0568875419932996
0.0588362569343393
0.0641670428445859
0.049709649391711
0.0608136172323763
0.0697715945217495
0.0626430765957776
0.0606103428230791
0.0567804085470337
0.0545104239490707
0.0601505383831697
0.0543926214483713
0.0613713004658177
0.0554526637796689
0.0590495756163369
0.0551570036689914
0.0511836087379427
0.0655489496422638
0.0662835444339774
0.0629148521147118
0.0723384706663546
0.0560765136154229
0.0554215373093179
0.0579361775112751
0.0569147670142996
0.0680747538737806
0.0780036189138847
0.063424913749395
0.0572506250742454
0.0600080993897364
0.0605982814211773
0.0551458571398939
0.0543569712306876
0.0493453084848648
0.0650737670242088
0.0583250982866008
0.0694543635411747
0.0646553588863129
0.0556703106733586
0.0680430970490078
0.063604671724395
0.0600660428586451
0.061640323734943
0.0507298071244811
0.0635494615651287
0.0722781627095535
0.0674922294549583
0.059067914436413
0.0505365213091464
0.0620637405189058
0.071272268333189
0.0545371194580208
0.0678865171949122
0.0774006350647316
0.0653334573658124
0.0534959146415425
0.0586316653349721
0.0530543186770182
0.0525337709212804
0.0557907152082189
0.0537393796849534
0.0535701948012433
0.0579987615082465
0.0474242889756956
0.0544945877631088
0.0594307734168282
0.0806100301782864
0.0955328445616141
0.0598355353382656
0.0865329986761737
0.0683067979742541
0.0588897159863895
0.101118563847673
0.0705875800240014
0.0571288809011992
0.0518994917400839
0.0580542227608407
0.0589209281860376
0.058603093830729
0.0431306906119705
0.064431577608517
0.0793971751653836
0.0623085246113128
0.0555214274627273
0.0526883374693347
0.0439045682431105
0.0842643374303789
0.0836347106312904
0.0593860488018051
0.0695892597253866
0.0595902832767632
0.0505431976420915
0.0997072509618595
0.0779799198652477
0.0577449957603894
0.0556215416296724
0.0587611708889417
0.0444340833678365
0.0580433019262837
0.0927883286743921
0.0651092574958838
0.0566162091212932
0.0505072836543171
0.0752526538056859
0.100045057391783
0.0718068409608881
0.0611078307879741
0.0471879783204678
0.0586376708403787
0.0821682773339972
0.0662617652278173
0.053687926027408
0.0818105847194067
0.0649909560769275
0.0560796548912997
0.045172869788746
0.0538712800696283
0.07294177788382
0.0688363320310402
0.0308170660862002
0.100760511837384
0.100342131995882
0.0912346100751882
0.106150519995905
0.0641689254608836
0.0662687912902492
0.058842012497928
0.0557443815211049
0.053579364661775
0.0482476458193785
0.0445519599395306
0.0748476928182719
0.0872213081592873
0.0593404907831755
0.0607218234625011
0.0865579719134767
0.0673356874188107
0.0517704362411038
0.11367076762012
0.0714538429421227
0.0569971955610057
0.0812265897880772
0.0635997519430334
0.0430427646117705
0.0702973477180917
0.074326237762782
0.0632528285581833
0.0494221836460317
0.0530610619179561
0.0632634356291289
0.0645236618120553
0.0601421692854135
0.0539778524518672
0.0515026562655611
0.0514578622116786
0.0709261858563494
0.114429936920999
0.0902042232147128
0.0628275096506755
0.0513848001535543
0.0303248730040334
0.0825863755935498
0.0934912026984185
0.0590654543757345
0.0575903960544376
0.0454011745523291
0.0496935897879394
0.0479295800782911
0.0527004697420266
0.047689477301953
0.0477733640674121
0.0893465319942662
0.0700915420571182
0.0601737660621849
0.0538472529277344
0.0590234375596732
0.0540891804039257
0.0996402036025045
0.0859410712164892
0.0605171177099378
0.0528067797599217
0.0548996826250683
0.075989517303946
0.0668086208076396
0.0519576953747313
0.0507468300371712
0.0539344422719103
0.056135579551943
0.0504481698921661
0.0527405308312164
0.0558848920975197
0.0547364526497081
0.0559948128225046
0.0515273022814137
0.0546684671884865
0.0594920827082657
0.0515527373230073
0.0559534720766302
0.0551696992836608
0.042827417334081
0.0670295346396579
0.0752109001988487
0.0638606152098129
0.0559854449009788
0.0504853487940932
0.0503749163986518
0.0517581337731936
0.0518454851087852
0.055081825799607
0.0464109480798207
0.0561729763592551
0.0801720262984978
0.0599048702632445
0.0512259120599558
0.0452527457506977
0.0744811301541732
0.0687461461034623
0.0635257971708932
0.0516395071239387
0.0551866617830377
0.0484990849540873
0.0569080092285032
0.0903932205667873
0.0689464412380373
0.0506306125507765
0.0683715834869522
0.062086154062972
0.0576731439591684
0.0462172634212389
0.0527181570874979
0.110136575039102
0.0750261437792266
0.0623677947267077
0.113101578960795
0.076453434934332
0.0668324768333743
0.0485056471142316
0.0392265722123159
0.124530176220439
0.109042573688335
0.0618043343326252
0.0587951849759813
0.0666349683169768
0.0503080991968435
0.0641219037673336
0.0619236247746178
0.0832359144251043
0.0822162884773331
0.116243403624753
0.100814099952433
0.0524813127209198
0.0852395736933024
0.0788055368356993
0.0599537496728905
0.0520395956571728
0.05933604479005
0.0539251364137446
0.0713444109942754
0.0663774593487768
0.0685906311083499
0.0580272548987759
0.0597324037895507
0.0729853804603062
0.0722151777386366
0.0521549561767966
0.0679229567565024
0.0644029740371536
0.0532945557001583
0.0574897222455578
0.0648400864741728
0.0686493753825374
0.0496059412616231
0.0528478988176439
0.106941178489569
0.0695153892834686
0.0638880021389303
0.0768831430996193
0.0644769699169336
0.0571267172416121
0.0579165612455828
0.0495607231851424
0.0547132128929132
0.0483089986740431
0.0539082097236329
0.0827195555962587
0.0612389070223564
0.057600962515095
0.0574488593437404
0.0528309607556212
0.0575989147460661
0.0562918487042911
0.0566240998484469
0.0568156979311286
0.0566636150173761
0.0509939410174954
0.0734091413621335
0.0810981003061316
0.0564270638415628
0.101086450920692
0.0921877581713313
0.0652425528820815
0.0602575525282486
0.0591891655500142
0.061876364402242
0.0545065997400948
0.0573104525580035
0.0540243129020703
0.0658328462047613
0.0702270651911409
0.0613762224343542
0.0640066314607694
0.0735131510971544
0.126289808360321
0.12399039653095
0.0779726746897531
0.0621014996932339
0.0458186801375732
0.109688873003112
0.082631538814318
0.0961784254900637
0.0912479203677373
0.0740455986251794
0.0745741138655838
0.0639509087084969
0.0618690845010331
0.0590204926861781
0.0674681631496951
0.0628016268582931
0.0678445386696489
0.0649697377624509
0.070955656436095
0.0676119179524151
0.0747931126217932
0.105103076975752
0.0917176420834437
0.0741340862934056
0.0797338148044046
0.0627237703078465
0.102051745479044
0.0891783912360847
0.134969595036622
0.108855742310492
0.124319572341305
0.120317927140497
0.0977854165824106
0.091110483958972
0.0844974661111605
0.0900119759032755
0.09053173687323
0.0914736596504881
0.0935986252818802
0.0896274135471673
0.0954656132165162
0.0910313844843949
0.0912074977377038
0.0968239961667708
0.102121213520405
0.12045044259673
0.100445080777781
0.105903541192634
0.0960221510910671
0.115500592237832
0.164273136689384
0.149758564690205
0.116468548512106
0.123357410313772
0.103674689315667
0.117712592253524
0.107975928495891
0.113980257727177
0.119489356160395
0.122484305464651
0.155460805051221
0.141089283514967
0.145303224169325
0.143132144697114
0.124206984665518
0.155431625519965
0.13260720305882
0.151649888752186
0.160444523322858
0.13988228180943
0.127566323998557
0.171933530550935
0.149778572503614
0.158694322546602
0.160832059975075
0.141014205913291
0.140889356286641
0.1477326497995
0.153963684869633
0.152073297119585
0.165085280542083
0.158266796253281
0.158260016463402
0.165158257705014
0.164754812857763
0.170400146514051
0.187118665889217
0.173780647384751
0.174389154755465
0.180758776802945
0.164184041975762
0.176687347733244
0.163721987342241
0.218614786209678
0.197378737675702
0.215668311655323
0.215265521609957
0.186937968942965
0.191839409523522
0.207728089247144
0.195722276911992
0.192738235074169
0.194107178073983
0.216790675804835
0.200929443768476
0.208865286742745
0.216483183370467
0.215174375412143
0.223689868821734
0.219736291021049
0.212352701054057
0.220352575598701
0.229349403341802
0.23862008036072
0.218411364691226
0.265155918583416
0.256556828920752
0.285829458917141
0.267667134602666
0.254326808788464
0.241837191367944
0.250634182583589
0.265020954851343
0.259601401400642
0.269057344603635
0.270161316503859
0.25968341447299
0.272719318947203
0.269919551372634
0.26678387423665
0.283141481600503
0.281684847494906
0.291768424278357
0.289778232286846
0.296964206138977
0.290467352266659
0.292012859579204
0.306949180840451
0.319309853257389
0.304169764024047
0.327827908305158
0.319600060288566
0.306955870454728
0.319017432899217
0.307530873445624
0.327635115845505
0.311647472553417
0.326789987215781
0.321891112507309
0.342734400773745
0.345486459840217
0.35315884305591
0.341060771460216
0.342303671681273
0.351605712357035
0.361949931157915
0.351799013784369
0.37031464730913
0.358013558508243
0.376792307993269
0.372965379605355
0.374847087717308
0.369616117762071
0.400554979130476
0.395067064494674
0.381829155301434
0.382878437061486
0.405791065547073
0.386775165680524
0.383535339120684
0.419080545781839
0.420319879391031
0.397635160483921
0.395447463346992
0.416212555377021
0.439901666506938
0.418855841083114
0.45337669008271
0.43661270910063
0.435871200688074
0.449803787703878
0.463606084291405
0.430903341294457
0.448619932662458
0.45814492286153
0.475125220309661
0.458086413153195
0.471125292711292
0.473825089772047
0.472487239779414
0.461916971404788
0.482190432004475
0.465641631615726
0.490344984902311
0.473144679605188
0.50911988520497
0.505171498065992
0.491070629023303
0.499003150875362
0.53929893894731
0.489524289814849
0.52000155579715
0.501938210621406
0.517780047697806
0.52680263981653
0.523714781558779
0.519123734835237
0.565173097943816
0.525016398353969
0.54164767241534
0.524026807713018
0.561517100824843
0.543854011476402
0.553007195741182
0.528733737873718
0.571275901058305
0.567590145498632
0.570331643900549
0.546923497340112
0.55398697279745
0.535817705696291
0.575479740830309
0.568352139814412
0.598185412643448
0.562400243163966
0.641949490075442
0.587806728914443
0.623139588040667
0.625756852340626
0.626976014288775
0.585090748962942
0.62668722522562
0.598495049182067
0.609702329336023
0.609972824970841
0.667505395263069
0.621980502379493
0.650740628160164
0.623654279933896
0.672155424391805
0.626961023706994
0.649179814524557
0.645044892331392
0.65043573060212
0.66637104450248
0.650785986538737
0.64418238492908
0.668325750501748
0.653496797670774
0.642297082904426
0.63046152367199
0.680438750927115
0.650306101988935
0.67547857005576
0.650994690941709
0.695911572659013
0.678878524580899
0.741671305890711
0.670660551829287
0.721814015219847
0.690285659910407
0.726570454343685
0.691551496861312
0.702684577039935
0.706192182363717
0.716481996112462
0.718719548718006
0.729074733242219
0.70178959275363
0.71293093803794
0.717592677801705
0.748443325637243
0.704675613497049
0.763093472503174
0.727279703466747
0.786929634886059
0.732643159154758
0.744148921936963
0.72850881545695
0.768278935746367
0.731353828283
0.750607804833727
0.733036419443326
0.776419304009026
0.764394899460157
0.787274660239694
0.720159138727283
0.819564791018098
0.766660722394452
0.796932143368561
0.784717207755462
0.794843697182728
0.773775492739521
0.7704360596051
0.75211140385391
0.792437264396615
0.740027134446106
0.807198971302242
0.779701922493462
0.827009493495505
0.787803009908499
0.827306042013571
0.790771431213772
0.809400838110735
0.745994478280104
0.802576827488551
0.825467013725273
0.831509404599293
0.812211126569945
0.822772372924371
0.82294031267513
0.870942788546536
0.832941727106743
0.857724819775898
0.788014561512051
0.848949475508828
0.818218631356945
0.848828828347072
0.836115609337771
0.857525839095107
0.838138402970321
0.848851503472873
0.817438738879612
0.860826056023134
0.830588439368731
0.868324984498999
0.827346544087834
0.816561424758376
0.778242191576726
0.844896082597582
0.827583039487779
0.879031258639121
0.824789452759543
0.836273950637732
0.876096380289348
0.887878619993237
0.816089664278097
0.898689494315894
0.835963178903498
0.889222718037861
0.845998580403837
0.897573324932921
0.868787014674758
0.871788607226696
0.865679227451366
0.892724403203438
0.848762888099513
0.867217107801924
0.818396323978803
0.846223634008934
0.855703193374656
0.896552575096269
0.836912047575105
0.906437735382396
0.827414200544254
0.84623617840331
0.833613654955162
0.862372022577101
0.871331513900037
0.867472934812758
0.872261295211025
0.901209863801399
0.834819310465244
0.909224637181087
0.873946596687651
0.875036462623072
0.866502767086352
0.876687348325878
0.859680216208281
0.892650332824889
0.844045478172513
0.870592474424739
0.837054649949896
0.848154125469245
0.890411563779143
0.855127649792349
0.847118873580081
0.865601914734696
0.856932003445774
0.867951800061843
0.887510727300439
0.874591674326401
0.838940938806473
0.907544910842548
0.864647820365963
0.868209158334454
0.833399804225995
0.845344084571678
0.811756351073865
0.888832949142418
0.827221959344157
0.866811796747274
0.832827161418075
0.846124067416023
0.84306647934489
0.841461196274223
0.798341109046444
0.865429172534889
0.811205139079806
0.864354222852948
0.859482182903387
0.877466329590693
0.836653212310366
0.888098420574593
0.828857667807848
0.865882145678952
0.818521862867273
0.847572175947176
0.864781748373965
0.854779379270393
0.825266997500958
0.814725659244219
0.804564995970648
0.831829888132879
0.83891788652374
0.878664552172578
0.847716372291051
0.882363026382805
0.854255825458856
0.831424938810509
0.814054681421236
0.827323473276065
0.819043075271446
0.852998369074137
0.837263068840571
0.805412833601146
0.794366514789514
0.823828204541765
0.818635737699578
0.818484753861361
0.770680855509943
0.839583620355216
0.813494743166495
0.793314445688063
0.782785411928545
0.816235590947069
0.79899270101892
0.831448305732845
0.778744925771894
0.805946466044367
0.797361849224801
0.796643165979299
0.784194073292473
0.812104593910957
0.778185016656707
0.803501015548552
0.782601880736216
0.791777744566673
0.795884888726668
0.787305141022348
0.766708129759918
0.790458916161422
0.792947758696858
0.804405207064002
0.772665621703312
0.78028335176986
0.764908452937726
0.774027576054059
0.769410198557701
0.767257649831485
0.755029059447502
0.767164982800392
0.779903885918141
0.758819308473868
0.750617984311115
0.774825484077568
0.74342604825338
0.757278701984853
0.724876448626807
0.743989372055402
0.731528529223906
0.740470039147525
0.720770150533587
0.725040636417839
0.722786804294344
0.741561202836395
0.726039237358735
0.747374077006701
0.735459240557318
0.720601173856102
0.732178863868981
0.7294093902641
0.713301711445873
0.718627767854572
0.701792229247869
0.709282795200339
0.703368101400698
0.707535909709785
0.706424670246432
0.698441388067705
0.673119250759768
0.684538113759997
0.68790901477971
0.697615940125411
0.676013091750094
0.676623268946663
0.675137322728518
0.697306611716675
0.662538183669992
0.67518332080294
0.661401014840124
0.686758803224174
0.664497771923586
0.656776053425425
0.658201979067297
0.651190425822485
0.648671097060517
0.635221013706523
0.671875306195536
0.655444035152138
0.643343251383634
0.651941916206348
0.633608213699132
0.643597599210734
0.621691376675273
0.638819319686787
0.620162010922417
0.626269306358375
0.620732492825368
0.629512721588231
0.620149413093383
0.623682935649428
0.618501674662756
0.640392271324473
0.601402007143096
0.612522215228575
0.591854513706084
0.616510441667715
0.594199586675059
0.594725641036829
0.573178578999326
0.59222501755773
0.565359788188792
0.583539402292832
0.572902886515617
0.586795080326237
0.573680878737835
0.584310319544678
0.559573690955772
0.577249167276693
0.558289696553805
0.556916365367973
0.545342596665726
0.555732933907231
0.539294283083545
0.549904768884156
0.531009765572769
0.555826516274133
0.536910648255515
0.533923042748747
0.518834179884993
0.527010703884001
0.526563187516767
0.538454137902005
0.520523227179675
0.516899446785884
0.509852971094907
0.513716333104571
0.508126722761642
0.494668334997552
0.508154464087493
0.504248716357601
0.488414949855346
0.506230949586278
0.484408772973258
0.487669226950253
0.476110179177706
0.48424577396708
0.482594915628139
0.484921680534514
0.460448526457943
0.477493637097932
0.4739155655847
0.474707859865171
0.463408692716112
0.46732184231765
0.462092320797035
0.454799312457473
0.43981606055476
0.451581732308199
0.44820457695712
0.440751054378457
0.432783736873388
0.437409269758366
0.433098390568864
0.438810812579046
0.425241712224747
0.43677174100822
0.42341613097332
0.427751295521497
0.408815889289287
0.422237649752364
0.410776129381656
0.424120417704311
0.406289100293085
0.411139933016345
0.400804566277112
0.403309948605984
0.400174743569448
0.404795009982154
0.392941740507555
0.395032182453555
0.399586657704086
0.39651411239574
0.383904828146499
0.378692715522438
0.38467206392779
0.384196429637879
0.37030198546246
0.376990535467814
0.369793089209769
0.377464675444432
0.36494037868152
0.366885150574067
0.358162323699889
0.364805788608446
0.357481043048973
0.35794134761428
0.35624985262609
0.355997562609394
0.345512500672328
0.356830168792003
0.346944016227494
0.347338032764555
0.334473178704
0.344926852486338
0.334857646985341
0.343123090747661
0.340444267536469
0.339813168634751
0.326457302489576
0.331936877338917
0.326846370779854
0.322221771944056
0.314466701213317
0.320930251738734
0.312797941891443
0.311533741799064
0.317296802857588
0.320017067641881
0.30740920530119
0.308427789777473
0.305028386060633
0.311401270887936
0.309029039468729
0.302288926734565
0.291936083612598
0.306990323100673
0.307846769427458
0.292855258540971
0.288492992887749
0.292645930289019
0.288362085589527
0.298234549279635
0.294915002792666
0.285757863900196
0.28008750591267
0.28528619509802
0.277741182914316
0.276292987544878
0.272676637307771
0.273282808355293
0.271753420783799
0.273217975581145
0.270621756190539
0.264392632623056
0.26830731140765
0.271931222122752
0.262406343087322
0.262243049869332
0.26460372383199
0.26044590644046
0.256342290252427
0.257915732397063
0.247166919444455
0.251760192231131
0.250490355645307
0.250068303040751
0.242754810967568
0.242022096084032
0.245170042233544
0.242683159155742
0.238307259119558
0.240015672191182
0.24052994892255
0.2364901771237
0.230264056931517
0.239645049018618
0.232372100518614
0.233330824822168
0.227209037919564
0.229221576487867
0.227202427023542
0.227065175813648
0.224616683877514
0.223341907824978
0.217505404566346
0.222758281641541
0.21678025989398
0.217230186389453
0.216801606711951
0.218932817374312
0.215859294220908
0.214969877921003
0.218109089786496
0.210604334764082
0.210392136326371
0.207497390370958
0.211778659883828
0.209694930296731
0.210909381416035
0.206387341180225
0.208228341673832
0.206693429347523
0.203903551751654
0.207177018407297
0.202070660778969
0.202133836374065
0.196576672915783
0.201338729832884
0.198099878486564
0.200178230595086
0.197212024877661
0.200716424021939
0.199893250783833
0.196020627443135
0.195810749158378
0.197212890582992
0.189906990989335
0.198373672111383
0.195483180732477
0.1961642461505
0.191881402894524
0.199389867479259
0.195966343722411
0.193506961320419
0.195022835139575
0.198849641258516
0.198731984536134
0.200001925554448
0.202097558658303
0.200534473019235
0.202974348002493
0.199321524325552
0.197879404220133
0.201113062597341
0.202779149127145
0.203026104198011
0.20472973141822
0.203555730927063
0.202525791654467
0.207221431695766
0.205578261921234
0.210950832430346
0.20774733069911
0.212486338327718
0.212557023419779
0.212315179214283
0.214178407728276
0.219354644569489
0.21626770818378
0.223096436723546
0.225884654485185
0.219315786638494
0.223749548067648
0.224656411955337
0.220765377922439
0.223483318434554
0.225546561807178
0.230851821199198
0.231362762263702
0.240322475572694
0.232682187881539
0.235732474788931
0.237168344122049
0.242244639480029
0.242052685651882
0.242148578729094
0.24564782721021
0.250764921884781
0.250008248736448
0.254747801164283
0.250649791219954
0.260050559230844
0.260821973488651
0.259678618667978
0.262219654520765
0.271754520306397
0.271523589190477
0.275334883337009
0.275104446886681
0.287740205930223
0.279855540727838
0.284768243591966
0.287107129839238
0.282399612502095
0.284211181071618
0.289976212661606
0.285062816530837
0.292212475312472
0.29229660957906
0.29267014390003
0.290221168486388
0.29220408099547
0.295496878782414
0.297041483403036
0.294567866606727
0.291474667714552
0.285671250948949
0.295838139398956
0.290014973923614
0.296301615758275
0.289391272955775
0.291321010224763
0.283660130927296
0.284525606329931
0.283604712677861
0.292872651261688
0.294112192976194
0.287610530638581
0.283440671640169
0.282003216979292
0.283428265178869
0.285605954261041
0.27870693013725
0.276620490386867
0.282193620083231
0.287008172297491
0.279913404709271
0.288511941557122
0.283944076640874
0.282430600045325
0.282627313186875
0.289015864970601
0.283897789828231
0.285460320037581
0.284757012335966
0.283957275343761
0.285035071414689
0.283573813559582
0.281509444179433
0.280070358653269
0.27929186087054
0.283824786613263
0.289554639349787
0.279214623428461
0.282643781132876
0.278327771075896
0.279096751833866
0.279644936027187
0.274900698901808
0.275210141442874
0.277860749474701
0.272808980434667
0.272117008004618
0.272641467796379
0.271356869142818
0.272852612187613
0.272359987188052
0.266368390815543
0.263332983771541
0.266191294369814
0.269547493228989
0.2606700625576
0.260892904469156
0.264472125733337
0.255593945539246
0.251780229962292
0.25237653182583
0.248259600968102
0.24877751847433
0.244818959629901
0.243503781079475
0.244704629524867
0.237804047008508
0.237413661298115
0.232384485339098
0.234696879172212
0.234259303103575
0.233114912956008
0.227691550599708
0.224333309979612
0.221577098893456
0.218168892535139
0.219133272718166
0.217166473950077
0.215880071760915
0.207731305446172
0.209223020166572
0.208099700674211
0.206933461180761
0.208523372336424
0.202281460816277
0.200093410934609
0.200388365137397
0.200154049987002
0.192252507928343
0.197774723124663
0.197432668218561
0.196115366139526
0.190043478016302
0.190945462482795
0.187422939591199
0.186282991118927
0.188041100769084
0.184324639011009
0.184354622879283
0.184586832393763
0.184626203867057
0.179802860927364
0.180175693795898
0.181315965328743
0.175144740220277
0.178579064916703
0.173627220723669
0.171764709001296
0.173267940062875
0.177004173747893
0.169860657714645
0.172653918422234
0.169734490139258
0.168066316194565
0.164332492953813
0.165108662670837
0.165837572773172
0.164768960777412
0.161412448927365
0.1626304654724
0.16134707749137
0.163493472779531
0.160983965213621
0.162818132460439
0.159155741164968
0.16405180735104
0.158326635193857
0.160275229837341
0.156800311975532
0.158487706667971
0.154802547582155
0.152312497254699
0.155597774075768
0.157008016092761
0.150183222887373
0.147218049339588
0.14836434941239
0.152864201255157
0.153333763724979
0.145639924215854
0.148766035744849
0.146825066346971
0.148152529659193
0.147068333540629
0.146611990103773
0.14732820890786
0.145123554390667
0.144721160062752
0.145631328276119
0.14366988076207
0.143120786248131
0.140907395426252
0.142774216784957
0.143101609558044
0.141920081858885
0.141858723839784
0.141472342696897
0.138799394424387
0.139264956357689
0.139555917256513
0.140235383184145
0.139132997404725
0.139981730819814
0.135375143481021
0.136395835524838
0.13611218370217
0.13552273601754
0.140684873069366
0.138011529544793
0.136235848668635
0.136450853679377
0.132845013761
0.136356687742693
0.132569340596164
0.134553450569732
0.135945090760154
0.133747956044594
0.133029457811498
0.130505842771508
0.127305468993481
0.128337859826218
0.131306012421427
0.131273132953814
0.129002935404629
0.131975096395508
0.132912086240462
0.127951644925868
0.127235124577238
0.128241568949016
0.129619043418753
0.128437253031614
0.126291885750726
0.129500084726545
0.126249750279769
0.126958759774713
0.127059586669199
0.126907745441499
0.126047067987737
0.125633629380573
0.123512337030013
0.125164002433807
0.126214310611614
0.125423045274218
0.125874573895263
0.125858077706446
0.123153078435219
0.122586759907362
0.123029608925212
0.124884500359832
0.12196582955241
0.125204793087541
0.122329368187105
0.123050451923875
0.124333221822388
0.121617974263258
0.121951410043844
0.127273596670501
0.122112891349621
0.120636497515944
0.119643588043141
0.119762348038435
0.123716252776977
0.123011252926376
0.117241305289955
0.118450691297531
0.118267830718999
0.119908843163456
0.119158687750729
0.119200794121649
0.116001310097321
0.11835361210083
0.118388148953938
0.120201442400165
0.117441706419401
0.114998936230588
0.113589965942828
0.118881093631772
0.115266666470999
0.112557131272591
0.115746627318601
0.117049913946416
0.110359892050521
0.113961620517872
0.116640595073379
0.116589159256781
0.11439649221389
0.109998720735481
0.109035617382098
0.110972922503538
0.110594668801223
0.112709995332124
0.109622759850829
0.108115136180241
0.109422406900344
0.109798911533966
0.108983330783736
0.111803036912116
0.109778009098476
0.109199869627193
0.108963289270546
0.108897337780101
0.104759990712961
0.10757196183509
0.105446098356519
0.106389948771238
0.105734701911142
0.103861355647277
0.104244722293054
0.103220451301246
0.103463104443311
0.105761493452489
0.105202747756515
0.101872060005942
0.0986587150100879
0.102996174345048
0.101934502887501
0.100972617168747
0.0996121235930048
0.104875099436357
0.10186884997978
0.101966776148405
0.0996624525072184
0.101293805199239
0.096331401378072
0.0983763286077996
0.0998596535114588
0.0987519202760474
0.0958658490320606
0.0968110362967458
0.0952318253792506
0.0952378386182863
0.0955648591858125
0.0982587522787518
0.0965381104998637
0.0935630902292042
0.0931730668768352
0.09709473180253
0.0913420611574374
0.0929324279038711
0.092390797346033
0.0921596781909079
0.0899617668813771
0.0945802296880884
0.0893327791771031
0.0907858329037352
0.0875150674751321
0.0863176155470438
0.0871286262152954
0.0896616657746321
0.0869723059480036
0.0878741236670326
0.0849185577112817
0.0912644060253951
0.0854362210989947
0.0855339856134977
0.0841214346039347
0.0869838615131965
0.0830880577165936
0.0832557816709161
0.0820430708027794
0.0825506794131434
0.082097047968719
0.0824549283519796
0.0812974255227536
0.0846054132759972
0.0826980367662565
0.0796116779616698
0.0795983409185088
0.0834433391796709
0.0779552681957744
0.0811381442848814
0.0787318897248991
0.0812839205964663
0.0801335381716797
0.0810709363378497
0.0770897535112669
0.0805222423139913
0.0791457931450606
0.0773080419115597
0.0750098369352075
0.0801428035428572
0.0783045020339097
0.0773151437236588
0.0732653648722522
0.0798012665330508
0.0798445018528152
0.0779029227365652
0.0755695860360996
0.0769962284394455
0.0716351632657457
0.075648515515131
0.0735570150011169
0.0754343252164544
0.0744083233503052
0.0754839676363736
0.0720783211570004
0.0740894748566829
0.0709447650037299
0.0752630605661104
0.0744875377375552
0.0758026761184677
0.0717163401687054
0.0727159390336862
0.0688511520205729
0.0707326296495408
0.072227038606046
0.0741013736646657
0.0710006756818365
0.0710980331156712
0.0700617933754768
0.0728070174036058
0.0699188285080832
0.0698154236238996
0.0706768359489054
0.0715253324346854
0.0689202133687851
0.0704439688701624
0.06724024367016
0.0681513273101503
0.0679214134858014
0.0703712897360743
0.0670242027878222
0.0704900276687312
0.0670328327595953
0.069375713438782
0.067983225227318
0.0683705082911085
0.0692448941560933
0.0688695790888618
0.0668021410508479
0.0671637520826243
0.0675000715890846
0.0694212451149155
0.0659218447133204
0.0700636282833485
0.0694226099143492
0.0699869834890656
0.0665841064638728
0.0673951475735962
0.065943177109597
0.0675503954205552
0.0638065005478296
0.065999218196224
0.0677310152460731
0.0680687607868405
0.0678924340663189
0.0649891614644421
0.0650727503378642
0.0675225915132119
0.0633133724702783
0.0670640260955304
0.0621884212179453
0.0644984810001687
0.0634803844586408
0.0651521296808434
0.0640171395543957
0.0674607729182845
0.0633573374733669
0.0654255924917101
0.0617945314904142
0.0635824962473709
0.0637229178051536
0.0651365732615704
0.0615592843656153
0.065757045398119
0.0598445004864702
0.0636711775690691
0.0622394310052628
0.0661163186075653
0.0604330509667212
0.0643753559359213
0.0632474881815209
0.0628383651348271
0.0606621840876311
0.0641073982763531
0.0606200859263488
0.0622463587407184
0.0605195627029141
0.0599452582977221
0.0585873973139775
0.0629150125855327
0.0610312617226356
0.0627266928264051
0.0615951261615582
0.0621129863831202
0.0590894805327651
0.059843901378904
0.0579193489120603
0.0593038925633204
0.0559486409593376
0.059635462170594
0.0590301328727289
0.0589610519342205
0.0566099689722255
0.0577995075889258
0.0558665449993749
0.0600499511720784
0.0568703632675394
0.0588803217318854
0.0583730705765805
0.0621312797432149
0.057529483177006
0.0604381074903691
0.0573985762408677
0.0586346633639598
0.0552799099644053
0.0586933715105607
0.0596605900677217
0.0596667283808643
0.0535594936357073
0.0578886736592251
0.0549557899864406
0.056860391621615
0.053659219974784
0.0573526875193929
0.0543929267706868
0.0556000201476059
0.0536719309429356
0.0578869134927043
0.0538524469163986
0.0541055146816795
0.0563799463404012
0.0542902264907687
0.0507260648954213
0.0567501397624894
0.0540183911908135
0.0546310303661291
0.0503753774734615
0.0532380925576234
0.0522445689106985
0.0540128431357823
0.0502881541141975
0.0535310898405481
0.0517479399765489
0.0546576431053652
0.0512015211493413
0.0525945636622726
0.05187274704649
0.0544471545948937
0.049712254838203
0.0518267944625813
0.0497599851881581
0.0504464412384199
0.0472150341466787
0.0513683911824872
0.0508343517509689
0.0502576351820776
0.0471824641365316
0.0510595659083509
0.0496284786788666
0.0503010869980479
0.0492810284589785
0.0515506086057593
0.0460557708027355
0.051699991762516
0.0496545945953269
0.0493174634280976
0.0470902856108838
0.0500123636286043
0.0477753915745645
0.0500309822235757
0.0507566034810739
0.0523498212698149
0.0454481382948823
0.0471986744388923
0.0472961038966533
0.0478595710067019
0.04404871950585
0.0481503971383083
0.0468464048520486
0.0466827933602963
0.0427705763822701
0.0482742228259179
0.0452421602741933
0.0460596782665986
0.042991169461469
0.0475885041457876
0.0442885723955382
0.0475605844023915
0.0447555393865279
0.0466716204811859
0.0417445841152011
0.0455182147468207
0.0437317265752722
0.0469830709191396
0.0435313179469844
0.0452082727501973
0.0408277668537163
0.0428313900311974
0.0421652153830319
0.0441050091745603
0.0429112294430646
0.0437397569378326
0.0393134473061491
0.0429250603307583
0.0425812143326913
0.0441579897470242
0.0412226734003435
0.0434073798118059
0.0417716510945701
0.0442335190628757
0.0407962224385055
0.0416033633648112
0.0423353963054615
0.0426160952053535
0.0400278180560842
0.040836296368027
0.0412606709758238
0.0426543369059475
0.0388093313671677
0.0422637472297158
0.0403303027287761
0.0415214838760808
0.0383381298777284
0.0428477663351709
0.0421414131499356
0.0419068274879853
0.0397765808363305
0.0433194382355081
0.0417303665301503
0.0444686919986827
0.0413180589021312
0.0423855893462113
0.0408670477191519
0.0446615584975736
0.0382367742770931
0.0424624984199031
0.0390433949402851
0.0399126035281024
0.0377197817674614
0.0455210082298899
0.0388112600829509
0.0396280036900434
0.0385318667021313
0.0414306333185254
0.0333501351655758
0.0370304976858275
0.0354412141213829
0.039361663730487
0.0298234654971582
0.0363949792142367
0.0407681488513015
0.0410237768555845
0.0322563555568251
0.0343322739547017
0.0321521777458887
0.038168679614309
0.0306663872440428
0.0374168509861893
0.0306780813802609
0.0378890826756539
0.0374216376398978
0.039396093096491
0.0338317427304947
0.03987481081063
0.0370404853131347
0.043460132035489
0.0332399285654363
0.0371153882061609
0.0322751705266398
0.0382091212304651
0.0323106030953375
0.037162036185499
0.0327863533148137
0.0348338567209625
0.0343053640395757
0.0326420478420922
0.0350910969966215
0.0350321766655707
0.0322600104756941
0.032408381163466
0.0355892961313425
0.0333674449459252
0.0378329807024907
0.0320183168214509
0.037483383079108
0.0307344959338425
0.0439068857397424
0.0307425101169188
0.0465979326153208
0.0236235960222863
0.045134612117039
0.022605113047291
0.0493542826595904
0.0225072087823117
0.0514990638938278
0.023090381657584
0.0577844196756532
0.0215348008166098
0.051551274534144
0.0243142726402334
0.0519338141518836
0.0301924370605028
0.0446351364959267
0.0332286999677969
0.0377622742869322
0.0395890918743604
0.0361944443797261
0.0413922225504203
0.0323208080313202
0.0434149184183114
0.032982801558175
0.0407492020792653
0.0334282307466782
0.0374733401965567
0.0357996543758813
0.037493611003857
0.0374987857615816
0.035698343048992
0.0393878632603889
0.036400187350724
0.0352494580354682
0.0359436931306976
0.0341725279828786
0.0365194209684197
0.0343855394880513
0.0357956240549861
0.0335237956801015
0.0353580166322566
0.0327195784448388
0.03592582994182
0.0366034678946666
0.037502673188293
0.033740165416255
0.0337286534421966
0.0332287804406772
0.0359853506175301
0.0348754208097595
0.03639092046542
0.0352455445324878
0.0362668587330585
0.0328670574298136
0.0336370828041989
0.0323021919121727
0.0367335299097831
0.034378056275173
0.0345962622651977
0.0340167256703042
0.0358698160644495
0.0345870170098471
0.0363035234674318
0.0369173783812656
0.0372178729530886
0.0349671440171164
0.0353774707995581
0.035520998002714
0.0358186778592448
0.032134803874061
0.0357302703196748
0.0329212687898406
0.0350524449337004
0.0349666685291942
0.0362533863004866
0.0339142297433673
0.0362165926845214
0.0344547160843059
0.0341642404746508
0.0314039815381736
0.0368409101852326
0.0328795087364807
0.0352722275342231
0.0335190210911277
0.0355170753319238
0.0320415644322421
0.0371296778022356
0.03468198909369
0.0367469187023635
0.0333891440743012
0.0372282188229851
0.0335705741341407
0.0356737578411953
0.0325931542102237
0.0365273058665822
0.0343278685470801
0.0344005432613667
0.034302833265719
0.0364634667295631
0.0331119436398976
0.0358524906923804
0.0341879833784946
0.0360201613074692
0.0322597450010036
0.0374173081490217
0.0327965764255534
0.0353607690236847
0.0327227245652251
0.0355370118715047
0.0333064148140598
0.0366717793111336
0.0342495497960801
0.0348260807708599
0.0329725145618768
0.0372803520673772
0.0333874510558319
0.0367804244890681
0.034923410311469
0.0357352891069636
0.0329458219933399
0.0373820985471275
0.0351487866676518
0.0378863371563122
0.0355642788607714
0.0357386859602507
0.0334998799361493
0.0371072457308175
0.0345922133822008
0.0371331117911246
0.0341120077110782
0.0374674396209764
0.0349261041227723
0.0368562923103679
0.0352656709630796
0.0377917125683181
0.03665037579094
0.0378750735701466
0.0339147208600081
0.0390775993672361
0.0357766338409624
0.0368758947245709
0.0347307308248143
0.0361052375718026
0.0323218080207341
0.0369957541931532
0.0350775687938362
0.0350359696785999
0.0345636450450148
0.0366541490356041
0.034157611123583
0.0385333034743882
0.0376300584132272
0.0382455344663908
0.0350243249455252
0.0354144887776033
0.0335129243902933
0.0363639427653159
0.0357576381840259
0.0373977594249368
0.0327504140692132
0.0381493525223584
0.0369185037507926
0.0372586371667578
0.0346013763589584
0.0360282697848491
0.0350044080903577
0.0366738347225802
0.0339990406336246
0.0388963869764585
0.0343411829420733
0.0361263212791971
0.0365269709922579
0.038782429111225
0.0347314690978389
0.0382643662685529
0.0365806747935897
0.0382220116596713
0.035861243362732
0.039805233467572
0.0351430836453933
0.0388595324419978
0.0378436498159169
0.0392744715414814
0.0371709425415949
0.0387412419581139
0.0357086579846889
0.038777373817236
0.0378405853992351
0.0403039854147925
0.0370844546723991
0.0369950478921661
0.0361893227267457
0.0383455656902331
0.0355486580761137
0.0398851125676846
0.0367552247141059
0.0405985420343206
0.0363224246398917
0.0380308147602543
0.0337257542780735
0.0373494682068069
0.0345470412647896
0.0374796676434285
0.0354693754965579
0.0363167462875108
0.034993886826913
0.0375698638506645
0.0336931013011641
0.0398183539899471
0.0339809019410436
0.037466744472165
0.0356613369048666
0.0379091217604602
0.0334146013837308
0.0374285450274861
0.0335867781974434
0.03877104526643
0.0320407623507778
0.0379402937899787
0.0353490879593989
0.0378949305652715
0.0338602181873043
0.0368850339295147
0.0342383660490816
0.0365804663711866
0.0342905884000541
0.0378596240472864
0.0360102154969364
0.0353193844244657
0.034606001899275
0.0364733023988756
0.0331408710375648
0.0368028237737996
0.0327633762636546
0.0335358322960908
0.0343341448016948
0.037642218130034
0.0323834330079348
0.0348191432208688
0.0348859039038619
0.0357962803684567
0.0327615790738166
0.036737067589621
0.0330406310013989
0.0352406614876461
0.0329558282516502
0.0357528576023051
0.0317338559862442
0.0355119612605608
0.034132328885062
0.0360943362887686
0.0339014834677364
0.0360541222662176
0.0329854101411394
0.0348930209673355
0.0336400902609047
0.0362779148757068
0.0332798824682205
0.0354453867220423
0.0330692485812388
0.0364023099767437
0.0329492290651574
0.0364767014999319
0.0292618697737296
0.0346274475259644
0.0333311010138224
0.0354286358805874
0.034212444362065
0.0367372259000136
0.0321904150752906
0.0342882075918712
0.0330133260625965
0.0328004161190371
0.0329890613458984
0.0344101137401687
0.0321818576075427
0.0355287004998998
0.0335495700621318
0.0350011678675437
0.0323540735789881
0.0340306157847024
0.0313297160071622
0.0348535806094079
0.0348758010894638
0.0349147352729088
0.0322941324925985
0.0343639248562156
0.0319441414727595
0.0378185015992644
0.0316404339307399
0.0337001000665273
0.032388790733927
0.0344641778788415
0.0324706947962174
0.0362642483767452
0.0320843683590535
0.0366404068876105
0.0311237610933326
0.0335932825005078
0.029637967360087
0.0345302104499297
0.0306580678719782
0.0353975132144268
0.0320314645259628
0.035040413999442
0.0306972879572463
0.0344906622086974
0.0295380498614337
0.0330608628419094
0.0333571731268452
0.0351051173678768
0.0312642220469265
0.0325450681558064
0.0301544300737174
0.0315978281692526
0.0301402447013619
0.0326105217448804
0.0289421074470696
0.0344321763542877
0.0312903452369633
0.0336193747943599
0.0301879592133772
0.0341828126747537
0.0289301692950283
0.0309518660024705
0.0291423822002017
0.0314945943938059
0.0296953573896062
0.0326705582406416
0.02870283308877
0.0330879232062833
0.0302526849213114
0.0312823501309029
0.0292716508769518
0.0332109886601201
0.0344128075419967
0.034999141657286
0.0272990005564657
0.030643045580828
0.0283087496386602
0.031030595408915
0.0276943495421137
0.0316897535366609
0.0281772095482265
0.0276023415575364
0.0286359799185749
0.0299077276556127
0.0276948139078705
0.0308709429421863
0.0268617103640036
0.0297250170616618
0.0276558927623106
0.031720003638135
0.026941951882401
0.0297644887560318
0.0261013906783285
0.0304581923557573
0.028498341639685
0.0305270297980463
0.0256078163973048
0.0307729536967159
0.0304825731322121
0.0351137796602918
0.0304485539961671
0.0288686095678805
0.0276309989075052
0.0322076780938071
0.0272630886786684
0.028796399722107
0.0262219206449178
0.0293783777690354
0.0268412547976826
0.0288516968284415
0.0265992812897436
0.0303823049326648
0.0276470944249864
0.0302238652226078
0.0272545570798409
0.0293791112813491
0.0251346636141296
0.0304728184479254
0.025823507291341
0.0286955389878213
0.0256969834526882
0.028538300748152
0.0270198153515537
0.0290537180248427
0.0256187676650117
0.0370733373668782
0.0315211787092257
0.032525944449085
0.0260433343172325
0.0284447960919531
0.0252673843043562
0.0282177411762461
0.0263056861913589
0.0286728266113733
0.0241586102162521
0.0290276435313913
0.0248792728825793
0.0282686979859832
0.0283479062995341
0.027386286984427
0.0250413235853719
0.0273820896165645
0.0227665595462946
0.0296141935725963
0.0244567050491474
0.0283498603978395
0.0259577829308933
0.0294393131386638
0.0285008886933496
0.0305840599804789
0.0233969606888022
0.0330420617356456
0.0409767136674259
0.0320642478635019
0.0259451037699877
0.028835189001161
0.0235925286896228
0.0266824334780283
0.0248776876608369
0.0271902770822526
0.0239840562306636
0.0264825304860928
0.0267326145310824
0.0274772210981806
0.027320563570583
0.0294326782514149
0.0257858879098719
0.026588083879069
0.024740665365524
0.0274627037917638
0.0245287151987638
0.0251329262705634
0.0315916446640127
0.0413730467909988
0.0304035449405213
0.028717220173331
0.0258536133844434
0.0268071240052216
0.0402056464362637
0.0342537069014627
0.0259624032470538
0.0275314618067844
0.0255414167995037
0.0256250604638585
0.0238739909619925
0.0252501856601339
0.0274828377327702
0.0328507995740307
0.024068746113691
0.0309525932348068
0.0243881741334586
0.027754856345255
0.0236810512341801
0.0293724025931626
0.0233981907214448
0.0259649496746094
0.0219167430825004
0.026274240553839
0.0232418274597774
0.0265128499623083
0.0248137584008753
0.0248669145223469
0.0265587538988785
0.0348901277849852
0.0248186334700226
0.026455270479853
0.0271339818949579
0.0243015031418596
0.0298028421779345
0.0434375938913677
0.0244901211644404
0.0297085538906421
0.0234042942579433
0.0282076745703483
0.0245843334990527
0.0282991420519032
0.0213402982868689
0.0276496021929117
0.0207242405896249
0.0273149983981115
0.022997175279395
0.0267090347509562
0.0237888055317245
0.02770129180814
0.0245098015885714
0.025879642528646
0.0239114699964268
0.026540147326786
0.0264152543994887
0.026909149797941
0.0334448014991958
0.0501351712506262
0.0370091469361242
0.0381172132080442
0.0302425839609739
0.0277797761274443
0.0253994314232324
0.0281998431413542
0.0237302440704913
0.0295498225701246
0.0237049775856696
0.0295998856256609
0.0241876569891246
0.0292756719055945
0.0237596255898288
0.0272630365247237
0.0213590203618135
0.0281170959450256
0.0222692599939864
0.0301232436221196
0.0198747390214141
0.0274802110037396
0.0217215891584906
0.0388339181308707
0.0275406975031313
0.0322797895070005
0.0188239474436793
0.0550943483334986
0.0448433732842116
0.0321234407388697
0.0303350270480839
0.0277060254627919
0.0252121096860038
0.0248068677482274
0.026134617228839
0.0320867188409529
0.0293895228074466
0.0271832562348147
0.0259170572941485
0.0286514884507632
0.028258236127048
0.0235159454773299
0.0276711968513355
0.0555245028854882
0.0336924565476888
0.0339407209749333
0.021718701728354
0.0327165286213143
0.0466773638765804
0.0312625926565853
0.0303122289936933
0.0309376253460928
0.0247964315561125
0.0286607912850506
0.0233300266499549
0.026941424528268
0.0287189265005199
0.0305754948065364
0.0230739015139187
0.0272875561134743
0.0220887373199533
0.0319273900089824
0.0274144307522639
0.0402880604215073
0.0349182732549629
0.0271767419767345
0.0305527534489448
0.0305077253825162
0.0259422008836891
0.0305015421367467
0.0254320115181373
0.0270165196677279
0.0347135316869282
0.0445491845915719
0.03101098271064
0.0450721617343408
0.0354494302919366
0.0296465298832514
0.0297424086356871
0.0391526674229902
0.0338483495285575
0.0285772946144638
0.0373408856012239
0.0582947158271752
0.0366897984559535
0.0521644152491012
0.025703234528947
0.0365478511919274
0.0241048682482502
0.0315531001231011
0.0243691654913871
0.0478357796783462
0.0259666221723488
0.0351242442364
0.025161587221103
0.0475398085942173
0.0384573515229421
0.0366298359267473
0.03421699725407
0.0296934605288745
0.0279370216455368
0.0413485002424962
0.0331042901558053
0.0293782598885156
0.0534025526994272
0.0667195454664959
0.0519390201415149
0.0381323329531611
0.0251988415935455
0.0735487326490044
0.0307047994669691
0.03688419655724
0.0285040790262359
0.0352695400614734
0.027282478406391
0.0347901994892668
0.0562132043846741
0.0402286988270937
0.029736231889022
0.0405599996691874
0.0248552365207092
0.0562537768606102
0.0384230641575447
0.0364144493501234
0.0295921653666797
0.03961912053342
0.0253597513447897
0.0849414617892069
0.0494152439708046
0.0508123163323056
0.058870327370748
0.0509882947869198
0.0473657498866694
0.0430474433929897
0.0406296410609192
0.0534044374082819
0.0563713756662206
0.0416444710709199
0.0306150281736569
0.0513178679156835
0.066489483291175
0.0373195495830304
0.0488459405634382
0.0400021662260894
0.0382065174144827
0.0752585656421817
0.0958943742874691
0.0695118171345691
0.0481451935362398
0.0457578672337702
0.0697520779953938
0.0478779656727517
0.0434803746886959
0.042399484382734
0.0413132661850152
0.0456125481679562
0.0436236152954818
0.0599455525760738
0.0465281427637988
0.0469125059250486
0.0448039730254529
0.0485845500008072
0.068245937979373
0.0942100164204284
0.089695777412698
0.0562276640485104
0.0952704767454499
0.0732895625543529
0.0637007907669909
0.0557224718919817
0.0510149576305389
0.0693674288219483
0.0529457627605791
0.056967579525349
0.0509038927445032
0.080649415322606
0.0705473010219451
0.0661467890622053
0.0815031221146546
0.0592097673043292
0.071749621415698
0.0515435790097604
0.241374212521975
0.0825143044794594
0.0847525275547868
0.0818043328380076
0.0752865520009046
0.14957040645786
0.0802251863157513
0.0750959134152762
0.0792191194446971
0.0771974784646282
0.0824080165103617
0.0912703909753747
0.0940117562185794
0.102879349979387
0.0911357024305374
0.0930411303239168
0.110038684483363
0.168840047929331
0.148841467270073
0.1287310933967
0.0989258451555988
0.129171940933175
0.126426673840194
0.110034897916602
0.112963170734788
0.114095465221024
0.1129662954616
0.179536207254865
0.12269215683345
0.138681960426351
0.128996338734889
0.175490641577466
0.120322605142028
0.203509205350854
0.165443709226241
0.155700929003882
0.145823356978715
0.150729581710216
0.153266031885305
0.149402648359654
0.189091231696271
0.17728337560503
0.159778394663982
0.16680379258558
0.165999645746663
0.171938099493643
0.165181814720314
0.177429238605256
0.167518186596575
0.240324693612138
0.195417706710947
0.389288933095119
0.203460182371345
0.1793997766124
0.184685710967914
0.18033275566253
0.224595091428787
0.203858814677926
0.218912993286842
0.210882053092502
0.173199459369197
0.19793882680381
0.177951677678344
0.188882878590237
0.17565857187388
0.19492480362451
0.16727341954556
0.220437851136616
0.179473464865223
0.224536991318085
0.252291557487453
0.190707689869061
0.181462380823608
0.181533576678707
0.182379966500355
0.17996168223214
0.173449931332433
0.178757028658227
0.201340026055463
0.169751303211186
0.176521265396509
0.16842395960534
0.192967700366184
0.199549942500316
0.16764124220191
0.177500779635437
0.158963819376826
0.175380781927513
0.164518157395511
0.177745582297777
0.217401342953287
0.166484092934986
0.166732930094225
0.159773034511399
0.15591130417551
0.155666149456795
0.15434485321634
0.157628474219821
0.165280455040712
0.155909485497008
0.164639601144987
0.157143022566464
0.155142687239885
0.150874335735384
0.15872546497038
0.154529632387304
0.153205224886696
0.154067563396797
0.149981562287092
0.152337361372894
0.148708725406112
0.150923428346552
0.150703700744541
0.158544577534176
0.155280055191329
0.151434524039299
0.148975928576002
0.150311546151849
0.147227661913312
0.151267245413676
0.144220544998021
0.148866593079667
0.145476931318222
0.149586806633496
0.141081428954345
0.145835635178686
0.140678820672474
0.147970174147694
0.139567638009945
0.148994819459554
0.136766878237788
0.157765664096208
0.133755125787241
0.200114437660047
0.16144938415916
0.137077042582729
0.144094344559127
0.129704257808039
0.144988136120099
0.125146284525213
0.181262819442101
0.157535140694028
0.135823919048892
0.134431806409569
0.123588202062592
0.140143667173018
0.136012874420262
0.114688252044237
0.132143052017037
0.114873276238638
0.152222212550793
0.197291920088069
0.152599131753279
0.211003713876756
0.129007930142538
0.127989445657777
0.114604408668927
0.165144525604481
0.101551843056288
0.126517002626989
0.101508087508995
0.170637798538768
0.129474877264837
0.106901747489424
0.109084928781883
0.106606565928353
0.132363103788859
0.141478229212877
0.115615290776069
0.123124128910214
0.15971394252332
0.124069906840494
0.167699499140994
0.171446282830777
0.135903623993954
0.102129119598766
0.108857741964026
0.108733003592753
0.098466878515015
0.176454311345196
0.103989964239168
0.119543639519357
0.0964702562550273
0.0947626256764928
0.104265104596166
0.114342076930415
0.118054198050142
0.096653583961318
0.150382029723581
0.0888518233030469
0.116315974984047
0.117066871766478
0.137282509382551
0.146014310977874
0.103115195083018
0.0960755201219139
0.1211658699738
0.147574266798223
0.0958320073509157
0.11763821080382
0.0872500681807694
0.0914952250569922
0.114231489822429
0.0913431613600288
0.115570302350853
0.119259693870672
0.112436689851891
0.166563144603934
0.150156484816256
0.14260720430418
0.106820730271675
0.0868360156231497
0.0930684245084645
0.0938009586642446
0.101599486913855
0.0898708592998499
0.121085968705931
0.110859650087157
0.0764820289900262
0.158620362046459
0.0996344685256908
0.0955671617430671
0.0952433565068452
0.0980865383644697
0.104603053318762
0.129256857873855
0.139867763207366
0.127468392218426
0.111141522170172
0.142454685749374
0.101275787413058
0.120866458610217
0.101999748991276
0.11881911079031
0.108296217188655
0.133618921441564
0.119409479395804
0.128498551331399
0.124266681428669
0.133331210287513
0.134008445339982
0.179594824236484
0.119862502416593
0.192391961592817
0.154800054295401
0.21158669471046
0.167996337727197
0.15525374512651
0.160030586517935
0.160391766415368
0.163760909932124
0.169594722014979
0.170030609702921
0.215625421880766
0.159909949487772
0.190409548263998
0.169868847109803
0.192623380587875
0.178608640792145
0.225903679967429
0.205204590058902
0.245563625661016
0.246048263202832
0.204363990018668
0.208626106226911
0.183621171927056
0.205093701541096
0.203018150816366
0.191086728342907
0.203068830434337
0.190548090894875
0.231671057485068
0.20063210900469
0.20468336482991
0.202462460106832
0.204024235120793
0.203982043380663
0.206612166090984
0.206974207489493
0.214384717278836
0.204422571204671
0.221615270058327
0.198514459181093
0.300779715884533
0.234227362334866
0.22129070136309
0.227822344442862
0.223573315460695
0.226767720593964
0.224250972961959
0.244736271613719
0.238255146908838
0.233308399629641
0.239913717398291
0.22814468964293
0.242039505354643
0.240364800371543
0.276383615381957
0.234213692452558
0.254783418947594
0.2383283961769
0.258793990438735
0.300187090087194
0.249713386464755
0.274889890744545
0.24679792512948
0.255668567550027
0.246389195675319
0.253350246393125
0.251755183722004
0.253795616961158
0.253678273179143
0.251995624936319
0.249042017664671
0.249252574956092
0.254574950235425
0.246202092188609
0.277369232504303
0.247836659361193
0.250364283764201
0.24670489912604
0.250095034084667
0.241560227610404
0.269957670714389
0.262987381315844
0.245819975830891
0.264287346993748
0.258227767949145
0.264530936430814
0.25967594088711
0.237990219818692
0.249950246509902
0.245409915530818
0.246731840903881
0.248910069660148
0.246390033456807
0.283820023537616
0.253569823654608
0.252699448729118
0.245277747902707
0.255336047374278
0.24986473635676
0.255285587631098
0.254174533230492
0.261395141836305
0.256716089307156
0.266205137911679
0.262889280359681
0.260753997530111
0.278699003200519
0.272866799968194
0.273722382760904
0.260607274564569
0.256929725436354
0.260701549922507
0.255820544989538
0.266444217385505
0.254648361013872
0.254095059283939
0.245254808360282
0.252442555933417
0.236657629622369
0.284144720765731
0.248071956922143
0.250946344267817
0.246011112760732
0.232759804349061
0.241594609072106
0.233170476612835
0.236314696173511
0.228338166261404
0.237696850339345
0.227057256011417
0.227794062632825
0.224117437541095
0.227281100741046
0.2250902073217
0.224514978403673
0.222528843746496
0.222278113626656
0.221981146212078
0.220230323886647
0.220047919766263
0.219153231976558
0.223461501853467
0.219926333997164
0.234105355641162
0.24176821064902
0.237338139086349
0.229782229082558
0.219927353926552
0.230336274491002
0.213324734632078
0.222004540177797
0.211353191584863
0.221667736719598
0.213643475746067
0.219764219757009
0.21337460300392
0.220559958192291
0.213591943685446
0.217952191445186
0.212705547782106
0.214864372599652
0.210663783808745
0.216142715473143
0.209328389542216
0.212628295748228
0.208778111360108
0.221316446568044
0.213763211042198
0.210038964055858
0.213216063618214
0.205528034772744
0.209987257003511
0.213980707887391
0.212443505117736
0.211854662614359
0.208443947140209
0.205983305554128
0.202341910497831
0.206611249041317
0.203307568388719
0.206936205130828
0.204714843965513
0.206294154697923
0.2011318998654
0.201625416465817
0.200889485538511
0.198893131977212
0.195428841899568
0.195003227226803
0.189295176654165
0.192357044536265
0.190149512358921
0.186218915180926
0.184386233453185
0.185256012378804
0.183173959319514
0.182210785675595
0.180713332423859
0.177980444425259
0.179856042954595
0.180931164176147
0.177243479340886
0.175493616932577
0.174422981358351
0.173714186373199
0.178093175543004
0.174041723605014
0.174805179907632
0.175260215138618
0.175983591539973
0.173185428714868
0.175194153509545
0.175535655488085
0.177164697684567
0.175340775381313
0.176627121204376
0.17684104332661
0.180080137732156
0.179958929407213
0.182179189434392
0.180960176801327
0.180953238381188
0.185676111993005
0.183856051575258
0.186364262371267
0.184777533070201
0.186977327490629
0.184595359717866
0.185196291166989
0.189203938634817
0.188836855864253
0.184881104373133
0.189917006148289
0.187721344632482
0.188425243150978
0.185167529479671
0.186300822088119
0.183584970925491
0.187532557025154
0.184489316966653
0.185123385057534
0.183086823598363
0.184653561314351
0.182150547767473
0.182336896888228
0.181696720341301
0.181826601028408
0.180546555235675
0.178229259508173
0.178272597202629
0.177363973015146
0.178064055189734
0.177089952429041
0.175231118365092
0.175071081842232
0.176889911687944
0.174870632347759
0.174132748692712
0.174616140620122
0.174772475431726
0.171956746683277
0.170198971389853
0.172138815355889
0.169498220556217
0.170922374462165
0.169986440642559
0.17056516235102
0.166876940347675
0.167778432403277
0.164462379798784
0.166741819132428
0.16607989095037
0.164748108039121
0.162958214431669
0.161974520693523
0.160433658156006
0.160765996098611
0.156993060068285
0.158746224716587
0.1578467836488
0.155513070527466
0.15704863790006
0.155254921826346
0.15388682405912
0.154159392432745
0.151215231805249
0.150553022269729
0.15220097663742
0.152389389762607
0.151226346870761
0.152928694842998
0.152836402355228
0.151779604950007
0.14979264816391
0.15212603717087
0.150977414108078
0.150433638366636
0.148473493902596
0.148058253889408
0.144730613848023
0.145709881877691
0.142415786541824
0.140677547321515
0.140320504288597
0.139043987384974
0.135465400006282
0.136513177718211
0.131440579325092
0.133656766743165
0.132796430102955
0.133713650285205
0.136001747045786
0.138159657373455
0.141064937796899
0.14240986400792
0.146232461743345
0.152648039608917
0.158328248589134
0.163091578318384
0.171017052028799
0.17741206750039
0.18309059937688
0.194450300150889
0.201710844098317
0.209493290124218
0.219711195251094
0.227651957853342
0.237585012489723
0.247732030543104
0.256996026136393
0.267792568267691
0.277257528321781
0.287909489739744
0.297331739549262
0.308297357313538
0.316279171865161
0.32893085240809
0.336019247783499
0.346811084915064
0.354294668252735
0.361109669921756
0.371675255977956
0.377580974279692
0.382475969387705
0.384214619758795
0.393273643923455
0.396419193864194
0.394977241869472
0.395831919291088
0.399227084317809
0.399320095615285
0.397391991782326
0.397942652789923
0.395579879180127
0.394245349521129
0.391936830094698
0.391643234320485
0.388182551294657
0.391219718782827
0.386777602689955
0.385761760354801
0.386564166892545
0.387851627578933
0.386147380383342
0.38976901350964
0.390085578443646
0.393057830614823
0.396137631913777
0.39761298238582
0.400597714874113
0.405814094957247
0.407042268054754
0.413124076994553
0.418748146858631
0.421877928935298
0.426923983778502
0.439985616806792
0.444904213054736
0.450574499045913
0.454081334551977
0.462544566774407
0.465093636041501
0.467903603987446
0.472048606632156
0.478490884062384
0.475516776205649
0.47392618486783
0.475770981632319
0.474093595306913
0.476179518727882
0.474125057442419
0.473751317757975
0.476644589275118
0.471795734705017
0.473549161837841
0.475847880419062
0.483213501891934
0.485757587332312
0.487779602423825
0.494851350273623
0.501696721301455
0.507173264209589
0.517123969945976
0.523504831480381
0.53078854481977
0.539836274648468
0.551278611720837
0.556888705165979
0.559407978478638
0.571831549515858
0.583141784743176
0.591244071493047
0.598685706860489
0.607727715898887
0.618068411036288
0.631712243954939
0.642141257965346
0.656489727517806
0.670418905271239
0.68680261366352
0.70468764077766
0.721753259439671
0.731885797384782
0.745660960684045
0.757166599454369
0.76329898384859
0.769304331440083
0.780733027833776
0.77890602301524
0.784699659972683
0.796203915320034
0.789090523874963
0.784432851428561
0.788086347386671
0.789001981789343
0.791963290768161
0.789962881074547
0.770983762865134
0.769412423784544
0.773900645537175
0.766105139761035
0.758060668065862
0.757774857063166
0.767791677412523
0.760661876986091
0.766302269362295
0.768005643628254
0.773033367041446
0.779658664428322
0.784919144973174
0.784178381243722
0.802171985454714
0.803646976430286
0.813777069698611
0.820424333117868
0.819915675709248
0.831596637770931
0.839281678992786
0.841991827145233
0.860224764123872
0.870639186129374
0.872745463031121
0.8851976342287
0.899420648866718
0.900104655302386
0.906792690157675
0.909916715666461
0.913947984407687
0.936515002160346
0.940455129720203
0.931414045060374
0.929994710415563
0.941262684601535
0.960572208701393
0.941926240965587
0.947653531709271
0.954402678554645
0.956893902363266
0.946890239567344
0.94273573608305
0.959262273143457
0.941574564748128
0.944077824396874
0.946233702811537
0.932651822510005
0.933134442230724
0.931324997682915
0.911552232640011
0.896483175939082
0.873418871584631
0.849607652994175
0.840885367926311
0.821632921666971
0.789364017471004
0.761040672482492
0.748577915542669
0.710353683352793
0.681612162775066
0.662701457206995
0.637202338814305
0.60631592527977
0.586777890471607
0.564170136978689
0.552483718904477
0.52605876824844
0.521917320929324
0.507859665517491
0.505653475324853
0.487564977074905
0.488830033829811
0.475482748778848
0.47639023358181
0.459169909509257
0.464584846144909
0.444810912106949
0.44081093837698
0.427490874634825
0.420612801768207
0.405252514507288
0.397642539948691
0.389211381424079
0.37565312195635
0.363330647136808
0.345338055148385
0.337377721991604
0.324620420526165
0.308746364653998
0.292390276319346
0.277948066431897
0.265004195210477
0.249025941490668
0.235892352957847
0.221957730847946
0.21228306689091
0.200301274226229
0.194062288785957
0.183079820566514
0.171652196606243
0.163071711757196
0.156232633214385
0.149390199241793
0.143640896118582
0.136616681429396
0.132651629349604
0.124782674660709
0.123930785459616
0.121883483758941
0.117681316795835
0.115636108531261
0.115294068344728
0.10880546901857
0.110284080824873
0.108822502018851
0.107218668422395
0.107710640529886
0.10614117205395
0.105175075000701
0.110770346032217
0.107130432664171
0.109882855343759
0.110710610526717
0.109068048527636
0.110858811750042
0.111380407038201
0.112820186298004
0.114106404526907
0.114550437784879
0.116667752933275
0.118041914050721
0.119906993444911
0.115092832777295
0.117729079561242
0.115989508607019
0.118070098797111
0.120605829177919
0.11957545428514
0.123184057622057
0.118141937912876
0.115505533513317
0.117672731180877
0.121771616023992
0.120770676797182
0.122254463870633
0.120963483148441
0.122130769096688
0.123120763940403
0.123019337956925
0.120536311004342
0.123518955106135
0.125557146817385
0.125566298732584
0.130695398133168
0.127290793595763
0.128874848960361
0.129962322425017
0.134080077451495
0.132484597333541
0.131275803253633
0.132884101117366
0.13210855851402
0.131171382998967
0.129474876389272
0.127925869858671
0.130695166930446
0.127756208611371
0.131507804918087
0.132365627430845
0.129385349931707
0.127066723056313
0.13230661144311
0.135769144957925
0.137420239276138
0.142024800300915
0.144807435552864
0.1421529846386
0.145321650395447
0.151810417286522
0.159358465924472
0.166332759401499
0.16505955895619
0.170228988115215
0.170373287146996
0.171526611566055
0.170363554336179
0.167343555339523
0.170563415126945
0.171409927600562
0.168914208603421
0.164129538786662
0.160881998974426
0.156329602039258
0.157889980550498
0.150964980412004
0.144911564659824
0.145726117344927
0.148205285867281
0.144085777733932
0.146176640959726
0.147387848026464
0.147046608280013
0.151019103766016
0.15421201269312
0.149958157520877
0.148446348658141
0.149552399835907
0.152180873733188
0.14689731956119
0.147679103013207
0.139529572778656
0.144084854609761
0.139818805178984
0.142676686572219
0.142050330096379
0.136460506339024
0.135392790410621
0.139382038553116
0.136805352147105
0.138195291299745
0.136944266153682
0.139084645299248
0.139759317579943
0.142062458420635
0.137335137893207
0.140515927108489
0.129883212977996
0.130508288368751
0.133460239563627
0.134015452718226
0.128677969517919
0.129898468936263
0.126870994823568
0.130617385467642
0.128073536691985
0.133144937407556
0.127889898515596
0.134587488325808
0.127585087598194
0.131176611252709
0.126360226675409
0.125710792265066
0.130754605782711
0.12056646439641
0.120029083327918
0.1224973266464
0.120274678316345
0.124275179943069
0.117018052185165
0.121349816484172
0.114001794757651
0.11910933489204
0.114706739290793
0.114348043776294
0.11534140946184
0.118248354487099
0.117346244804123
0.112305500359609
0.117399214786241
0.118540859843379
0.107796007642021
0.115713648099848
0.1177601897928
0.124760354373749
0.117781885881323
0.120224921674061
0.124171819141331
0.123897461526108
0.120010363773525
0.121243489602199
0.127271411706146
0.130738160231233
0.127647118433473
0.134459321542141
0.12974158755602
0.135521961653237
0.133889208424953
0.146349141192482
0.136877619956085
0.140211412170015
0.140155536953097
0.146710458627069
0.132274432667109
0.141817613250114
0.146528341730746
0.153292406849355
0.155813527154609
0.16721070753794
0.162038946545064
0.162373662004745
0.172101039252247
0.182587397854155
0.181739506576103
0.184948538951894
0.198695362548228
0.202028075252265
0.193467155425002
0.202409969834382
0.198144612129686
0.215738182599319
0.22022403019973
0.227307082694569
0.220981974979409
0.222317682812745
0.211165314950099
0.229347225008096
0.226036821312527
0.210390880084478
0.211769216495026
0.224724822575437
0.211637396874253
0.222604090217731
0.218118582337104
0.221424681590015
0.224044244101012
0.214650534593993
0.216577157575172
0.225114168418704
0.204342655074085
0.215561112758042
0.213453277360096
0.213230795829782
0.209211801103573
0.207597947881203
0.213490272337656
0.209635472395966
0.213505815016718
0.210935620595028
0.193615510055732
0.20244900230795
0.1899346593508
0.203238829229706
0.19572984366394
0.200644867449752
0.182757733101753
0.199937191287627
0.217082272041822
0.196033821561459
0.183333154726824
0.199097546573236
0.187875703493574
0.179315919644396
0.172664608010527
0.19345810059744
0.206477011632269
0.207327760554602
0.203768221260854
0.205359822811649
0.188349778025238
0.190435702968764
0.194410919840826
0.172255658856724
0.178009015030373
0.206887132168813
0.195925294371677
0.190638083891804
0.190190331709195
0.180246203116479
0.209846051115744
0.218193866316788
0.206928872954004
0.207837468991519
0.198819846694873
0.206059217241942
0.188831111896901
0.212516694224702
0.1923980872137
0.205910226198692
0.189280019209799
0.218351374940994
0.238359767629813
0.252693838997075
0.218588346728562
0.262002588106144
0.243348731772911
0.235385098573551
0.253571508934573
0.252423486698939
0.257864843386925
0.262518829771168
0.246524937415406
0.25837863790938
0.245321053234237
0.302308526463008
0.297546110000301
0.280296073475926
0.262158904463685
0.258485680224358
0.250128267766727
0.271578276110939
0.273029492600048
0.2750236176669
0.246358756928413
0.268244776465605
0.290874799302047
0.234917449505952
0.2418359469531
0.268516338993742
0.299960321468471
0.231394315112715
0.199357657648371
0.250095998560054
0.246085671865311
0.260566828760098
0.293151064512579
0.250317965364559
0.229883461667492
0.249824543997722
0.208591121323615
0.275925629613833
0.215216249002055
0.22181649926345
0.212391299419151
0.229874534382254
0.241151586858238
0.320853702060837
0.202533761937903
0.264149421067471
0.274991013314307
0.302338547821299
0.217263300387821
0.309604136309418
0.259616865604245
0.266144418231215
0.231615654156975
0.227065087319106
0.375534975620298
0.233736145516713
0.415227456569064
0.281024624987216
0.158854274718118
0.203447915429741
0.253458353679879
0.394997479977712
0.221276842167041
0.190025621192658
0.166975273806837
0.369660173034978
0.230764309035867
0.211090970149493
0.0646931076934072
0.395982824602605
0.23311611821462
0.245094488262947
0.32017878545671
0.267500083214008
0.267480024329417
