3596
4000.36533379555
650.420452594757
1
2
2
0.0759130632197441
0.0854296299680924
0.0856779886005211
0.0797250344151833
0.0871147655823782
0.0862250089246717
0.0780392256874831
0.0881033603496603
0.0838808131156426
0.0862260338550391
0.0890033695692597
0.0780141653696903
0.0792282611435199
0.0837358290815124
0.0780962638492014
0.0838162487783932
0.0789714079260172
0.0756268004760188
0.0801915536197983
0.0806847787897154
0.0810723863383712
0.0850805234532909
0.0818419034184111
0.0769026975713305
0.0834259992473498
0.0904573006985206
0.0747783033260032
0.0802162660224604
0.0915664335242369
0.0855550015344711
0.0817163310153828
0.0848670208975639
0.082757292874167
0.0797903684129196
0.0809639420180498
0.0807337591412034
0.0816394933616724
0.0844081254242255
0.0765769313059196
0.0884354657804793
0.0909600353856184
0.0894437217149478
0.0822339598282863
0.0809920352398404
0.0784870258708988
0.0841932848016026
0.0793031410668281
0.0830053018154532
0.0908489380653099
0.0856474479741445
0.0833104887401264
0.0816010854992182
0.0921439977608777
0.0835673491781169
0.0856363941755916
0.100378115005907
0.0838768624315012
0.0740405539244341
0.0760352330595438
0.0793743405203783
0.0979482828643422
0.0903345509365479
0.0890850235996259
0.0805044708839485
0.076165535192148
0.080880933045518
0.0807837930279564
0.0772861664433442
0.0815598391480541
0.0849518334878501
0.0780825213256223
0.0964680391122794
0.0902456023203674
0.0795037171963583
0.0864937686311436
0.0803199413030248
0.079386136942847
0.0818193908560221
0.0757752316104688
0.0879959970160576
0.0912067351318452
0.0857689737389228
0.0777797956618952
0.0716078989470788
0.0866953628990401
0.0972853511675787
0.0755473329213186
0.0887711119238665
0.10290070436651
0.0942385977712224
0.0799011421184667
0.0790985174661463
0.0768727171242791
0.0707434452356359
0.0759064979858002
0.0824929762246422
0.0712792093671374
0.0775249661180279
0.0708028524576548
0.0782505259582105
0.0758193520267815
0.0994493139683006
0.10683318259538
0.0863251371595568
0.119520317996008
0.084645545497499
0.0871582388791681
0.112391378676498
0.0869736032923415
0.0755267628834623
0.0715777809845798
0.0763534665904639
0.0770379396173654
0.0845689318008568
0.0704662781463085
0.096000089798957
0.101763081841169
0.0816795622515818
0.0761083229619695
0.0741712478241096
0.0688428976345183
0.109544868332472
0.0990988086013862
0.0863066068090163
0.0959483516557034
0.0794257156196849
0.0741489030134631
0.113768225980386
0.0902987170082626
0.0814788121379115
0.0708151206122362
0.0780791738593684
0.0668536349384304
0.0791798833424165
0.11143926783736
0.0888121235383811
0.0786568703178327
0.072010584860146
0.101542081839311
0.112668763067194
0.0940863443669902
0.0849230372179264
0.0705343102299895
0.0805474333065299
0.106178851548
0.0827673611479476
0.0755751529073142
0.0966812650402518
0.0841413203310775
0.0704043961497408
0.0686711050307714
0.0790802825940223
0.0913953223851903
0.0886123593809223
0.0523027427789091
0.124875362002372
0.115310979155551
0.12835977492968
0.117272778471402
0.0798621698678969
0.0905037354982105
0.0808619569745744
0.0779235057678408
0.0722132684003214
0.081658645057364
0.0661092421585787
0.0973000318335889
0.0947416782367582
0.0746510244767279
0.0841342487606959
0.109736200898261
0.0849866027118704
0.0768125659961019
0.134750367676515
0.0863274575158843
0.0705041401993756
0.101352699735576
0.0932459004577165
0.0648089952467326
0.0879876027095961
0.0958548487844262
0.0788192919824748
0.076693177626487
0.0742903754835858
0.0857239221565203
0.0946451946526951
0.0806740690257489
0.0803845319214399
0.0738856817438327
0.0724729849327189
0.0947377842773914
0.126659883739237
0.11217357481147
0.0872016198208253
0.075773814537201
0.0552263384476342
0.112329586646882
0.107862648229436
0.0849869512666315
0.0722039745794351
0.0724052428763919
0.0735333896165568
0.071895050793835
0.0781005794529047
0.0701742894856129
0.0731085453034912
0.114259152192495
0.0962586417983177
0.0856738554571811
0.0748995238798474
0.082567705872343
0.0753964034650418
0.123062511333776
0.102437880808585
0.0864778072766985
0.0715794166230922
0.0841479559957915
0.102954011338986
0.0923091819497883
0.0781942397291198
0.0794524458656287
0.0787580392220092
0.0814308246115076
0.0789390120574952
0.0816500936385584
0.0790674391005926
0.0853410154326791
0.0857658732933602
0.0791099557073233
0.0778136696814827
0.0884430326054034
0.0831694586160097
0.0891969431997855
0.0835578155975287
0.0706687996489065
0.106890098483714
0.101865224063177
0.0887898163989009
0.0829923740519914
0.0747722880205531
0.0774259288913435
0.0837724277512365
0.0833018794763624
0.086137709742787
0.0716804659367203
0.0827893443668706
0.114513907110838
0.0894658587555403
0.0873383017925546
0.0697244591609075
0.107525701730345
0.0918372631539674
0.0898161330629969
0.0793221288634684
0.0909363350266739
0.0763607796515851
0.0951588082980805
0.113316638044732
0.0973246748435205
0.079615107842388
0.106566998028066
0.0912439325994789
0.0937346909308791
0.077472210107189
0.0996755540783339
0.15055303492426
0.111388149487839
0.0967225565811247
0.145612944463073
0.101809010414372
0.108172936669121
0.0822958827238486
0.0776934470581681
0.174420586492274
0.138440193712119
0.0848769065146976
0.0993609352879332
0.101644904386558
0.0860766525242786
0.0908210605462676
0.0958003158190422
0.125781459271285
0.124473080462338
0.15562739051094
0.134450279046455
0.0858912463073471
0.128942059794915
0.107901990177362
0.101667758542577
0.0897970570016633
0.0946224973546671
0.0857054725822333
0.107138408671879
0.0961394431466676
0.114946807910901
0.0934708354479602
0.104304917361471
0.119122471626754
0.11067728354404
0.0881378614622918
0.106765283136522
0.0997083306656412
0.099298035848533
0.0887045333514235
0.103779871722045
0.109820275475413
0.0905956246506672
0.108856892453822
0.155554958110341
0.103849735591245
0.118907865967454
0.119913411749095
0.106453608504024
0.0958589149916733
0.101039807747258
0.100832461338904
0.10002169742099
0.0926977999374542
0.10522979609523
0.13305990357808
0.106978031611041
0.10897875291466
0.100720604452221
0.104798554713404
0.108343275093698
0.10526143300801
0.111742187161258
0.10799872213014
0.111628778614905
0.107397928591945
0.13858840415325
0.133917748446756
0.112456904598852
0.162743158072734
0.148120558916978
0.123375197940112
0.115396880495385
0.118763501771156
0.118493260771888
0.121566123901549
0.12575067116777
0.118542845441582
0.138635186456187
0.140731437468671
0.130685592075859
0.135867081069699
0.148199886087996
0.191806907180796
0.189478994660854
0.149804093067056
0.137128058324055
0.135316264077626
0.202391357166177
0.153285280628198
0.193032820108946
0.166894894391425
0.163866716809822
0.158391306056819
0.156362428543812
0.156348306935675
0.159715128888025
0.162788124132984
0.162393798076666
0.170127199433906
0.166977087721695
0.175541453619517
0.173492800967089
0.186718807112119
0.211731239295509
0.189125361869258
0.191568112573865
0.187259799262619
0.189971327765424
0.238343414677785
0.21488225633808
0.269257390585291
0.238066285870541
0.262116883070009
0.249454130260088
0.221951276632071
0.221345199212107
0.206992216957371
0.231069271849977
0.231715379176311
0.240352125537469
0.236935114974986
0.241662545870705
0.245747803590229
0.243372708917135
0.25129903108114
0.248006167020145
0.26656638050876
0.281813753850434
0.262349908667521
0.280464860126733
0.264318509891129
0.299366481643062
0.325433920851381
0.334848653696365
0.288381449113073
0.306406606581059
0.281031110392484
0.309920303870431
0.290620348719348
0.315536634672048
0.306291000514926
0.32569142117459
0.338170192461416
0.34085187258893
0.346389909743675
0.352430565416042
0.32051157991265
0.367717670666743
0.342844886235297
0.372797642257469
0.370213354141665
0.362027346402317
0.349515005712716
0.417814248249579
0.378133475691595
0.392088422552457
0.382364937832889
0.386837404380203
0.374388033639738
0.405212249534171
0.400839178545833
0.402369529085766
0.406816222574868
0.415019115264191
0.415503872566978
0.427847772189596
0.421144963723799
0.425735931717896
0.443044271555816
0.455659077605659
0.444734186909906
0.465452907067959
0.435733070815104
0.465910356350946
0.437958266604132
0.510093604519336
0.45965105744138
0.511528218005564
0.487336036619395
0.478632231581398
0.45791701587741
0.49721571097423
0.497847644985465
0.509829662566029
0.505371029178529
0.52232201461915
0.521439945431312
0.531830981376102
0.513161657909881
0.541702852041576
0.529775559953234
0.553029706845264
0.540821242393805
0.558239806108948
0.570975659971625
0.577903634779619
0.55124161569443
0.635606852155167
0.602845114418189
0.613767531100193
0.586336707104949
0.600696477741836
0.562187759674088
0.61272625893884
0.592932937517211
0.637934169954847
0.625180384911966
0.652645194773102
0.617372806518033
0.6455351994932
0.617137620643117
0.634772871232186
0.648730488700453
0.660190726902448
0.683036867185356
0.670817804575078
0.670230518839546
0.706014892830291
0.675692600451405
0.719159596147872
0.694623386965163
0.677176827421985
0.683371665645329
0.715026205416019
0.681223101978795
0.716868126136117
0.703026206389649
0.755734496373677
0.749559780479944
0.775962986377917
0.709916669988398
0.767789434817086
0.721556295247164
0.779060657932424
0.753534536421131
0.809357197368946
0.755025049913046
0.794520143576589
0.770712373150758
0.791517539869072
0.804116070462401
0.837510287702375
0.77461203701438
0.85268981262973
0.754031374021206
0.860730110824717
0.877231721618783
0.860274562948223
0.809597216630216
0.849334012843697
0.812982103594204
0.887211176963834
0.818966921227043
0.872338527272872
0.863269504472874
0.903846405719206
0.86702723763569
0.932156976457788
0.871555592252255
0.941541552053313
0.898376414163561
1.03874400510723
0.909396686397379
0.977107301248484
0.892216575030514
0.964919556208409
0.864962244159745
0.990200115397873
0.893260941645484
0.996224002003264
0.889730961364519
0.99781909296268
0.91831269252256
0.951138621462097
0.950499179868228
1.0513798080874
0.950244071204237
1.06988954561131
1.00290735351741
1.02079667193061
0.995665788490464
1.05492411305742
0.976807828440185
1.06743606790041
1.03631106617091
1.05555110035815
0.983679240556854
1.11342718822437
1.01854655937321
1.12155141100904
1.05636639907188
1.16865541094435
1.06331978289385
1.06626163038063
1.09085555155275
1.1308745777479
1.06077162972587
1.20165303059883
1.01322255899678
1.12809499881513
0.998439625803329
1.16736928824222
1.06435103245824
1.11932243310553
1.07524764103519
1.29974022427188
1.05225765973639
1.30309445901933
1.0779677908892
1.25836069598225
1.09901332630006
1.24878116935144
1.05288919344516
1.19915135473313
1.13205687467336
1.36555474083336
1.19641613901306
1.30879664380996
1.10929435167745
1.25720374681325
1.13684771160865
1.41899688256914
1.09499105311318
1.30643373426342
1.13888461656639
1.23099179931351
1.2505754577632
1.55000700808076
1.1767921000345
1.36363985356014
1.23024332611867
1.26522844021002
1.23557172851835
1.38525727575156
1.32202613940987
1.34757608045418
1.19787272665843
1.27232690422143
1.21947621962869
1.39809824236204
1.27519607741718
1.44176999242768
1.34116193542591
1.53770609554239
1.2569284945273
1.44543310576222
1.37516841800935
1.46443971203129
1.28548137226802
1.53377665133104
1.42272063835407
1.43099483479605
1.25322883492353
1.44799770021646
1.20443756031269
1.43755349599431
1.34653041699518
1.4761588873257
1.32851778453147
1.54150937793519
1.42827229704257
1.49174094488997
1.35793844649224
1.61385784216244
1.26453919652702
1.50662410273105
1.46168689097983
1.56211503665843
1.32363531275231
1.75211628342389
1.35263056595521
1.51841154605711
1.3856630168179
1.49405493062097
1.35379441302183
1.59399885545075
1.33499450346389
1.54249462697117
1.33348619763238
1.67301818218463
1.50223529168572
1.55930378406019
1.47993414421303
1.73969121799071
1.37068360962837
1.53252189768796
1.37714006862863
1.4654734671133
1.45753254066817
1.7465948967992
1.46912420938163
1.64638333073898
1.5632997403465
1.88937821247825
1.41792429133202
1.53835433313214
1.48228935671922
1.61266114101217
1.32880322164822
1.94097146105186
1.48289393222278
1.90455642801834
1.48229431753169
1.77885048388568
1.33620155136735
1.65037581621273
1.40576200873954
1.46758463350908
1.42928717467678
1.64224595323746
1.41320971211304
1.68409003015115
1.44447499669141
1.83220247260555
1.59412163603107
2.38842515832798
1.69672813207247
1.82158099189406
1.46217056540908
1.66067411344682
1.49342941043657
5
1.62708785406762
1.89934203564012
1.68499158813165
1.64049731551592
1.52197671281669
1.56694402100581
1.40189547674643
1.66059741692743
1.56332673287927
1.62253847373258
1.60642664434851
1.90480698508516
1.51129625675576
1.71234082235049
1.60415468723418
1.59276977478573
1.59309686135715
1.5287903430047
1.68630885383789
1.6374179856978
1.59202782291849
1.63233798758411
1.71092640374275
1.52164248272445
1.55489205003136
1.59770809141328
1.62233362116492
1.8790695251843
1.56199094598228
1.92002583927519
1.45883356996639
1.79674200266528
1.7212127774925
1.79089744560362
1.51464658618174
1.68471182781299
1.53642805175829
1.87612579189452
1.58182148992129
2.16708601336783
1.53444494302076
1.7782535498693
1.73646250302295
1.64585596837709
1.5933077267413
2.08999651510784
1.56004122152221
1.70421654391518
1.54347499718863
1.56139117587782
1.68959836319254
1.82101688823455
1.58172979795279
1.84891290494065
1.56335618217947
1.63684097206759
1.49642223476172
2.10111746925912
1.52701438375237
1.84364712448162
1.82390602752126
1.68050183262857
1.58550943519283
1.78591190998352
1.58938736253613
1.7511880848858
1.61715453215152
1.99126115859051
1.59918403858872
1.95380017987175
1.71990760550488
1.60048064013981
1.54536939782059
1.90421998742805
1.68613310132597
1.92871046034901
1.42935041812009
1.77030339362653
1.89112983090914
1.78902938158786
1.56676576802747
1.62637998431133
1.66202777069421
1.98375906298134
1.56520737560903
1.85991202184279
1.58211691466262
1.67121831783266
1.60419150800736
1.86005211058486
1.75627832696184
1.52344814072691
1.51609066332319
1.65386315325595
1.61655160073117
1.70685766663196
1.85182884155659
1.8908796801352
1.69906960673284
1.67136711209698
1.62454448733936
1.85617532945915
1.71081573934398
1.85504969860519
1.56596913883428
1.67690250314366
1.57667822948393
1.80758646312385
1.63758663023417
1.84653179416368
1.6488322725525
1.79978147494494
1.47053587087927
1.83277035965728
1.63683391568431
1.72540347899978
1.69439437008865
1.77555567894156
1.45126557119735
1.70469679997401
1.51546601436952
1.74054863086124
1.70520438476545
1.65878231617397
1.52910028141666
1.82434077611621
1.48539498479701
1.71544307050471
1.52773746642609
1.77256789252447
1.52856157470719
1.74413398271919
1.52073277435394
1.81101391520934
1.51632200806146
1.66937315227389
1.62166252129875
1.59417122271793
1.48349578276095
1.71558695945503
1.53381645581067
1.97724558967465
1.47033048861415
1.63660520706663
1.45003477424226
1.64082082431627
1.57079902195934
1.70398479202642
1.57167335550646
1.65979710131224
1.53036969916022
1.61993282159451
1.55809546855868
1.70131717889976
1.46098253146874
1.59510704536177
1.43306274925036
1.51194223015782
1.48546460938004
1.55729066930506
1.53105699002659
1.54284153947262
1.5220101807983
1.54871908835395
1.46146312307441
1.51497837759196
1.44259130433169
1.62396682325778
1.5093529076577
1.60968350202963
1.38556440305342
1.50009992131168
1.35917916292609
1.63472824656413
1.41829211910986
1.60669454533366
1.42900984243953
1.52176159441464
1.41862734612691
1.59252073482077
1.45299522189136
1.49463708078561
1.48933454233013
1.47525951361254
1.43380520495054
1.44569485529885
1.38530084252139
1.48318242056001
1.49057339785235
1.4000318876227
1.34486336676278
1.40063399446952
1.31341744046424
1.40851937778717
1.40430102040724
1.44870876020431
1.36730210845711
1.43313086334297
1.33549139639836
1.35447868096124
1.29941581895053
1.38160490070891
1.28452445632532
1.42699317832096
1.27950304729409
1.4039506639712
1.31838249934459
1.37136920387237
1.25882394135969
1.35773323188169
1.35899553168659
1.37057342992333
1.28140032629682
1.25854952642073
1.26364933875281
1.40513817138421
1.2065431660566
1.25983208312786
1.22409190790851
1.28591472079247
1.26673825864456
1.23504186293189
1.27627753910912
1.20689804875545
1.20670366326552
1.22357481903071
1.18525671659659
1.27579472241293
1.21899434944194
1.27057234761647
1.17103953538575
1.22227417240875
1.15922419967931
1.21134070538469
1.1647516953368
1.15200798297236
1.13580082599713
1.19109000794822
1.1674745696367
1.14398895199753
1.15644650182484
1.16305146765308
1.10167325958223
1.16147140263367
1.09964247379799
1.10697976294016
1.06023723898622
1.17276198437322
1.0784685307144
1.1121373970567
1.05681963586963
1.09583688400559
1.05662846616284
1.0861927197356
1.06033580373899
1.08404180164687
1.04497491519892
1.0763248839056
1.01216741850562
1.02062983217206
1.03908279190837
1.02787997254376
1.02415560755279
1.0279649121795
1.00629513628332
1.02619516768124
0.984503443308108
1.00774182924153
1.00029820752117
1.0128175917006
0.977275175591773
0.98746876152372
0.967315235737764
0.976125768615054
0.945018061956166
0.974264928717059
0.919262400071499
0.963732813566332
0.907141679675351
0.958293924237899
0.906242782937332
0.916552307924316
0.911755241231394
0.93487196621132
0.911618158481981
0.919270780796833
0.891442417457795
0.948659153724538
0.886363480433016
0.880438987645336
0.864006930237183
0.884716294838804
0.883801524778513
0.870724330620497
0.846452431683927
0.866475507070295
0.839886850800869
0.847394439358238
0.820015394548435
0.857196810253486
0.859534729469792
0.846040351346335
0.819091470393875
0.840229822545684
0.805110543738971
0.845339336022397
0.807257420556099
0.81399815905121
0.801644871032594
0.796575834663185
0.791530631612117
0.786613924193154
0.768972138808458
0.794184127017894
0.772809519362726
0.773833007223733
0.759016023169107
0.771903063694408
0.755744745916502
0.759758828160789
0.775767324276623
0.773880674607649
0.744469604300812
0.751590996063239
0.722642011166412
0.737481792288691
0.710615017623276
0.727348477584728
0.711336889199505
0.723427539962728
0.697420017222065
0.714204224603644
0.711083043036342
0.709996839021908
0.687658020452112
0.688052806387913
0.672236288566017
0.683538102647619
0.670384953294799
0.670576144581942
0.690787685502293
0.676422019391831
0.660808819883466
0.68262316625284
0.663585534098251
0.671684129394008
0.654840398202769
0.655066731196912
0.630532554395607
0.646575515684526
0.633081506937733
0.637964293950213
0.624350362688304
0.644443245174236
0.633151351820948
0.628430460440277
0.612409670169178
0.623203159351254
0.607971450535679
0.614428533245157
0.614620269081392
0.606598736019202
0.59634513549185
0.606720719109562
0.589891854868655
0.601867858771002
0.584683113991383
0.586969509132774
0.585890667969547
0.58867354681879
0.568871613207534
0.562443439128331
0.568013386002258
0.574350116467388
0.568876511939509
0.573590980542542
0.565560372416822
0.562336973947682
0.549622316732894
0.566307554862523
0.554709632517697
0.559761308578172
0.551182879220612
0.563415907538793
0.545948286179981
0.547156461404088
0.53831920135745
0.547768106125374
0.537259906181517
0.546558447763641
0.537886355106253
0.538540466657062
0.532089465076086
0.539655270845978
0.536940032709544
0.536582665489199
0.524318654327804
0.529633261031282
0.536145795120201
0.543407967630527
0.528058277571306
0.540377232018245
0.534749163046744
0.531325267472897
0.523703222873168
0.546661603629773
0.525887436430369
0.533992168342436
0.542066791665973
0.542182896055311
0.532119300115305
0.540433079258843
0.523932566875743
0.536992720019264
0.537430853083965
0.544127809804684
0.530156632043793
0.541464896985983
0.540554129093015
0.545244561970592
0.536776230190371
0.554541405788748
0.559322161657204
0.554259193014613
0.538078925022081
0.543963612351704
0.548384857208677
0.563272287022015
0.548320081040345
0.567224124934697
0.556064025274548
0.570797783228358
0.565108715688926
0.572706480731676
0.568883018805399
0.580569816760526
0.576354231116985
0.578968852981889
0.586181263733478
0.588122422810269
0.593999189013682
0.599302333005131
0.585997560003247
0.610159644059196
0.600170598378278
0.594226930265658
0.60700329341022
0.612898537064016
0.626146815585476
0.632743760919702
0.62214127622925
0.645405905734668
0.631489920006385
0.627553837387159
0.639626376678368
0.643969672417137
0.636367500167602
0.63774499644832
0.64435473288037
0.638290623036272
0.641753467443834
0.64982874118311
0.640726311716311
0.652899367999107
0.642308010119317
0.651742197432154
0.649869336254283
0.649518828950752
0.652115673657468
0.64493301534451
0.625300005129187
0.648381084665059
0.639312246254031
0.637834710367472
0.618208533852023
0.633077242748803
0.625605456635685
0.645430241814868
0.629463736018546
0.637881838780419
0.62297634498735
0.619806466494274
0.636825766523357
0.626082074895243
0.630747580561465
0.637909141361701
0.621312010358946
0.629245712862551
0.628669659639324
0.631480917052963
0.623211769281752
0.629784212296874
0.63022740604522
0.634145621425206
0.620949015159938
0.624284320793014
0.626671178640014
0.637808670356369
0.619361240225066
0.627902221417429
0.630399460542887
0.627486807258486
0.622080035410974
0.619959107182142
0.623930488210515
0.622828719895192
0.626307253522143
0.623339984151243
0.611029374762716
0.618692696231776
0.615127818826544
0.62615439715106
0.621567216692533
0.624965097127748
0.614205639477502
0.621996300333992
0.602715043615892
0.601897191448845
0.606562524066926
0.598029861809237
0.598119140307625
0.6034380363093
0.591027959876477
0.591842804139463
0.59292050361664
0.583830179460315
0.574646581347669
0.581916134591437
0.574053961892613
0.577584163120941
0.565728837197984
0.561474614187135
0.559905379727739
0.564532586549855
0.554984562443271
0.55883133869609
0.55454231345924
0.547807569615666
0.542818707898308
0.541793578029337
0.533022248333064
0.537084368479231
0.53436533718661
0.526466580950926
0.522888225425779
0.521236950641863
0.517701164244143
0.513634967955814
0.508510101076207
0.508240524312378
0.492807377597827
0.494088110085621
0.486138146481789
0.496584355592273
0.478994170663452
0.485071968599054
0.476848341429045
0.48390746737865
0.483517754691707
0.481104932888081
0.468976720727542
0.466870450073661
0.471056988170887
0.462883565603959
0.456796298748555
0.456509737302935
0.459807282362931
0.45600272926147
0.452976557461154
0.452349262384697
0.444045141821452
0.445006806730058
0.443978549913017
0.443587476140479
0.441415308674623
0.438324367292875
0.434504783943179
0.428517158874996
0.428734381691408
0.429197044180695
0.42452681960371
0.42371689136891
0.42025228949027
0.41742280941924
0.417223896598315
0.417933752662537
0.418760909973792
0.420299192747254
0.413388776557875
0.414649302896956
0.410288719429566
0.409556992897727
0.402049575068881
0.406720987329083
0.409184404034109
0.404829087943224
0.396694000089306
0.406369899756017
0.39611270751244
0.393335590420605
0.395968904965342
0.396802015414229
0.391081401020019
0.384645565993204
0.391443324726361
0.387951100112827
0.381929839341551
0.382294954693006
0.38308934944416
0.380511987879392
0.380898805457968
0.385274034819485
0.380813308977768
0.380006025248341
0.370217643005953
0.371377871210803
0.372411816174663
0.368567819227562
0.367507169789239
0.370192850167894
0.3750693602679
0.366078046780683
0.360655602454959
0.371463551872378
0.369263084856327
0.362868340209006
0.365053530757117
0.364011109356354
0.361848970062819
0.362394534698863
0.361610426210087
0.355301848384403
0.353869207361254
0.353686058910882
0.349452574541769
0.354232105735901
0.353091911813011
0.354234056730321
0.352414914094522
0.342562658197406
0.346684130275596
0.34938930161832
0.34826047630193
0.347764372386472
0.346509908996491
0.344514545431316
0.342476189099109
0.346153621109475
0.341871261448098
0.342909438092116
0.343112368947456
0.338275308130369
0.338126695433378
0.339273997684272
0.338663412384529
0.332320412291897
0.337324894803083
0.337836801937258
0.329081209412192
0.332773896692839
0.332990216267103
0.327814895588536
0.332162006722618
0.33556053079654
0.331092402603455
0.32948195421433
0.328501156942843
0.324932593873954
0.331717251218543
0.32847332210022
0.332765316359862
0.328055018594794
0.323114274697909
0.323613574973261
0.320932670680404
0.324990869550461
0.326129738755732
0.322902730014019
0.323750073779757
0.320839131108154
0.322588455202742
0.328225386161612
0.318959097201952
0.315461468188537
0.323457391678395
0.31775680171633
0.313361323235498
0.313822983372343
0.316809931175397
0.315508838394812
0.315362432572423
0.313369036767025
0.312322769219546
0.309523702016747
0.313717337927091
0.309944613172721
0.307259729505891
0.307018620227111
0.306293953513555
0.303985025525473
0.309827704631782
0.310350772222734
0.303519188316951
0.304411090585295
0.303890410308664
0.301337946437029
0.300556895466875
0.299546675643273
0.302721197588102
0.29983084510928
0.300093899635826
0.295295103839059
0.295205214726344
0.293996206085877
0.294551947028622
0.293283900482082
0.292126923350944
0.287211163763254
0.291769145089927
0.289773684506712
0.287928780435849
0.287270716183325
0.290316828149859
0.286938749938501
0.288778968645068
0.289003070003662
0.286600926808579
0.285599503319927
0.285274120194267
0.286725479140062
0.283419865616537
0.278106786975428
0.281986082473288
0.279391333097116
0.277991465586696
0.276150438113721
0.2782980112403
0.276277539481413
0.276201479977419
0.273721230015038
0.267021096060663
0.268648100433945
0.275497004837761
0.271986289371419
0.269285355569513
0.264353779199445
0.267089327249692
0.263122125485085
0.264758706950539
0.261652239937139
0.26219083107208
0.261057176600084
0.262420384945931
0.257867998531245
0.256111860042631
0.25626822866128
0.25875582640449
0.257755811898394
0.256970747399299
0.254529454297371
0.25407401818129
0.250715797713828
0.251492845061251
0.244394885425683
0.250232832843165
0.247576251085253
0.246627131451939
0.24369530317417
0.243353488795621
0.242590773127109
0.243543807406376
0.237893628932212
0.239185357351391
0.238259574851107
0.234229812883073
0.233334554592684
0.235547195121375
0.234918590445994
0.23333588071674
0.230212650540737
0.23497768490819
0.228932758895911
0.232974405751879
0.227060014202656
0.22888393156209
0.225917223205584
0.224105307526551
0.223527808995749
0.2281913950516
0.226047097638463
0.223584406865279
0.219871049899112
0.223799902696773
0.220418880137569
0.219529208659326
0.217816983844565
0.219346102815552
0.216132277136328
0.215888396348031
0.213758357171231
0.216530309404633
0.209802005450152
0.210476163142764
0.210477152250608
0.212204102938108
0.210270398649498
0.209146981432255
0.204086306899267
0.210091505523011
0.209801282360798
0.212383053172871
0.209424374857889
0.210994790871291
0.210598688684075
0.212097555171497
0.20542611631762
0.206047884220109
0.201451448921907
0.203022910307738
0.200702283183846
0.205697076901443
0.201855847454001
0.200090659805802
0.197684616056347
0.200847411506185
0.198914543051095
0.202894672896107
0.200293317105907
0.198796915560449
0.196819011350943
0.196455862792988
0.195184330621351
0.195898825026688
0.194643550119483
0.200732963910211
0.192828282412818
0.191734345495649
0.192488186372529
0.196154306259827
0.193740733366592
0.191154759282832
0.19027196480279
0.190537054914667
0.186831004650073
0.192138380835444
0.189794978634127
0.19183282558653
0.18951044761729
0.189561424746195
0.186507653824172
0.187013919050439
0.18844381607991
0.1899484261444
0.186761748763041
0.188056025703379
0.189003982772342
0.188269149889747
0.184919037337521
0.187718637811896
0.185893501408097
0.188939270974526
0.183117832817505
0.185428819213456
0.185515463351098
0.183398157185242
0.180193694879267
0.182609583480275
0.180564699357437
0.184310337751394
0.182662910293513
0.183905093281996
0.182260054803195
0.18101336023526
0.180512154721739
0.179637472168699
0.177659329548129
0.178802515933576
0.17505235314233
0.178824135697698
0.1782453618874
0.179705637160236
0.174975578964945
0.178223958658229
0.17568480927216
0.178840492081849
0.174808027202875
0.177632156882489
0.173302087833533
0.174079802483027
0.17256199365468
0.17594326098635
0.170413821608249
0.174195778874572
0.170326984065478
0.173117995847952
0.16974934420219
0.172340124232891
0.168023806287017
0.172211596852943
0.172276252889262
0.174472368434073
0.16958694820288
0.169737300196237
0.170561770279059
0.16960666495799
0.167420987570743
0.171648090446475
0.166784297524403
0.170895512222461
0.168206032697533
0.167115399159198
0.16368651129038
0.164081741392609
0.163689240392753
0.168876112934486
0.166958753024762
0.165897692854811
0.16300760934806
0.1662879105976
0.162599293412001
0.165538238082888
0.163887121099836
0.166333964615509
0.162753790242734
0.164106436605403
0.16026016516051
0.163507225000333
0.16185029410306
0.164442305837843
0.16229941244368
0.163082635933969
0.158917680440094
0.161747023027189
0.15860701105224
0.162103418058643
0.15895189942555
0.160332425582919
0.155708225646226
0.15765902730842
0.157236414491182
0.160467663829737
0.154217310460235
0.155964257103215
0.155390118007406
0.156658948016962
0.153221711519576
0.156032569700053
0.152081193077012
0.153460453552609
0.154024632173815
0.15442433568516
0.149034677811613
0.153511000907571
0.152721778709055
0.152217322510276
0.1488363370145
0.150978097450066
0.146531035711382
0.151435218561068
0.146819049673595
0.149999383993457
0.148148930332819
0.150183651348285
0.144190056594778
0.144844934194381
0.14431080261239
0.148102848631291
0.145502184184784
0.144775007038532
0.140827760001892
0.143905423851014
0.143221422949436
0.144116596754322
0.141890956339339
0.142635945752856
0.139888820857605
0.140244582900322
0.139700172028949
0.142205447694487
0.139630973810224
0.142918657692733
0.137139705517642
0.138203037603524
0.139146497036961
0.140959314709469
0.134120134709048
0.138237383823099
0.136181872093646
0.138423549347844
0.136845102648538
0.138196529212321
0.134840384089179
0.137333206543853
0.134931829189986
0.134645293252332
0.131937124151199
0.135553941320543
0.132242549633078
0.134634630639034
0.130406811871724
0.133918560484442
0.129812593627804
0.132054065430065
0.128653754792217
0.133606856380785
0.131534851588472
0.132438937554009
0.129998499100917
0.132408755014727
0.127855308232907
0.130700679061357
0.127538925830925
0.129515567695034
0.126505220101445
0.129966166019811
0.126367994916026
0.127256515259405
0.124549580671645
0.127446235879787
0.125154213424727
0.126653086041675
0.124933011507433
0.126264683570615
0.12254052028477
0.125568512899123
0.122696160588794
0.125342908941938
0.124603244478878
0.125374641560852
0.122457046059261
0.122953435394158
0.123887530414354
0.124630606818657
0.123345778447723
0.122343983057083
0.12256638687272
0.125750093335451
0.120527714512231
0.124207194799111
0.123020406320042
0.123586382042694
0.120299695653995
0.121992580560957
0.121910392211142
0.12389048111044
0.122252655179465
0.125633919365381
0.11979787273036
0.123871722407041
0.124562262059241
0.125130466902639
0.120376921573087
0.123355836879629
0.118289513828281
0.125826747640932
0.123299676330316
0.12234346398122
0.122387211941104
0.126658309393648
0.1174962479987
0.121981185661615
0.121452427153251
0.123772941262899
0.11590965714285
0.116236205843501
0.113920901642087
0.121443248713614
0.113951671848431
0.117341305402866
0.116324425526456
0.119454996577517
0.11629400102749
0.116262801600779
0.111815548977101
0.118859293810919
0.111581993479252
0.119513078392464
0.110689336220256
0.12021637828709
0.115630493216563
0.117125631530193
0.116593580108274
0.121638108629437
0.118788901866172
0.12131800203618
0.114039844388341
0.1179141639423
0.114617474761572
0.118457850982501
0.108916137799888
0.115450932006274
0.112758382560398
0.114430414355827
0.113236497257428
0.113009073445341
0.114988108886786
0.112268697807481
0.115840936468259
0.1154194678771
0.114525316729708
0.112506035393207
0.116912675191507
0.111495082234871
0.114872108800114
0.111152167192193
0.124358676817507
0.111710648621992
0.124037848907164
0.106809260581498
0.126078085697674
0.108124297350375
0.125003289197004
0.106731753960631
0.128928116403255
0.108075092261417
0.132452876749097
0.109463754976166
0.131193818247762
0.110213517994799
0.129338755089915
0.113146396954447
0.122961701953638
0.116204565759553
0.119812013917713
0.122146224276246
0.117990046743024
0.124144403595395
0.115068399712361
0.123414494780899
0.114738520463546
0.123908272318427
0.116917231911672
0.121602822150228
0.116904386084812
0.120141711561987
0.12075774347195
0.11829115480352
0.119247646921292
0.118993699958509
0.117665357100205
0.119478758737323
0.117604588999894
0.119307120306383
0.117349495069849
0.120623667431174
0.116079893171223
0.121306829267114
0.116266844944099
0.119490168521576
0.120170556951151
0.120566608561936
0.117878003647467
0.121855139758273
0.11779762951641
0.119958230915734
0.119852367957022
0.119774094326203
0.118594799249362
0.121982605172148
0.118444531356303
0.12095625891671
0.118636886926811
0.122575558878198
0.1190096686895
0.11952019272105
0.118800699287251
0.123097559128317
0.121964273386206
0.123267720111246
0.121114566235307
0.125055286939638
0.122589147375039
0.121962823726301
0.122530303818584
0.123542528776301
0.120635958213873
0.124260566187141
0.121208113582515
0.122314232183961
0.121406452847559
0.123753659312301
0.122407327534233
0.124173967118673
0.122984690961189
0.124838460907625
0.120452626404231
0.126071681081323
0.12107922827632
0.124844647406316
0.122517588972033
0.125678804897355
0.123239017551019
0.127750455520813
0.123719559275229
0.126581246646949
0.123233267746867
0.126365039080618
0.123352982775388
0.12655335803983
0.124184823656759
0.128475899654741
0.123533028315556
0.125374522267737
0.126384684181687
0.128278775780667
0.125839426451094
0.129679630146769
0.124570702828067
0.129625141410839
0.124186839531727
0.129043904504355
0.126814046822062
0.131335345985207
0.128109577126062
0.130280517245305
0.125322012532812
0.130004793545209
0.128401174801043
0.130481145223625
0.126304276803684
0.133515351921948
0.128319216650182
0.13359961924686
0.129465712768554
0.130574661661949
0.127482525720559
0.132797375234973
0.130994611053076
0.135337670588251
0.131606348563628
0.134876295215242
0.130755411151265
0.134346770917732
0.133166605721348
0.134364458363074
0.130890553225913
0.135896064550141
0.132071035453439
0.136662828683418
0.134710969261124
0.136370188589998
0.135182306818579
0.138798530718654
0.135257243778558
0.136720010583926
0.132789956988438
0.139334740687958
0.13400152969184
0.13742776099313
0.134404573137056
0.138904136646603
0.136421768671589
0.137058876449345
0.135670482789625
0.138954312739482
0.135886061183202
0.141170047652693
0.137248845612943
0.14130450040415
0.136947786522257
0.136264528342825
0.137930266814615
0.141081985823402
0.138705739934572
0.142588459457832
0.140118397740209
0.141842397614455
0.138115063788464
0.142537430944703
0.139028584795709
0.140843731322497
0.141189635233329
0.14148461604487
0.136697243849246
0.142119708293206
0.141354594290049
0.144292739371629
0.142081645584034
0.147736247357194
0.14385537573886
0.144428960240782
0.141396590847488
0.145994423782765
0.143055004666922
0.147783609566906
0.14322717993768
0.1472193057762
0.144603913614341
0.147929429264233
0.144990284167431
0.147521275864927
0.144594918882496
0.148701359137132
0.146431789743799
0.148764855678318
0.145582581522031
0.149695553706663
0.146606116039793
0.147108161114002
0.144527955977054
0.150296802865386
0.146197290142341
0.150382419427062
0.144451923276853
0.149222955710729
0.144760313215878
0.147285634900457
0.143598178590288
0.149149124423663
0.145260515788491
0.148634427830537
0.144104686785082
0.145446935031002
0.141397663497157
0.145869462359051
0.144320458653109
0.148384774418737
0.143317229993276
0.146093464067231
0.140433818405299
0.146181696627486
0.140572281667731
0.149281606481051
0.140331753402238
0.147067510652446
0.143549156729025
0.146343494890073
0.141089156173349
0.14398260673099
0.141605678940261
0.145283646884959
0.144272151506669
0.146246569605957
0.142782741398808
0.143713796642518
0.143021748787669
0.14457478591915
0.139537266947313
0.143428401218848
0.14171039333694
0.145478881012519
0.141711062323724
0.142450281749799
0.140306482402366
0.141413503677702
0.141098369715639
0.145721510385687
0.139498598051529
0.143536553012438
0.139099327674453
0.142760383751803
0.140000071720511
0.142928543868491
0.140661731201496
0.142013883260045
0.137616089682498
0.142392972172785
0.139290811132211
0.142922920146083
0.138554348133125
0.14051814799189
0.13910751177594
0.142185742187552
0.138211255732368
0.141181226659706
0.136084028467071
0.140940490471244
0.137549617911447
0.139705508546507
0.13572249408968
0.14156169772636
0.136356446885309
0.138764419598577
0.139156939161758
0.140384014114719
0.136602304493549
0.13950380861173
0.137724989059793
0.138047994768605
0.131937629547442
0.137228360539669
0.134743094478515
0.139239006511271
0.135367701792801
0.137935533000508
0.134502352026372
0.137683836490423
0.133422364558822
0.137816097816093
0.13807869463537
0.139255009793908
0.135065346693647
0.138181292337109
0.134896952342893
0.138278059055289
0.132565332545935
0.135739615545982
0.132818884272245
0.136411688448845
0.131903450999045
0.137567458907368
0.13049544696271
0.136566986325264
0.131728927868436
0.133371787738915
0.130185491809556
0.134160296903016
0.131102476212951
0.133853583415321
0.131630995992401
0.133424694146682
0.12988085562041
0.134463869637449
0.127241731777082
0.131989092193253
0.132241379502397
0.131723267427088
0.128625933165109
0.128790847228125
0.125184835995613
0.13012494530472
0.126881187052548
0.129370427724183
0.126787788003041
0.130291459202701
0.125059108451625
0.129969870410373
0.125636211595214
0.128508211379623
0.123703603041409
0.125311480780728
0.124685914712702
0.126637852856431
0.122482035263739
0.126606816750962
0.118969041872599
0.125169519389902
0.119104775974434
0.123967761453735
0.122812693844674
0.125973679365118
0.127386461691557
0.125505124956525
0.117835711599575
0.121830565605772
0.118054055857922
0.121914640922327
0.117991333835648
0.119058146789056
0.116602292732008
0.117659786747189
0.115648060190304
0.118171260102712
0.115379844768976
0.118917532366832
0.114398132924903
0.115461476110916
0.112653351553536
0.118286437532625
0.114322721901811
0.11611993344767
0.111637754717497
0.115509958991569
0.112876591599938
0.114646984358697
0.108638610460674
0.114178737637432
0.117284839216173
0.12344044865842
0.113559472597905
0.112357590244345
0.111029647138454
0.116981215706711
0.109964202957193
0.112012632511827
0.110218844479736
0.11092445485309
0.109030186077625
0.11254776694896
0.111101649811592
0.113864896034249
0.10862798615325
0.114053188074877
0.108076563688902
0.111584723459038
0.107839068689604
0.112449705899394
0.109894777449374
0.110455522172561
0.108557755522346
0.108866274395331
0.107136575612773
0.111096429657267
0.107149563687061
0.115690176090728
0.110591599533078
0.111283026289314
0.105304578105521
0.107911029083272
0.103660486065965
0.10795309822435
0.105497653096474
0.109974434839913
0.105923409391693
0.108000883283376
0.104029344083187
0.109428341469736
0.105812351193812
0.106293892980337
0.102790125003773
0.107786571797648
0.100408789568127
0.10617149668234
0.101691545339535
0.106265288176892
0.102262519821097
0.10500370750324
0.10119488527501
0.109309033347927
0.101222213665966
0.108917572463602
0.115688893325611
0.107180970206448
0.102710783341118
0.105121968139423
0.101328092981824
0.104189558328826
0.101000441251012
0.103324570007925
0.0990113912085275
0.102796042175438
0.102505691965264
0.102956037946327
0.10324348719697
0.102603875650307
0.100143209746446
0.101105554610638
0.100750656614427
0.104208124851853
0.0994503411852479
0.100205428607432
0.106192897654161
0.116984307012529
0.103212402749691
0.10329656129064
0.101724070705236
0.101921520051846
0.114818126741143
0.106514545727262
0.100781717641824
0.102941511835874
0.0979053710749699
0.0990956291360022
0.0985559027132461
0.0990344180777328
0.0981094872217306
0.107814880692246
0.0991665645848839
0.105580449446446
0.0999012766831296
0.101063236121569
0.0960949354850579
0.100388853751303
0.0971263554916309
0.100913677613182
0.0952707918939208
0.0998194104224308
0.0983566270491191
0.101369565473437
0.0981141318135367
0.098560551159601
0.098347740117686
0.108264176241142
0.0972812212526429
0.100255206887338
0.101062990351803
0.0982032107920022
0.100384568771302
0.117663521043073
0.0985646763534813
0.103912340627309
0.0961217309991205
0.103275476248275
0.101122466057876
0.100576149453603
0.0932208396194214
0.10294779950995
0.0941184214315771
0.100874673953149
0.0981734204832538
0.0986435916878991
0.0967955721955372
0.0997454543228358
0.0941973585682859
0.0994585165096021
0.0958266211233776
0.100217700682403
0.0959827609608073
0.0996794763130303
0.104700557953778
0.12208591932152
0.107482007907071
0.111826402415051
0.101326367249108
0.103766771985982
0.0979813634734565
0.102860778311977
0.0963307418924729
0.105121987383103
0.0969821802884508
0.105752866335485
0.0962891032655891
0.102894689045573
0.0953252106319803
0.101786471751897
0.0934449593888852
0.101556465291177
0.0940534331572218
0.102219187895557
0.0928608241754883
0.102404165696754
0.0947591824155122
0.112667487387044
0.100262586603455
0.107212672103367
0.0925624044915194
0.132910946202957
0.117648298186905
0.104276104960101
0.106789987898185
0.102170842390387
0.09849944442096
0.100189117060228
0.0997283654462032
0.107828666488254
0.0996657224226175
0.101966009399906
0.0983621895945324
0.102149407353283
0.102308590090869
0.101489040699275
0.10346075270035
0.131196764447128
0.105493841131756
0.107261884740161
0.0980943893084635
0.109209637928828
0.12099634013499
0.106366790264493
0.108015058190146
0.107806101692238
0.103204870932994
0.103235539030154
0.101504151785617
0.102744913100257
0.106259995945339
0.109050828392196
0.101344294127058
0.104719911807993
0.098937219990513
0.108358313631436
0.105145391581814
0.121180779016371
0.111628263026009
0.105626252873245
0.109213529683463
0.109914030451892
0.10561346613607
0.111610280471694
0.104509063809172
0.109514934087578
0.113688989495741
0.124742837148661
0.110744483619907
0.12664363500855
0.114968893452601
0.109409303508194
0.110456937288326
0.119653092338694
0.115479636118961
0.108770300263383
0.120937220615164
0.144006910440167
0.11874077430415
0.136797333313423
0.107553026140648
0.121168267725771
0.104732600864228
0.119520826925248
0.107530200044242
0.131574364033168
0.109362274110925
0.122615449266853
0.107714284343095
0.135336045474148
0.125736306321475
0.122478493912225
0.120572076582562
0.118892059651229
0.114856260053957
0.128474069977456
0.119452505848093
0.117102364306253
0.145788481921197
0.157105236357946
0.140062401561508
0.127799038554601
0.113500219793814
0.168263399485113
0.12138884888913
0.13120697929017
0.120603617726194
0.128333981822543
0.123435710096673
0.130687274760357
0.149180901456212
0.136740441012677
0.127019495900687
0.139068875629058
0.121244575199842
0.154808856561933
0.135773609858753
0.135906553897334
0.127644783900661
0.141065839883986
0.127402077653532
0.182924746088261
0.147840819144804
0.15212244198115
0.165560127776888
0.155069635452002
0.152261617906307
0.150755853490366
0.14628944676995
0.160803582566893
0.167039554869885
0.151769795319083
0.143826719829491
0.163944223038495
0.177583996473127
0.150268610162513
0.162305182976687
0.156861542697894
0.157378469816122
0.197310892414628
0.218120399400773
0.19022383323716
0.171438098470394
0.171346899984525
0.19515160297104
0.176825401786961
0.17073973807446
0.175911690343703
0.172826743333684
0.180195113841118
0.177156071405386
0.196117546221655
0.184071602668351
0.187688652450419
0.18539331799469
0.189527403675672
0.20655217952241
0.241016348354242
0.239990802379022
0.207196570722899
0.25019036766797
0.233880073832607
0.218957861734282
0.219250068708625
0.21061181563559
0.231464068044383
0.219191960372654
0.230372772236631
0.219774449519282
0.258993748819869
0.247378596328401
0.247398574168601
0.266593679543638
0.24481510944999
0.259049318806733
0.245342059208166
0.454037924016628
0.285883619594906
0.288490183839479
0.289845245634018
0.291915271956947
0.377428225034649
0.300012490136737
0.300116854493887
0.30932664690472
0.315081550661122
0.320009703387852
0.341687694057343
0.336230765996651
0.359179314838797
0.354370881229525
0.35524630322764
0.378995297848014
0.460409174316963
0.419365705643472
0.422850278840737
0.390465782162712
0.432134003007313
0.430326587266529
0.426372836340831
0.428288335883055
0.444552697898667
0.441811593903186
0.537053295142777
0.459057048928857
0.483739756688966
0.477969864258073
0.542029020288967
0.4781991470311
0.569489389025951
0.556452122873751
0.538624962317105
0.538750357880193
0.545330572925277
0.555505607355059
0.550753062736765
0.608026550946976
0.603497736696419
0.58014107519122
0.603748683644258
0.589239057455841
0.613338792457106
0.614830152173613
0.633429341880465
0.62033874905401
0.709022818767539
0.651783002693742
0.915649350851429
0.670092918750826
0.643657231466667
0.660519185561174
0.655866311843641
0.695853034287507
0.693827087246439
0.68952000491299
0.706586769608925
0.655540591221629
0.685920923425375
0.672849691915968
0.697871355980385
0.670813369105583
0.713552448152667
0.661093153004123
0.714771702140055
0.680195882470746
0.738226546155322
0.771728232210421
0.683566529819254
0.680228625073419
0.670123210317969
0.672649131692556
0.671551800447563
0.661178673797372
0.658146771953691
0.703037720036675
0.636070931890055
0.658771597900423
0.632201148186952
0.675082968516868
0.67553371477644
0.623748119427674
0.62516642483222
0.609803514140611
0.61934948231666
0.591277656089583
0.614541934611895
0.679556660953853
0.594016676761402
0.58188671393554
0.571719602498727
0.56583921520067
0.568233202220184
0.556837986481871
0.559175217310665
0.551256717493925
0.547819485848479
0.545120357767591
0.535517660059215
0.534381882609931
0.527316328100112
0.532054692832657
0.524062859921618
0.525205291831947
0.521640620050298
0.512078645116146
0.515301022398305
0.506436463920741
0.508715113507695
0.503918810219226
0.510486160283218
0.498674249994374
0.490702454111936
0.49122788879303
0.490064745808601
0.492243829610013
0.495455765135594
0.475965594358236
0.486188934735798
0.475303230057388
0.479903653171416
0.472834321053282
0.475790178429434
0.473660665655264
0.480452526813582
0.461290084996596
0.470884202850552
0.455438157634732
0.48241434606733
0.445325059265954
0.510939675604914
0.485532214403403
0.450692036520139
0.459668906241949
0.441890261085218
0.451427519697472
0.431490202449135
0.482291765172843
0.469129387359083
0.442967306397003
0.437947690792508
0.424097203455749
0.440525028333011
0.448438677950939
0.415048930657561
0.429371132874135
0.403067431166464
0.454847986413749
0.510953387444132
0.432493916865289
0.512588588454409
0.419629262267477
0.403801826033922
0.391687130473311
0.453649157300623
0.37081750202339
0.401350990252671
0.371294340667891
0.442302881181541
0.393530867063504
0.370494699778309
0.375137929059908
0.364906601739412
0.392012697785924
0.405469330004984
0.371624786838023
0.378902707368576
0.408133292811173
0.375170866206487
0.419358337497725
0.428640354840715
0.383501376085826
0.344717719739912
0.344923464288801
0.352905809391843
0.331200550935636
0.417524670981256
0.342190114988311
0.357019255317847
0.333787247596755
0.325681788268976
0.335091290514949
0.343207375470883
0.354143722525711
0.322166446690783
0.379512980368549
0.305756782119501
0.333166049660922
0.342189079961291
0.34737205045846
0.382999325248024
0.325444446799725
0.316624156820539
0.342483268114998
0.374731809601512
0.310987489814376
0.338283576112217
0.306957688502467
0.300855939945279
0.331449263261519
0.304127348381707
0.320502367807449
0.334509311864513
0.318592196405926
0.378656824197877
0.357592207536768
0.365454042641198
0.319334714894484
0.300878214233141
0.307005707388391
0.306007156466932
0.314917156087823
0.297086778853504
0.331899442119915
0.329420698974445
0.287865729704702
0.384009300478718
0.315191371938637
0.31271554727245
0.311319542447369
0.319603479872513
0.322271616019355
0.354422813493074
0.361292371760053
0.360362046121998
0.336199898020764
0.383523976820337
0.33019900217402
0.357551642873586
0.332048748683584
0.354330313549926
0.346139196564409
0.381950755928936
0.366585416890019
0.37831025482111
0.370146939678313
0.389132758270834
0.390028214763422
0.452537216624631
0.383537288399784
0.469126458821041
0.431880994605187
0.497923207015834
0.4580731708363
0.444239379765734
0.456844418856648
0.456054635777842
0.464823695070133
0.477042547469298
0.464074609017855
0.53731081394436
0.476995945983137
0.508576889553902
0.488763289783169
0.513477296340953
0.497677548812076
0.548887312993396
0.530205623364732
0.569133900651821
0.58923522459985
0.533089640072503
0.549768872793412
0.5255147238061
0.548531787456594
0.541888178751513
0.527756839182059
0.548498105427257
0.51517393509749
0.576129123560993
0.543145958887637
0.54635302074884
0.548719379704579
0.552018200740375
0.561800158110432
0.562036033780726
0.560142463065328
0.570100203139007
0.559073911931778
0.583247100679961
0.543246531597111
0.657793433496272
0.598202415861158
0.593257959193381
0.597535069787666
0.593007024849168
0.597737578183654
0.59778722712569
0.622418359050031
0.619677946542759
0.605333092898013
0.626628059784895
0.607963986692909
0.623789719160762
0.622295188863854
0.664313859799218
0.620572195392225
0.636926123940846
0.633548166174129
0.640548477764657
0.71416688291153
0.646058222080974
0.6730030527008
0.641927852256364
0.655146616413173
0.645709916308391
0.654873101946869
0.650290399030005
0.662418338814298
0.657401091252576
0.648946197265603
0.656673917147637
0.65138984325644
0.656706234741428
0.64387771809459
0.682985906704477
0.659513010418849
0.653848600056673
0.646906127455216
0.648683688804013
0.65409651536397
0.676829931909984
0.676502826180377
0.644376436626919
0.658742439949562
0.659072576780616
0.659870734274508
0.660336531252408
0.640699401813876
0.644190201375545
0.645010163190562
0.641464391537546
0.64381657210977
0.644024632632443
0.686352452767783
0.659860629706995
0.660506415194212
0.651622219831939
0.662668178956411
0.661555723785705
0.685378400457907
0.683638954007764
0.682542389502161
0.688896504864749
0.693501596592341
0.693030525722777
0.700247659025658
0.713096365494269
0.706762423253455
0.717627411956869
0.700514566440569
0.69348424073373
0.692553215940222
0.694860948200502
0.709255275357354
0.690530410492855
0.691148926335456
0.677088818048493
0.686270018862208
0.660359096116795
0.721398938152358
0.667875400020016
0.678361943659312
0.677122897342716
0.657995233957727
0.669381909119815
0.648720243820888
0.653510578194904
0.643013844651001
0.652898893996258
0.639875166486752
0.647251106316498
0.636833489914565
0.631212362565718
0.632106809392511
0.637489083522823
0.626416790966096
0.633086436856559
0.632312728675054
0.630673917213372
0.622072702335193
0.625288496932561
0.621882486801435
0.616711040908721
0.641531265192104
0.649750233999499
0.640867719708932
0.638039309861637
0.624779706969332
0.63414929065855
0.613923204391369
0.630496452285064
0.617491997876443
0.629966010203888
0.618875819996755
0.619107331996326
0.607460451530473
0.617667965136171
0.606875604859225
0.614312512931739
0.605030285722888
0.610760893939719
0.607189265056329
0.610122511305331
0.602620428207317
0.604326427380904
0.595550967925002
0.60813287619287
0.605559160189194
0.600729520443223
0.606505656750752
0.592284844002867
0.605724109313417
0.602136085613933
0.596780231422261
0.602687178605407
0.592462049079959
0.594242136490808
0.592689741586443
0.590690557436508
0.589714796967743
0.590436832177361
0.58712312838941
0.590405824950166
0.584646918462039
0.582045588748918
0.579955605960625
0.576602424165627
0.569222445702748
0.566484189423583
0.565488178303247
0.563900892014161
0.553810565076567
0.546958664597365
0.543950512163806
0.549003055634384
0.540904997988439
0.541794009701771
0.537110788135319
0.533755686811024
0.530347003348804
0.53160693507995
0.530614884298941
0.525984908292258
0.521797314304063
0.522509392842261
0.525373278591136
0.522647033794565
0.521984820189828
0.523506353441788
0.519339814986872
0.522974926868015
0.524216099429547
0.526193434587831
0.525875780344277
0.52424736445165
0.524741251639185
0.530586022440378
0.53157490619607
0.532984568896407
0.536341527639467
0.534478956634754
0.533727090064204
0.537207062834967
0.543181969109661
0.544605318905321
0.543333486839831
0.543923442901602
0.543879617532201
0.543324455037695
0.54535046488505
0.549010561603311
0.544262317552647
0.550270721246305
0.548659857546502
0.548833404906913
0.547434643500082
0.550982007237164
0.544894207847611
0.543003120392006
0.544487792873762
0.54177324829654
0.538118550232099
0.538364347430837
0.534502501520591
0.537299449676587
0.534111384397288
0.531465503320647
0.527705396170666
0.530212493956807
0.529670118650396
0.523528088704249
0.520165127821887
0.520142496361325
0.52012802721079
0.517984274501475
0.518033736634124
0.512156210407753
0.51408548544881
0.512563731624766
0.511291227896954
0.507643267347147
0.506678645485793
0.504736228444458
0.501923036972376
0.503465635887292
0.500095999717837
0.499228001624226
0.500153697128209
0.49703567096776
0.490619322622507
0.493854000278524
0.49182075520572
0.488963795583705
0.485189693498922
0.48137113981507
0.47785092722281
0.476579161703884
0.471632441818001
0.468275894310627
0.469240876889422
0.46253904470112
0.462896467477359
0.462232836135073
0.457360234825547
0.455248093480624
0.452130848887453
0.451416798691953
0.45536829714145
0.452672987393231
0.452413188651987
0.448687326798583
0.450296074928693
0.45033636533916
0.446933236783507
0.446070338906531
0.443207431855707
0.440371836455954
0.436690624687597
0.432789000004595
0.425986887594017
0.423042937745201
0.41686726729883
0.412024949933547
0.408004702592176
0.400017353598035
0.398965917142923
0.394058790307805
0.389918418004558
0.39159810385611
0.388428743558829
0.386844482525053
0.389444276593936
0.391158570375355
0.397653604871391
0.402580124848441
0.410758109626596
0.417613729076387
0.428731939482554
0.441896890478226
0.454505050280226
0.467676297943252
0.479979138741426
0.497782539128578
0.515974097142948
0.536489568970051
0.553772979038736
0.570582846535576
0.587261384835467
0.607468405861241
0.628110162760053
0.64628019789084
0.668617069592179
0.696352596792456
0.713960617721797
0.739732174325677
0.754872661556795
0.774035564183707
0.799902238708275
0.815651313117253
0.83056482557353
0.854739783601091
0.86963040649476
0.887955977682865
0.904060667603946
0.906246470367992
0.918328113141693
0.925221239707631
0.942084557786904
0.934188195892605
0.937597496689397
0.928518331892629
0.931681668102054
0.939526861604001
0.929864321157306
0.923093396905721
0.924029906482464
0.922581266152129
0.916120881769165
0.917060323672401
0.908596225879875
0.901992873098998
0.910171224588271
0.899707192161928
0.897227529824859
0.905271211423826
0.911837928549395
0.918338490183668
0.923510491774586
0.931158891013844
0.933963573995634
0.945499260431941
0.950136173803253
0.95305300654629
0.974914286548609
0.981884919678822
0.996278731942325
1.00574601976705
1.04060564946771
1.03679171054333
1.05211331086855
1.0687624542762
1.06704504601512
1.05385624752908
1.07723013113324
1.08929072940075
1.09132793692398
1.09209432361349
1.09499057851054
1.08125737663274
1.0889742964767
1.08799822765802
1.09699440275605
1.08002354850502
1.07720189733826
1.0785051494602
1.0807349250989
1.08257157493862
1.09386115857647
1.10359883169577
1.114710022443
1.12438272996824
1.12487844190624
1.12556064998338
1.15584230797903
1.16310428080166
1.17192022232551
1.18839679190913
1.20641549815509
1.21475201360762
1.22695754982999
1.24970057902382
1.27748401532937
1.26780493810633
1.30101461025617
1.33472024785707
1.30902528171204
1.33869074492687
1.3784210343815
1.43576403243589
1.43393441273856
1.4356384292209
1.4862784544053
1.50998214658182
1.55292577228776
1.58694679986076
1.59956546931826
1.56554115719073
1.68381978738005
1.67983248624327
1.7365316423339
1.63665057594017
1.72454331676439
1.67088006134154
1.65422219477363
1.65913947147765
1.70587808802722
1.69755738292504
1.68565899478307
1.60981385708977
1.67957219791289
1.70254470235918
1.65491813212952
1.65867344318771
1.68234949093888
1.67370472618663
1.69527085962531
1.63774386306135
1.7234655498549
1.6971216632525
1.70112217538691
1.71558665697082
1.72594796645494
1.68704881991972
1.80199878004006
1.74864654773549
1.77424595474394
1.76581441317516
1.79006778379486
1.79680354468904
1.80630025156564
1.84216268726163
1.87899762725817
1.89004120820276
2.02393177736199
1.95222441534585
1.94946767248062
2.0455234512313
2.18962867815491
2.10118853641627
2.15150668859415
2.01681444323177
2.01967698602924
1.96625202748662
1.92057567868785
1.91264373540195
2.25492867181009
2.28734713689442
2.17899504555235
2.14108899837908
2.15219178611056
2.14530070451311
2.30341977968263
2.31687801332167
2.58938217213143
2.47333287615641
2.34511065884195
2.40979825291574
2.07431666135521
2.1151230220589
2.34247916299148
2.3278080368751
2.21173132894881
2.14499272985505
2.31401531348541
1.98376029066614
2.12933274055431
2.04535055025632
1.88672614056507
1.84171071351162
1.80361579299766
1.85430891059158
1.88726186123194
1.77695943818426
1.79093366616124
1.69032684931443
1.71709265027168
1.61436684683263
1.6502253002996
1.6504218499881
1.68396999180426
1.57914381187547
1.62821527710496
1.59812379495488
1.60948183964525
1.59910482820868
1.61704077173604
1.56463818652535
1.54485430542452
1.52639925821557
1.5369652355833
1.43664951011607
1.43204431305896
1.40190944579988
1.39964420754452
1.3814279909478
1.33595266537152
1.29308094176919
1.2285750579565
1.17447301163339
1.147126150047
1.10792925861676
1.07453552512538
1.01059667370513
0.971067587258549
0.936606731973929
0.913901832999531
0.865155474583616
0.83908889915508
0.802654773348246
0.77566898857217
0.76002104723998
0.733853686266694
0.706560942491114
0.68714960998157
0.669137408972142
0.660412476920258
0.638742193272801
0.632401796160971
0.621000132393481
0.608265550591013
0.600471896502288
0.599214126913374
0.593364086603058
0.584785439017136
0.580208309345045
0.578842567186434
0.579359744405115
0.575790771742763
0.572622673432955
0.578940652190072
0.578165474353366
0.579935296089591
0.577799610580349
0.587650458588455
0.590035721417526
0.586697665489447
0.593775449339956
0.601480748617259
0.596424868631634
0.600483154175196
0.595941583595564
0.601283347100225
0.597835176678981
0.6050175626854
0.604516807082875
0.602639832697769
0.603065035056537
0.594083194580606
0.594187212951998
0.60438277238797
0.601109516089952
0.605608477483368
0.60842067723706
0.603366121312108
0.60416451555207
0.612013551297323
0.614777509470977
0.615899902576885
0.615731021630194
0.614487693347656
0.617362536418914
0.624090278930955
0.625788102161415
0.62640689362386
0.626012685148607
0.636615332033903
0.630486554747943
0.628421010471146
0.641640857019472
0.64612458850524
0.621860412421793
0.622184863062976
0.622853786139469
0.630559146882893
0.633797261558072
0.622748589832812
0.62553807164721
0.638189298979486
0.635182653674687
0.641608382690681
0.647356573229013
0.657226670208123
0.66777197200442
0.672801342537111
0.677588505873506
0.691104199601779
0.69871757067573
0.714530513802565
0.733297257510869
0.744460333074285
0.745931964470857
0.763392556726626
0.768181055678025
0.768964360419669
0.767501885247217
0.765250891711025
0.755035880022293
0.752568327846041
0.757084024116187
0.747081645956902
0.739711004666368
0.729149419684068
0.718537251240163
0.719130462833553
0.712131193559918
0.720970012145564
0.723191997190319
0.730439773662663
0.725962762612329
0.718158732334424
0.722466909932561
0.737368680749796
0.73968698030986
0.725996069116588
0.730153837124344
0.7227859711439
0.718225355871112
0.729123403453764
0.729002603722703
0.720316127096234
0.70988696326122
0.726962413739314
0.71770804876499
0.721809367664137
0.71979417409427
0.723838223420178
0.719536405149225
0.722543148173541
0.726692881339668
0.716053253844792
0.728840447520712
0.746928461138555
0.730532501054795
0.71183900231321
0.701767831336917
0.716638544210773
0.733251468447059
0.742092732467191
0.733650803136018
0.735902849899446
0.735835828578225
0.731600281194272
0.716556498015582
0.726219313538306
0.725518870051047
0.72258893596035
0.736708062060398
0.765327932908046
0.728859233594814
0.726580680510564
0.729968254788736
0.723084138447677
0.741933471216876
0.727671294501501
0.717115873499273
0.73859067667127
0.722866006482028
0.724944792573454
0.742280064028794
0.734732665951681
0.713042680128884
0.732627519514481
0.728669724065034
0.708376078367497
0.722906853502247
0.720737830258358
0.727775113461571
0.75612149983736
0.73054761945897
0.719049388455883
0.745223251974459
0.741198868409358
0.758917223081337
0.766267070964648
0.746169267811571
0.750464895999957
0.746468491321426
0.74739807280573
0.767956908766073
0.797826343080457
0.797068171906128
0.780764222833229
0.767597571496109
0.810053541725988
0.808477034248013
0.810210533532613
0.822056651456893
0.828605158886555
0.801220865087632
0.816973876596847
0.843700556963811
0.819548595448173
0.841524722287832
0.864373907941964
0.862647794492118
0.861288525127173
0.844949935683403
0.869014963213175
0.878781510825787
0.903180261432911
0.955834754949282
0.972949643705399
0.992134396285083
0.993839193043291
0.992505885507611
0.967575804219054
1.03859298754461
1.08039567998349
1.04634093989737
1.03495607477903
1.09489702513346
1.02372986830233
1.04471851351737
1.13692026149548
1.10070873159868
1.04808389633652
1.03239013782818
1.03702493749717
1.06476097311079
1.06495679130667
1.07118321135826
1.06969393830204
1.05536771575273
1.02715058464908
1.02932726500835
1.06040379909378
1.12759702704277
1.16502997302255
1.13207418036856
1.12953047050343
1.14417210861552
1.17386601192391
1.09440488368089
1.06836604337974
1.12343870823295
1.01666359695254
1.12904771841168
1.10759380538156
1.02524365146261
1.07259352608911
1.14555560840752
1.13669784438317
1.09063564497606
1.13171266515834
1.08219212701043
1.06270506160848
1.23308600887811
1.07398715060157
1.10679420834632
1.1583009464329
1.07711893443716
1.03671588787616
1.10324344080465
1.10297831889485
1.16481716558621
1.17766568046711
1.13303075568225
1.02528925075284
1.06959256211758
0.97475435001216
1.19570088512736
1.23488141054174
1.13094733964817
1.33409908206661
1.16032169393185
1.14501829700145
1.20531488103337
1.18910330157791
1.41531551123652
1.117501948567
1.10028058055792
1.0881492973874
1.05670502352119
1.18475303280423
1.22498672359829
1.11014741918753
1.06767982956717
1.07009406526942
1.14501463140981
1.11587278260888
1.37551970945501
1.37213480106782
1.3439138519087
1.15559214518184
1.72851621120559
1.6679291931769
1.50438091377674
1.24102846424664
1.40701422066571
1.0538226219616
1.10133518748897
1.40238980621745
1.28955248221118
1.29979068258035
1.573188094503
1.97854507211002
2.15221534962767
1.41075798188547
1.80358975282662
1.34258936174268
1.37229308062373
2.60434570225607
2.02860852645224
1.21220295193687
1.30221349197585
1.94892169751282
1.60070544294629
1.26444371885713
1.97151551716186
1.2237615941153
1.34905931387217
1.40322365166409
5
1.24824650135828
1.29189591190373
1.10822296411097
1.16468750512643
1.32941007514211
1.49801649490595
2.52987199812731
5
1.76116930266917
1.37268106176924
0.953425482634721
1.13351213198512
1.05266091949897
1.13509791409962
1.00313647585853
1.51814642071108
0.93071447322714
0.900631108414972
2.98040424962255
1.1117305366524
1.33794361403217
5
0.721264895837232
5
1.82013982717299
1.29843819866109
1.23179383900637
2.38761312178945
1.30008644581208
1.81586122127259
1.07592675198803
5
5
5
0.888988423042597
0.811149296813146
5
5
1.02760368769089
0.904767737241954
0.869566251151458
5
