3596
4000.36533379555
650.420452594757
1
2
2
0.0889176313383764
0.0992108586985611
0.102957951233976
0.102164734356366
0.0932500493754373
0.101992649031605
0.0969617991367772
0.0958582119120595
0.0896132506511162
0.0995534154051504
0.101142197163246
0.094791478452424
0.0789556421559902
0.0884428813597061
0.093769208324404
0.0951520818757928
0.0861398043754562
0.0892866047756605
0.0936728161712162
0.0972774324942723
0.0903956838387818
0.0993770885842775
0.0920785243283525
0.0934568817767754
0.090832543996069
0.0969694511228996
0.0909213321333112
0.095347003774072
0.0931952996500889
0.0954597965532972
0.0914076082898116
0.0943190545724401
0.091316074978352
0.099302936450057
0.0922756224115483
0.0947912524189111
0.0931514914561363
0.0971755920883099
0.084122013820705
0.0967080054541155
0.10447827052775
0.0974844392975942
0.0878798910783762
0.0916678777285998
0.0910700452426243
0.100349356309195
0.0941318027699481
0.0986941282655762
0.0921190441055509
0.0886231140432652
0.0841519619325094
0.0946659013285057
0.0963479423772256
0.0993258705874527
0.0982107776286662
0.109096269565885
0.0929904260023891
0.0885894542788384
0.0891208055552475
0.0953585586066745
0.103954656180866
0.109438283344704
0.0867214264391752
0.0920784168388788
0.0873308698531607
0.0947679585670795
0.0867763849347474
0.0855199290227511
0.0918915795874225
0.0989522542746168
0.0905035175463891
0.108057547693546
0.104065999890476
0.0948858015425546
0.0975098483297213
0.0959701752995656
0.0925950431965469
0.0937910583966884
0.084436466378153
0.0950671047437594
0.101449354000883
0.0965019720344832
0.0889970919658765
0.0898507121343231
0.0937891837370246
0.112017981150411
0.0850692136203216
0.100930785378896
0.118769054862399
0.0976468016442525
0.0864190912459595
0.0863151323205536
0.0829578883659836
0.0858925606884817
0.085282292418889
0.0902061823540292
0.0896597422453921
0.0943510430251028
0.0843648886893675
0.0887158657681379
0.0934062013918093
0.103107469327239
0.123143826006381
0.0945617517540646
0.110667435392639
0.102200398599167
0.0883289689999531
0.136347345225097
0.100789042586715
0.0863603231353837
0.0868333979697555
0.093542463189054
0.0861960380879551
0.0945120823735153
0.0741617571013024
0.0973234122064433
0.111024723538096
0.0865317806830375
0.0827035180489048
0.082257245209112
0.0753524972763658
0.112398737138351
0.118980896151515
0.0936387862363593
0.100502574270229
0.0905333255112728
0.0846057604971579
0.130321326263189
0.108130984843684
0.0829729030802205
0.079773510256957
0.0888884978403598
0.0802992516089193
0.0837455088541266
0.117744036944278
0.0953203274728911
0.0861283360205111
0.0776818260423012
0.103310120694483
0.132118763270427
0.093285276308006
0.0915280817189424
0.0838891455444027
0.100103980647097
0.123010739028701
0.0939691900453128
0.0833023003995707
0.115670230654696
0.0984250889252309
0.0809509737126338
0.0808988585651699
0.0858691448176784
0.100351351691782
0.100268236297213
0.0583656053107135
0.127676684461893
0.136458406097595
0.11788708430505
0.136047466314159
0.0891720093325621
0.0934068076200596
0.0927013771284417
0.0872659830068336
0.082481052301752
0.0781426580602086
0.0782185418124885
0.105312886397259
0.111833081256965
0.0822047791681648
0.0952865806275962
0.113603552239635
0.0982477688489349
0.0918831098149025
0.132847858811711
0.0924557216568024
0.0852362584939901
0.115453146644275
0.0998473746450642
0.0797684903793877
0.0912888295923682
0.103804673800094
0.0843489776809011
0.0826993575801615
0.0842892666319804
0.0877142846044113
0.097319291909111
0.0872014758449904
0.0803347359855883
0.0839316470674656
0.0812669191288962
0.107451719689537
0.144765814613667
0.121870960622266
0.095637956350859
0.0814008651278257
0.064780516412857
0.114519939625773
0.12556611021855
0.0914498851366571
0.0847367161884582
0.0758957300811403
0.0759245487161706
0.0797130091926062
0.0826113921182473
0.0747636069680176
0.0803952531804437
0.122615266613152
0.108880927667733
0.0873392921007825
0.0833144603875584
0.0911955634879295
0.0918960631996499
0.130564840917413
0.1126266814287
0.0876584198608942
0.0883072915354469
0.0870209159910924
0.105674440973021
0.0975303413564657
0.0856117848847654
0.0836265972462577
0.0896442094230844
0.0891034713604057
0.0888486472123648
0.0862968542529618
0.0852364192433953
0.0858274997359448
0.0864006068096045
0.0853709098082825
0.0873173266584815
0.0899769491780995
0.09100019137011
0.0838210721885548
0.0849791932123418
0.0838050388529738
0.105921730603154
0.111101627515482
0.0968013186150766
0.0861436282645077
0.0831478287292853
0.0854603208159214
0.0863295208689317
0.0844906354568958
0.0852102809674804
0.0800320513417411
0.0958536613966523
0.117145868907594
0.0994561333391569
0.090136151489083
0.0836439291822967
0.112171587305351
0.10802949576194
0.0912909528487943
0.0862823666631612
0.0864024813022244
0.0810811149419349
0.0876760341002598
0.126240283979514
0.102171752567323
0.0870832228849267
0.107292031530211
0.0978479185514491
0.0947173516612402
0.0917202453324417
0.095535568054475
0.146478257473241
0.119633237169039
0.114190706012226
0.142065438456787
0.111894551450543
0.0999843293621651
0.0881162283659907
0.0802838938198082
0.160120142201985
0.141963911724049
0.100783884419198
0.10141599063886
0.105228381909586
0.0892276269652293
0.099876655910486
0.0996646474029284
0.12487502945501
0.136524325857259
0.153567781813459
0.128639122312635
0.0914486907802369
0.129445815038755
0.119384911809053
0.0997072717887064
0.100255409587212
0.0978783517963754
0.0956692766782049
0.108362041169407
0.111410512515046
0.110649909684313
0.0939006059234467
0.109276846200146
0.127518829931204
0.109415639570843
0.0952434906541251
0.107193732192237
0.10901513898312
0.100404453930966
0.0988124350762488
0.10835524379276
0.112950799710695
0.0986371853152112
0.112278080541398
0.151305806174502
0.109348079522297
0.112665860355139
0.133192827565355
0.107519036446434
0.100311361475454
0.0993748500319622
0.0974831834422043
0.100601284281268
0.0956063999312522
0.103172879789752
0.123472841408466
0.108920558451609
0.101517476992553
0.103954797786872
0.0994374426889087
0.103166531822595
0.108220835015145
0.111464697432826
0.110356012148762
0.104749002095949
0.105170563574844
0.134937124611786
0.12853869438852
0.1102698975613
0.153686372223946
0.146236422531158
0.121564867320669
0.114695389897681
0.113884654490327
0.113179042941411
0.111422035587588
0.119240398034055
0.114537715591861
0.131182574345252
0.136960344606939
0.121595586771462
0.134904506122121
0.141763913239228
0.189730623099799
0.179720784049607
0.148325965014318
0.131611673104042
0.12650682603371
0.170039104363149
0.150748779085623
0.166401975474958
0.158890709133182
0.141695536592055
0.148080411826015
0.147146415498657
0.138785157222513
0.1376265118574
0.145561487444486
0.147566042394099
0.151196550146175
0.151266156388934
0.158946247683319
0.152770341451436
0.176629179135162
0.19540071508204
0.170739634234563
0.16618373049148
0.170026590788743
0.165581700067021
0.20825452284174
0.199419730683373
0.222284668257184
0.206710200219147
0.217425618954188
0.223763878962382
0.200877495170704
0.192277101475771
0.187136368680084
0.197612991739618
0.204710131353377
0.207258473090998
0.208151537316582
0.208075079998432
0.21096680300263
0.21459961173062
0.219924354072591
0.218635325624962
0.233281328645154
0.257695847385704
0.233297823593113
0.2366660111377
0.233944605717127
0.259515419644572
0.310415927295347
0.285316642744124
0.245863797878847
0.26061871346286
0.249890328874174
0.257600761263118
0.251505749514467
0.267873182487407
0.266806838440438
0.282612476411369
0.3202137265127
0.295094120624696
0.295780398980886
0.297224577306706
0.288659669737692
0.317336664635815
0.295701652748647
0.322216057090661
0.333206192734517
0.318140794421428
0.285707512369178
0.346871126887136
0.336794624405509
0.343907477425829
0.337364039387748
0.331022029111887
0.330269652084969
0.35106671405751
0.349481111195292
0.348398671127812
0.348780148912367
0.360474578444466
0.357299297115431
0.373946902999013
0.362735214904829
0.3850368283022
0.398461847512193
0.378016682359322
0.376187991486429
0.392916434159688
0.380884906409468
0.39242368621254
0.376158705376174
0.456891772534748
0.427911254914639
0.449159124122672
0.427413649001155
0.407838794024301
0.424373932514572
0.431442174440908
0.423561057483343
0.439950136321775
0.436770152892943
0.457977046261125
0.455491872973518
0.450548822175623
0.48410196040414
0.467875181765203
0.471718170004188
0.487449992242898
0.466499720683244
0.493459320625245
0.492770374645175
0.501564679416824
0.502380993952751
0.571059912910638
0.531736570308008
0.559190803012482
0.529877780515667
0.538215927269111
0.518373631341807
0.545460045742122
0.529308221231939
0.551954059030178
0.551403485883127
0.558420087431087
0.534023201527356
0.543729044352104
0.559635555817401
0.600613038032966
0.585053565818669
0.591937979407202
0.599567638468636
0.611016078256528
0.575689767566406
0.581532376656328
0.614636527605713
0.619972410799891
0.630946750959953
0.648196098385013
0.629622077738241
0.646513672274347
0.620209621763926
0.635597285429434
0.635632742881697
0.669900099800709
0.629090902796918
0.659502888343192
0.651523228995564
0.695647677602109
0.670159900848629
0.703896151301703
0.693775156875374
0.7161532919959
0.684500789088026
0.73198220075404
0.708366866745842
0.715422441444187
0.733213845443465
0.755749768015899
0.71466946026603
0.749597028741385
0.71585388676662
0.76516735546118
0.751811322445361
0.787121711861997
0.74854887994292
0.782361594454055
0.7741057283279
0.765733988459126
0.801683580511091
0.807187262327437
0.782679758410477
0.834047397915143
0.763240489744043
0.840472771817441
0.848294353326767
0.842254324224171
0.816444118260049
0.905728124065394
0.839081327199144
0.828294125303157
0.824296542891573
0.838353812459657
0.845706139863867
0.918986111509356
0.871286578787968
0.865441443773152
0.899111690341046
0.95074454326344
0.839341878666375
0.925391784072998
0.917771585613707
0.932314261435339
0.888145206902625
1.026321337822
0.856785925794912
0.918259528060921
0.919024987108279
0.956795481785831
0.935914880376975
1.00171056009313
0.885778659666976
0.965057973713443
0.912763762127075
1.04035461166054
0.971255119479121
0.968795078007338
0.928266755683617
0.983586950216847
0.950044954404655
1.08519850144539
0.995848502413717
0.989258946541189
1.06173633218002
1.03032191372693
0.966942114667424
1.05283376019099
0.98103843453506
1.05046888361206
0.951267171487936
1.05060073782921
1.00443317011612
1.06490461733601
0.98390967836951
1.13597898534867
1.15444335174354
1.13967207180538
1.08056485607463
1.13989072314787
1.10604523725762
1.15542147574516
1.05059528721255
1.22932065491135
1.14269305587483
1.16761005920419
1.19639785794669
1.24572772256486
1.08343159789773
1.16082582752637
1.18260942055282
1.1948082503544
1.15534032370862
1.30665634580294
1.23611368750915
1.30118843854228
1.23379490655446
1.23613347007592
1.220896134678
1.17404828786059
1.05561605090358
1.28780732921465
1.20820403789286
1.24833423849132
1.22912076431551
1.2547964828062
1.23373623915328
1.2147997363
1.17522997650929
1.34252853808669
1.18495509008944
1.43138151524714
1.25853557710861
1.37801765916408
1.1710399644239
1.34309764690207
1.23992304065819
1.41592616739864
1.26403794411398
1.34801674750398
1.39778038242983
1.49211057900975
1.22450893009183
1.2651249550605
1.32904214139409
1.45158143757626
1.29415432312204
1.41378066476537
1.27959023017131
1.3815329198046
1.20810446937435
1.5388838410117
1.30801349333756
1.39451793664788
1.35846107024536
1.29893152975008
1.27704332154268
1.56182069084135
1.37114136031189
1.551658825048
1.42350083928622
1.47485292209134
1.32204722356237
1.41748866754621
1.21611748894874
1.48601478471677
1.27905121575919
1.74733240769286
1.42450268850295
1.57616971775029
1.34625872631117
1.51499500019568
1.38648307884829
1.42587539083104
1.35496330788177
1.47778651363465
1.48788707033866
1.6110940653957
1.45849576798032
1.6775999786694
1.61841961708144
1.58136513949618
1.6080220764491
1.56672098870728
1.36783129397103
1.55775684341065
1.51430128380051
1.6994483770712
1.35220172139346
1.53978731071625
1.42148095892862
1.6194180613738
1.48357027807849
1.52270839875555
1.56951408219175
1.5114856600052
1.34994339776444
1.63096468386299
1.63181423484544
1.59630306162271
1.50579189676188
1.86567937088364
1.61529716588719
1.68049946090032
1.45606536509086
1.57856015979189
1.47943738660053
1.55756208697959
1.52942447221419
1.69130568704656
1.55335267599584
2.01903172605638
1.45875991238751
1.54897640632515
1.54676421927999
1.60939762937024
1.75390043337494
1.67942435923182
1.57841716007111
1.61667616069829
1.56290706977939
1.89280306201377
1.46022532619385
1.8934652995577
1.70879680460082
1.77206111282829
1.47297927111273
1.64254791178803
1.65044100559336
1.65754410155665
1.56893616879
1.50083432265899
1.53720970384122
1.56743071397705
1.67784161250024
1.65831268814538
1.71360261001272
1.52611255632246
1.62842317026503
1.71838593585816
1.71830287369204
1.70317874324702
1.65258545001971
1.71112975569777
1.72295474842892
1.68394405532803
1.4424383575341
1.7504238337373
1.76054294802375
1.49000453621627
1.72446006869985
1.85069519424514
1.5652003091932
1.8108063452778
1.60875622779926
1.75348937289792
1.71344977600555
1.9121390447556
1.64787635901691
1.71704533053675
1.68028628833522
1.58065015153697
1.55120580800586
1.75747720250268
1.6276433377567
1.64945277773969
1.61037703929268
1.55753477245699
1.53122305955931
1.72775495395516
1.59314116386343
1.50846348779884
1.56125399955808
1.6893246492863
1.63218769211377
1.87703853068003
1.67992031740116
1.67518278985132
1.88261968677404
1.57317870883887
1.64506810410376
1.67422773597169
1.53737652170213
1.67226187015458
1.67731397674844
1.71616273455704
1.7191660683468
1.98407128613752
1.55518729424179
1.68729538403098
1.5609049755196
1.64622279862224
1.76186812714901
1.64724507533498
1.70164666982955
1.58764794816574
1.59936727363523
1.61583259727134
1.529255896983
1.70435531110807
1.57353681213416
1.72374821646281
1.68306741436947
1.6528355330201
1.62117679101948
1.65035919636722
1.50937983744519
1.73140458576274
1.72411692059484
1.8024270362778
1.59624641789623
1.52701062005074
1.57436295320052
1.72093986573015
1.53145824083427
1.61674177499005
1.7022245483229
1.52084985974837
1.56429977458828
1.80023389736173
1.62427855973194
1.74240537570671
1.65113149604852
1.73557426850065
1.64491575399258
1.59601752018839
1.4609560022543
1.66425845829286
1.4552774748393
1.52801085712102
1.5875389061697
1.54913999718743
1.52078888301852
1.68124820584451
1.57917790904331
1.57849426981904
1.51076984517877
1.7440116109921
1.86919789842443
1.50789594071257
1.591710332053
1.53156677008598
1.57994431080219
1.73418468956768
1.52787705523043
1.64676339743875
1.60522564354814
1.68802562454087
1.5409840078836
1.58065142514773
1.48439669662451
1.68867529314277
1.4897303097346
1.60793797706714
1.52142894996545
1.52126037412658
1.43371209367738
1.51500018496247
1.46102523922534
1.72186546358683
1.68017721520668
1.6441030427015
1.62511193351868
1.57898017025044
1.39607009216218
1.4994655121471
1.49842803737221
1.50751329930469
1.54003389803201
1.59981471248088
1.36727728059843
1.45144320668485
1.51364061095485
1.5935657782401
1.50959059642959
1.80037325751981
1.49162974635536
1.48673926502646
1.40372042670973
1.5540564724064
1.49731035205449
1.46418303917242
1.45287481034908
1.56675574474267
1.40347922054397
1.51023927895845
1.36879030930277
1.50471578380134
1.38401277305004
1.62876885737631
1.34265861702971
1.46569618518773
1.3416668626024
1.44251790029486
1.47067069718256
1.36425560736604
1.46412114574001
1.38085945697472
1.40334415242045
1.40854950020758
1.2809040023331
1.31651971539256
1.32856706177664
1.34289477417763
1.28383154101971
1.46720233777537
1.31596077404606
1.31149836083399
1.38238247340224
1.38361975780231
1.33250905747343
1.37274728728613
1.2848442889805
1.39608402727995
1.33157618959059
1.30785592754328
1.27883804162745
1.3974575056261
1.2460408612832
1.27331187038922
1.20334451112444
1.25623909062721
1.19979110078746
1.21582028689303
1.16095200324277
1.1853411698679
1.27720020858963
1.29303158149316
1.23287753671713
1.20809734550619
1.17809142690007
1.19732036925867
1.15255665593611
1.20920437806313
1.23378819339911
1.19944277590419
1.13571901385827
1.19808824614254
1.14929389061596
1.18081023476461
1.15449838092906
1.22255162369653
1.14626041701305
1.17958567843032
1.13659300569739
1.14574261971498
1.08205612674743
1.12938573438711
1.08420990831416
1.10173314349333
1.07343450366076
1.12407245297692
1.1071229884647
1.12293260069439
1.07427862150446
1.06720206458268
1.07661813318072
1.06076797427449
1.05520346385976
1.04533125902122
1.03320415066691
1.05210118895122
0.993920517677487
1.05682960701552
1.039390619013
1.00776478105303
1.00713155269948
1.01922496371605
0.996195344187814
0.991137979398163
0.965995910353422
1.01454058916171
0.975686000728951
1.01694937634854
0.964802110693919
0.982820892873204
0.95211051428363
0.979252262596304
0.943827923808906
0.948255648884133
0.932433227841982
0.922518268318411
0.94066970069161
0.926468387573694
0.913248264090521
0.934870759684254
0.902958502363081
0.920610375644017
0.895480357422751
0.914349518213323
0.889567557174893
0.899168316029712
0.879591631199778
0.883466541911217
0.868431828580631
0.890098440690615
0.835166881398335
0.862569611969739
0.833962580943474
0.883874523500674
0.854009875101301
0.843732219627676
0.815045023201833
0.85498962171027
0.833122133393821
0.838606094519063
0.800969523772349
0.824576033006691
0.806971557083719
0.806469697010301
0.812720184178235
0.798151137953565
0.789884244655098
0.804247909853513
0.790053913951827
0.79525715813098
0.77176018780685
0.795283128603159
0.765664219002998
0.794494758677044
0.760040521302877
0.756251036495371
0.748557915370582
0.751491337790559
0.719589764800851
0.756317375219849
0.727145705920412
0.746969199824053
0.73184761798579
0.743279658831848
0.710984046830956
0.730777337915984
0.722318322060463
0.715325720782445
0.704751627618006
0.726433925738528
0.697732433609837
0.694283115756727
0.703470685214257
0.69016539944094
0.662648991042819
0.695659532227095
0.667645659188998
0.673028743518648
0.668581300903486
0.657435948545022
0.656483448667391
0.665629833407808
0.642656166734485
0.654416694851826
0.660981931345779
0.653349093287942
0.636591065382425
0.651853159045575
0.636452593158624
0.632132756437384
0.6233567867003
0.625172857978987
0.610226309075452
0.617172315044788
0.611605141540929
0.617609477601772
0.612934281440084
0.619893704847495
0.590836556252722
0.611639136755793
0.591952082185052
0.60206494416756
0.588974006978864
0.594148684477318
0.580614798273988
0.584630499535248
0.578932217500837
0.57944592705001
0.568056245748315
0.577663078756155
0.569578536811545
0.573766180069263
0.560091120692709
0.576744412958911
0.563472635024277
0.562720163752089
0.548237360098498
0.546795199390887
0.552795441425824
0.559172934283138
0.550159493137117
0.552545111481183
0.548670252519867
0.537196264971597
0.537466830669337
0.538090224085452
0.537443124233655
0.54153386710038
0.530438668699309
0.541734312811187
0.528793034485553
0.527648767062174
0.526357733250074
0.534905569223443
0.538670539102082
0.527622721119958
0.532395160255465
0.530204678973029
0.527510790806204
0.529443702129816
0.525740638922541
0.532035774734767
0.529828032895959
0.532790301220565
0.524080114397873
0.531575046326449
0.527655633094878
0.531140970508747
0.525549476340414
0.534769681123769
0.530609067565795
0.53680859251355
0.53407720253775
0.545799250321771
0.530307007433277
0.53530086856878
0.5349594127765
0.55065536635193
0.542181700032564
0.549873254174808
0.537822202104933
0.548580969568549
0.548908733607531
0.551989582111071
0.550502626697433
0.558861782835773
0.54980883816183
0.559708888897941
0.546551157687519
0.573820106963071
0.562920440066678
0.571649320465661
0.57458184574836
0.571132639595808
0.5673070352692
0.584726005819422
0.576499856132049
0.588827278060572
0.580450569137513
0.590750783689303
0.595292206312175
0.605789803576272
0.593821337549991
0.622148790676067
0.604717833278786
0.620633097641025
0.614130509037769
0.628697985286595
0.625335997884011
0.6366147409903
0.645544143552278
0.651746463906669
0.640357392988005
0.671549466260821
0.651044630217341
0.670699307494713
0.666147838864772
0.694416306151436
0.673194892064384
0.686765860573159
0.679654338692132
0.686316481681654
0.66794462656156
0.66865015943218
0.676634974574566
0.704661421845431
0.685001799096215
0.701175650693051
0.689797381607951
0.681537624286279
0.703968243849364
0.68749398075601
0.67747074568923
0.706340107183092
0.692345727257732
0.69662974727528
0.689570945182269
0.708106976463782
0.689828787234967
0.709967837922013
0.674236663508893
0.698626137720378
0.687864188009332
0.684975450233831
0.652853305407717
0.676711232970891
0.672024584529129
0.685956188502389
0.668394583811494
0.687907162312665
0.674951750454245
0.678411337640491
0.68464471358272
0.675600749292645
0.675479143197155
0.664286814606583
0.679347649674513
0.682663397620657
0.665736033946592
0.672331666525483
0.670888168496746
0.674745649515358
0.675688007662101
0.683555829089605
0.666748188626415
0.685644754957098
0.668841900333748
0.6764623734375
0.674405094619981
0.683211811545353
0.671677775898577
0.674870408593451
0.658378009884254
0.674921733428844
0.669295471845892
0.669947193547256
0.660026813700606
0.654071321460816
0.652788766277136
0.667882152956736
0.656233226700692
0.653107720986556
0.652208463295187
0.656321172774436
0.640925872922624
0.64830186147615
0.638982761306771
0.634609848920257
0.636054162732104
0.624212383859592
0.618913548577329
0.620069742369684
0.606970005354867
0.620250014076688
0.605564013866464
0.616756485100146
0.605693151154124
0.595275639769843
0.589724712649588
0.597887381166178
0.583144819966934
0.577847945724679
0.585667784452335
0.591033747363869
0.561254702089891
0.565572223844198
0.558608621858336
0.559914929622807
0.553377793132969
0.557207270080729
0.546410173768353
0.544446461040676
0.54731139711867
0.541841513138317
0.54800870212818
0.533815735480381
0.526400716150445
0.530844415268054
0.522825015521366
0.526185078787666
0.511741514046371
0.515794743398594
0.509758216930468
0.509962537951969
0.505861065246529
0.507173682586094
0.502249997031412
0.500403548911819
0.490748248988479
0.487045278527624
0.48875174570748
0.488318706460763
0.481857955084848
0.479457091119244
0.478316223548484
0.476776216015068
0.475635599310306
0.482187052673349
0.474851609982684
0.471493392369494
0.458821361770533
0.47499764804877
0.462676862354435
0.470701029754429
0.460547718474882
0.463463944402183
0.457237652604132
0.458460921775509
0.457930613033032
0.459951288058554
0.450632750388966
0.449082236789294
0.449866213277465
0.445601238157039
0.440386771932202
0.440398568648109
0.436395236361402
0.441448431250246
0.438272601847656
0.441880354962325
0.433026681147421
0.437404444409189
0.429111636816724
0.433978640203613
0.427373016154732
0.434162822161248
0.4291087592274
0.425737577920477
0.426769586241088
0.424775405110303
0.421293958916451
0.41952489110377
0.413923122092799
0.419210732894545
0.410672654064548
0.419792354732017
0.415953179640956
0.412382742809803
0.412917718886288
0.415260697717124
0.406202283999679
0.404941002765192
0.400286894148685
0.403947149005788
0.402098577466957
0.405687166168993
0.401537371038504
0.406435728434812
0.403443406387934
0.401817235512846
0.399731421085473
0.40095824487187
0.405691611938688
0.391228640637822
0.393681387143431
0.397752035996774
0.388719867737398
0.395453789134355
0.390781147801111
0.393438191869435
0.391958655396965
0.389739758410486
0.387482140459363
0.386707866594421
0.387144021894005
0.383494745989356
0.382397756927709
0.382262600342625
0.38576526516821
0.385002255928915
0.381612878551698
0.385922671815215
0.382118645137542
0.38094771716467
0.377673159645116
0.376948964509924
0.380272492818088
0.378140203498756
0.377168313842062
0.379532910619922
0.377712514753179
0.377703042943614
0.373076450136887
0.370769532099494
0.370099415151556
0.371310214146844
0.368787658782896
0.372544817855913
0.370657649891685
0.369074136987271
0.368367896342719
0.367700411632204
0.369040098729112
0.372937057680562
0.366732228897576
0.371623998850344
0.369559114094977
0.359503878934136
0.363615315224051
0.368873271427876
0.358729248691456
0.365213506084491
0.368754334937079
0.363767869631513
0.36394523113535
0.363236824611164
0.358015507114731
0.357396680802558
0.365601905514761
0.360099466926212
0.356274856754092
0.356093880665754
0.354724819307095
0.357046538679514
0.360623737243827
0.359204505363705
0.348707228212833
0.35105658786638
0.354642201807413
0.350789605194408
0.348723567616362
0.354363243486237
0.355255573928081
0.351307386110811
0.351653800583568
0.351644314149982
0.347473931712168
0.352405830506631
0.344215135047838
0.34395862723435
0.343538237955941
0.348977605352294
0.341589759104196
0.335828081641846
0.343936078120522
0.346120730539217
0.340981967177309
0.338018270650846
0.336346868232813
0.338684229616312
0.337643546791466
0.341471385809567
0.338678202479458
0.335749873158042
0.331292595529805
0.33200412250987
0.333294728202394
0.335389114855488
0.33566725856643
0.333695300478929
0.334673927192831
0.331762448928095
0.333101767008732
0.327056661916658
0.327280868022135
0.325537150350378
0.325709188046459
0.328583529125319
0.325379929923793
0.322091966929925
0.321754305976372
0.323700226037038
0.325966685307536
0.327210001648303
0.31996525722925
0.317484541710376
0.321613967031445
0.313773811048687
0.313705313812003
0.313680234207931
0.316527062803962
0.3117493658846
0.313645446340562
0.312850440730113
0.315803734973472
0.308317469854233
0.310033587013561
0.306807278423294
0.308150630498824
0.31020957791004
0.306713865044964
0.30448967286126
0.302237429741177
0.300289172940899
0.298248286401438
0.301378834202713
0.301490406278851
0.296513117802735
0.290371815266874
0.294036305421939
0.29754273361371
0.291708491496292
0.293526157767312
0.289919452438382
0.292929979555997
0.288795021860729
0.286751792964585
0.286149276981556
0.287372070490234
0.282116393968345
0.291191357415419
0.288480583669567
0.281180303831736
0.282987407315516
0.283688303055332
0.281610250737254
0.282035281700645
0.277937382310686
0.281037950486774
0.275622583064655
0.272567931944806
0.274991211881926
0.277717582650983
0.276038156528993
0.274005897074261
0.274684888522418
0.273689559050563
0.270740984170262
0.27540871098597
0.269797608106975
0.266258392641201
0.268223588056753
0.270523737559202
0.264512019488131
0.264822092865099
0.260592620319961
0.263660235036039
0.265484671907259
0.264516467020443
0.264610267131724
0.266427429270975
0.260807513987661
0.265846341480695
0.265613319923393
0.26530460782723
0.257678888710613
0.259034615973002
0.259517583274582
0.25662249429368
0.255345741605032
0.257502423574985
0.252798881026967
0.253518006945624
0.251762376487733
0.256287075251673
0.251060686754405
0.25341675297624
0.250343653701287
0.248712974075334
0.250806242490606
0.255075335130036
0.246810296543792
0.251021692711844
0.24721059669312
0.246008197212989
0.245510123304457
0.24518482339045
0.246453598874195
0.247677961515557
0.24270606138895
0.247549030950337
0.246058023252436
0.246613410897783
0.244003451953044
0.241817662850755
0.24413401936633
0.245922327129623
0.240088134283754
0.242346446321621
0.242477943996496
0.244669591266169
0.239247370225076
0.241337266379318
0.237455643700259
0.239134073086259
0.24142293366788
0.240066567263937
0.238840786336799
0.23669820784544
0.237328254027772
0.235511563601763
0.23696549280861
0.235841770778515
0.236077758660214
0.240894498138763
0.234606885342385
0.235702474676334
0.238139613132347
0.234591709165495
0.232816376622696
0.234526859991662
0.234545985398907
0.234004175448059
0.232402514295192
0.233561034511497
0.233286076486288
0.235444813861214
0.230584431313635
0.229782461593712
0.231066955624387
0.22821232550878
0.227954697729854
0.228077559840684
0.224479110636803
0.230149362230706
0.226921247737691
0.225702573132602
0.226341759337885
0.225835368387994
0.221547266621408
0.227827651839172
0.224660189897367
0.223921398108352
0.223770412809412
0.227577442031927
0.222128166772018
0.223886212053997
0.222879973218682
0.222086583312901
0.22041722201776
0.223688846372274
0.219869156511562
0.221685491659837
0.216083114960509
0.218279003630435
0.220137359775704
0.218596781170306
0.217478772614459
0.220408594601348
0.217152355880916
0.217305573718543
0.213027560127332
0.219605570060457
0.214199815675939
0.216406309260523
0.217055346808226
0.212038873547298
0.211967194677589
0.216987842275803
0.214239905391844
0.213963440808715
0.211402143396208
0.213893177990791
0.214152007650171
0.215397079580791
0.212364938501479
0.216763632956565
0.210380734442684
0.212228739741578
0.208709433804743
0.212918071135253
0.213914901970419
0.215967840210656
0.212390160654941
0.210464497117868
0.206593158801044
0.209068491929146
0.207895691208231
0.208762621175965
0.206934153002493
0.208107955458079
0.202335817314372
0.206544043970477
0.204219670693941
0.207861621908853
0.206531065845092
0.204446086911303
0.201215887687003
0.202569958736501
0.198250529668885
0.201655958228367
0.199286421448987
0.200108157533874
0.201674465676529
0.200517770639589
0.196148367754777
0.201098166199337
0.199023431981781
0.198992169987152
0.193402847398566
0.196682427973942
0.196367896268488
0.195619722298743
0.1936966069093
0.194852620907322
0.192851896458524
0.19658079417247
0.192504507775257
0.193262219102802
0.19196430064362
0.194313945735304
0.191150109259109
0.191224116931126
0.187892348570663
0.187253767615991
0.183190512158493
0.19099889907746
0.190343102702834
0.187867787503828
0.185583705632176
0.186848960680975
0.185148742337379
0.187039615535967
0.184190505620682
0.187345991401746
0.182058996958039
0.185845926718379
0.183189572124847
0.183909331441105
0.177459839492875
0.181630479207111
0.179839844537348
0.179646424112279
0.182501614958986
0.180794211089843
0.176103639927899
0.179563507513688
0.177530870777345
0.178378536547553
0.174554047733509
0.175592257070067
0.17495019051345
0.178302784370638
0.171917558136321
0.175922516511574
0.1733826419127
0.171321834282647
0.168800563452098
0.175057663184667
0.169849500165609
0.172268203871136
0.16984514701476
0.172635810345716
0.16825055753277
0.170421548348821
0.165661587180861
0.169578551451222
0.167682390327576
0.166021697571411
0.164887438968036
0.16797742703038
0.164281762018685
0.165009778361882
0.162033456785476
0.162725171037582
0.160563684741151
0.164395117408474
0.159747578784486
0.162331917800337
0.160372830910125
0.160724302183877
0.162329807445701
0.162065270040918
0.157385273278313
0.163115430162415
0.159457518021296
0.158112232198781
0.159091661317457
0.158772729369285
0.15747246164096
0.156863726919051
0.156267530356092
0.160505700815467
0.157207237479375
0.159524820853178
0.154138437270681
0.156076965659004
0.15722230084356
0.157467954482004
0.155559186228099
0.158683095837804
0.154995450172267
0.157341912198706
0.155097943451937
0.15755365730863
0.154269363977186
0.158188728989126
0.15403208001643
0.155973931787042
0.151613436223944
0.155635552913121
0.152146592902894
0.157399899640219
0.151139025375232
0.152286621483835
0.147454014147068
0.153245877841166
0.14652151018872
0.149993289071725
0.144221543354153
0.147870037279819
0.1428749444404
0.150699277839079
0.147619817591514
0.14791419462852
0.142389629092127
0.146229952406359
0.145062446448551
0.148291935126879
0.138778400198649
0.150859546595709
0.142535892595967
0.149258129976147
0.14490818568729
0.143479424044022
0.145281916111168
0.149372496074748
0.142780659587336
0.150970039731293
0.139478035797416
0.144467999145478
0.13961771808681
0.148746796970435
0.140309202167899
0.14436286968708
0.13813375364906
0.14255454432043
0.142514708908041
0.139178784377424
0.140789336429801
0.141489137026927
0.13629600429386
0.138991416063442
0.140771681768157
0.14068053594761
0.145388082087669
0.135952413250199
0.14172838070841
0.134597346548536
0.153131450075794
0.135833776907887
0.153186323653417
0.129469061155943
0.151630663360923
0.124918245008462
0.156349653970523
0.120755270219525
0.161563307384827
0.126532485224325
0.165366192520853
0.119899133665734
0.158652243763487
0.124383201707528
0.159654412955914
0.131059224991446
0.153712805029396
0.134691228414933
0.143983522428134
0.142003519641756
0.140329486847154
0.147522998212625
0.140582713852389
0.148036367002899
0.136040405379518
0.147477057179756
0.137928471556766
0.143334903852716
0.139316576630786
0.137416469486363
0.139405254573527
0.137057890834825
0.143560075858967
0.138409287460721
0.138398058229571
0.139957782098868
0.139115351811376
0.139654134172499
0.1373831475838
0.140692337736191
0.136875201549647
0.138333320116882
0.136909599643257
0.138262761698809
0.140055492661603
0.139438996927354
0.137677747024984
0.13935343506934
0.138382676288811
0.138835408299037
0.13738830539131
0.138778220936796
0.138734073196643
0.140417960360154
0.135896143817428
0.136687885047157
0.137016689623448
0.138770814174191
0.138389098378904
0.138350148218233
0.137237760814179
0.138567211922792
0.138449358467871
0.142137672935704
0.137822755162676
0.139724432636976
0.140521978572823
0.142868467218615
0.141845585869263
0.140242688655628
0.139082564546866
0.143025947770728
0.138882879495203
0.138923478408776
0.137320566844962
0.139496810560025
0.139675838439878
0.142833210105929
0.139774340094203
0.140458795837774
0.139526202227744
0.141096175905593
0.137651433253127
0.140024124328891
0.138639166102675
0.140036461524575
0.138711293888841
0.14071690693701
0.139495805266543
0.144448619141054
0.138712745604787
0.142061842914976
0.139787619013084
0.143132238585361
0.140038251556909
0.142681671188098
0.13933810847576
0.141287360223841
0.139511643926264
0.142658728183377
0.140123380135891
0.14285889048564
0.139941121590982
0.1434228140396
0.140821479777181
0.144481571974842
0.141460019647205
0.143249412819822
0.138847350241757
0.143753100547347
0.141022560297959
0.142871288296507
0.140790454178347
0.143698871149065
0.142572517511987
0.146232675816563
0.142669669559083
0.144760045089303
0.143694169975266
0.144540373628001
0.142409209680539
0.144351437966352
0.143433895760612
0.147028414369897
0.143966488384699
0.146249602697754
0.144663548793946
0.146679830504757
0.14540982150848
0.146623118909143
0.145073202353496
0.149203259219904
0.14408307607548
0.148230214634383
0.145241713595704
0.14841664752602
0.147078590229031
0.149048876976624
0.146783666544959
0.150763312841638
0.147435647366066
0.148691835955141
0.146982255579221
0.149680438521934
0.14671794339147
0.148963992159655
0.147290105199414
0.150214257486884
0.147671128660559
0.148589424586594
0.147987110387809
0.151356192436278
0.14954000275166
0.15000441635947
0.148694208740846
0.151785164607432
0.148346984781584
0.152055943809211
0.149923312365164
0.153239708777739
0.147838469093048
0.150013123780338
0.149816246946156
0.152813061802967
0.151269910627181
0.151687608954533
0.150195526663142
0.154088847883513
0.15026569980151
0.151073229334207
0.150971921629588
0.154765086468445
0.151510348311819
0.155487995844972
0.154953921501021
0.153603325210102
0.152483740229109
0.157072062590888
0.15191683060283
0.157304205641531
0.155241869856341
0.158781006771363
0.154952354254575
0.159005241962229
0.155542712441006
0.156827680898446
0.153318533242973
0.158065312849622
0.158162824545636
0.159107886622715
0.157928103908751
0.15876033549474
0.15396428769168
0.157490348328039
0.156118275205836
0.159215888200076
0.154369705634927
0.159077881222632
0.157149114133906
0.158202607212229
0.151995753957889
0.157368658452916
0.153877893236239
0.158356135827413
0.15317154010042
0.155460794781172
0.154415121974976
0.156388572564274
0.151265801921033
0.156547218056447
0.151696950252344
0.157174851481706
0.152592101173271
0.153922780663868
0.150657718354464
0.155359172920584
0.151330780731089
0.15632778488145
0.149464388209108
0.155274150417504
0.151595009957931
0.152954175292573
0.151264867842948
0.153772704620852
0.14920801526633
0.152951070775506
0.147792377500311
0.152121350622973
0.150511173802288
0.151601335055091
0.150097590102037
0.152873915878655
0.148657914598892
0.152249298578651
0.148512392311926
0.1511472659586
0.150020811462687
0.150404387176571
0.148992508671539
0.148644124199424
0.148469112313044
0.151155373272259
0.146560551259975
0.148924834898642
0.14703403755398
0.151751216765687
0.149036499134245
0.15018457321275
0.14836136839648
0.151117661914014
0.1464400893348
0.150517839065359
0.147612081094093
0.150770073218646
0.146858785494887
0.147847784931027
0.14512678003296
0.150044642992794
0.145882622781269
0.146569559488765
0.145945981844234
0.147666507034345
0.143185105347021
0.148387138118098
0.143799411091507
0.146737817432163
0.144496583715044
0.146517212706205
0.143672059292411
0.147411330826603
0.144050479400077
0.146074583375828
0.142174051765054
0.145586145026589
0.144447382862946
0.147263989546829
0.142212171165884
0.144347634819432
0.143363479759968
0.144319677801467
0.140858951560809
0.144549170284271
0.14068772128298
0.146114188440439
0.144922845116065
0.147729213443599
0.143643582525207
0.147700563657173
0.143503038599071
0.146902120059544
0.141934555445348
0.143301842450292
0.140925437733563
0.145314401639022
0.141781360325416
0.143263653116085
0.140007406015681
0.145167098784599
0.140769382420752
0.142099364862473
0.139467592683934
0.143269273249713
0.137136420174833
0.140877362579319
0.138815895562117
0.141285748184842
0.13756889555648
0.140617053731867
0.135096870016232
0.139952272644757
0.138465330452968
0.138852934488701
0.137487011716258
0.137024545517711
0.134517086259195
0.137221481736811
0.133352523639926
0.138226208504735
0.133463319234614
0.13542302435198
0.132040408475593
0.133892443250041
0.132377472883924
0.13552219235015
0.129353810340463
0.134309857992136
0.131859996934427
0.132949161388704
0.13010092650612
0.131508536446908
0.127060975832023
0.13239564214814
0.127512408095016
0.13140348058589
0.126793928413214
0.131710198063624
0.133071929373518
0.131929324081638
0.125232370729433
0.127103517492893
0.123593004183276
0.128386479067891
0.123080455520172
0.12375192110196
0.120499610635557
0.123998706488898
0.121606431574489
0.12347915641232
0.120716394177465
0.124082477287768
0.120133727968097
0.121486934925383
0.120776499725815
0.122175621815796
0.117575028379915
0.121274583012082
0.117522166145056
0.119783501461539
0.116869416742727
0.122896886004948
0.115630141352407
0.118957760543748
0.122265423590489
0.125916977528642
0.11805232569266
0.118371138585626
0.117902772102941
0.122199033608175
0.115858226007043
0.117972416888792
0.114209324289905
0.116223426421877
0.116833937276881
0.115167363817181
0.115906253603997
0.11698718846226
0.113492567724162
0.117240199322776
0.114530605317202
0.116711649984317
0.112181485917301
0.116709528509041
0.112972550332595
0.115826034610433
0.112974073873465
0.114404405878023
0.1100587438689
0.115270931735974
0.113028447613391
0.121787379080761
0.117293336240687
0.114574324320121
0.109896184023342
0.110683751598194
0.109002518835584
0.111819480743039
0.110423964610835
0.113985274987033
0.109011750731945
0.113885416146612
0.109071035343661
0.112127240428255
0.111833452440954
0.112028140537831
0.108811302287244
0.111468475365316
0.105742159549208
0.11032204178344
0.108933665513659
0.111434301710747
0.106434535270584
0.109179739761893
0.108606654725813
0.111889416450961
0.105439144293435
0.114147248880856
0.121201666436809
0.112129634490699
0.107455581447651
0.111114920320929
0.103655039333459
0.108044183434743
0.106226124796322
0.108352992190072
0.105135761749438
0.110000788605046
0.105013977470694
0.108506679317113
0.107328921969952
0.109287619264506
0.102333988664858
0.106740948610097
0.102284770252366
0.107720430363418
0.10408245255288
0.105673022840465
0.108829103468154
0.119921831709058
0.109849026367445
0.107314870577278
0.104387384372357
0.107629064921884
0.118029188861947
0.11307050777458
0.104671392654029
0.106003586753248
0.102066739764668
0.103783166863763
0.10266648301833
0.102764128972306
0.102605633502421
0.112096837366968
0.10174516776853
0.107454964872881
0.102655374071062
0.104215035773092
0.101891379492609
0.106670699240517
0.101094276715228
0.104456943953381
0.09992347835204
0.103849685485689
0.103165060556733
0.102849367305115
0.103302238231145
0.102870624529474
0.101820879083525
0.110030207355935
0.102314378370799
0.104054867112489
0.101897791791131
0.0999331357391978
0.106023610251492
0.119244449217513
0.101748242547573
0.105374781038661
0.0991083902729771
0.10516145285528
0.101838852196656
0.10414077578882
0.0995061550350022
0.10367325442638
0.0984406352499705
0.104260235092158
0.0998784697846077
0.104958431002499
0.0999798072739905
0.101436481144491
0.099207982003609
0.103284794543628
0.0984967997531169
0.103403225221133
0.102087585011006
0.103491492296512
0.110286352984039
0.12420350190499
0.112450985167739
0.113939482404508
0.105463518471283
0.104494051033049
0.103251086422636
0.105135996810599
0.0991011044189794
0.105630286314675
0.0991818587359695
0.104615979667744
0.101342478350639
0.103584372382155
0.0982531941833795
0.103664701682477
0.0978052987315224
0.103611003074568
0.0964283188949621
0.103440643737607
0.0966927168947961
0.102174622223758
0.096390744147809
0.113984400189977
0.104873707811509
0.108239946865747
0.0972133926949888
0.136168358338747
0.12003058223742
0.107763464160302
0.107158159594859
0.103939196371012
0.09883213965261
0.102992731300966
0.100818683484468
0.109735970173134
0.104569381872722
0.104200727820064
0.102034257288848
0.104192490244364
0.104403512360164
0.104389047515038
0.108165563616128
0.134088168348778
0.109524783844173
0.11027510444012
0.102299996146071
0.11182264193205
0.121977419095711
0.109485018064754
0.110457195158628
0.108610820432176
0.102741121472811
0.106457644955328
0.102188641478444
0.105119811038744
0.107398561580234
0.110834148565377
0.103402098305037
0.106350630499739
0.102350008316863
0.109969412976719
0.107965962725142
0.12135431470437
0.115664250886774
0.110277084611512
0.111186564540391
0.111651120310008
0.108789100840954
0.110631628829569
0.104886645603998
0.109561522467497
0.116566339899614
0.12558064829741
0.114621489575789
0.126661442039952
0.118566333201097
0.111350358194503
0.112096987042241
0.120575011259964
0.116287375234342
0.110005711317255
0.123247489805683
0.141822551775064
0.126116932904739
0.13427534055868
0.110741294080228
0.119880407920498
0.108770179737536
0.117677937448115
0.112196574690815
0.132266991005807
0.111068097382208
0.123371913176749
0.108603839567891
0.130900006322711
0.127404631221674
0.121652520059915
0.122025555160285
0.116571250395375
0.114402262197857
0.132580561172238
0.118873965920244
0.121427714975965
0.142770163521468
0.160686338679281
0.138812834514062
0.128935696068811
0.117754860961487
0.163685484026418
0.123242582159079
0.129862600368041
0.12155598840016
0.127305245756445
0.121191082500358
0.133079258994007
0.149829536755266
0.135459219359714
0.122743972331411
0.133675813086091
0.122267494688588
0.15134015496694
0.135833102728726
0.135216198238682
0.125517294925614
0.135502212432127
0.126811283964284
0.183107277511683
0.145594124144564
0.155376203882445
0.157922522554305
0.155753380986677
0.146929394556686
0.149438518324715
0.143919725960803
0.158049189826928
0.159332802162594
0.147169111823318
0.140537659016049
0.16563321291748
0.171477830673302
0.148737755915257
0.155001995538728
0.148782944835354
0.152378533838103
0.194939572261027
0.212010314239403
0.1887216768344
0.160958573073823
0.166050956055747
0.18949831178529
0.169158601794313
0.166116737096652
0.167019777533355
0.165115026076023
0.16800351748436
0.168531199481002
0.185212756628032
0.172962082367314
0.180265203615299
0.17432264891556
0.182911079157839
0.196372661022682
0.241453487072581
0.228867569276262
0.198302622391661
0.233165784231978
0.220731006289695
0.205105104612908
0.201911845191343
0.197265966109689
0.217198490397444
0.204375483400261
0.209751818500699
0.202851939647469
0.242134157356078
0.228941440618408
0.228094242572291
0.239908111084919
0.225298324863493
0.240160852804228
0.221945044952946
0.406891967378316
0.264582805709556
0.259376304714884
0.265929598731701
0.253881816254272
0.335585527087074
0.272409521532523
0.270910948172283
0.276743156172517
0.279399819058138
0.285019458100293
0.30098768415705
0.302415853300918
0.323071923932657
0.314709796224285
0.314848559401079
0.329533756910768
0.411589513134733
0.390342318964821
0.372800436637701
0.348592322984994
0.377891814290095
0.384164838184034
0.374399357027181
0.377024122014445
0.391715201334602
0.383511001474702
0.46407605819396
0.407943789310325
0.425820330044915
0.42786265385162
0.481228706641649
0.413923973882838
0.506728253287521
0.482293177612605
0.479441216102581
0.465164566253783
0.475644130016541
0.482494556973547
0.488190073831954
0.525751387532091
0.531136009147133
0.506351850628744
0.524349318033168
0.522003776304077
0.531496944545133
0.526251279893087
0.551566407175783
0.542250617633532
0.625594485822918
0.578533326394131
0.84347222582952
0.599834614482176
0.573542653409254
0.568727518741475
0.566816392995603
0.613577776808002
0.602443553689388
0.630724537849543
0.622286803263115
0.569740904920849
0.599347824174874
0.584883435245636
0.599224217595246
0.575417992551657
0.605938605218845
0.563447450717472
0.628986185209024
0.589341636934959
0.643131316098953
0.69105342927846
0.594244405026081
0.583395174801993
0.594873788617021
0.580182669414201
0.595296078427025
0.571358905181487
0.582289577927587
0.61029136952656
0.555848586540979
0.572971706894697
0.551025409127589
0.598677750387922
0.599715732860724
0.548361363067283
0.574062108613925
0.538350129712881
0.547452586629648
0.522691249934993
0.533448180433983
0.600505873081763
0.5284456195675
0.516564202880139
0.516440787889031
0.505401551815109
0.515840092234857
0.493872979662244
0.494785512491165
0.500635090275
0.492408992118209
0.508210868616324
0.494677237163825
0.487586474841947
0.484169478936886
0.479248611278829
0.484463713712803
0.474182256257408
0.478259006942179
0.472980489971123
0.47761143184152
0.468104677066647
0.471694561989971
0.463955789944157
0.467565230657902
0.460126734846197
0.464724225914011
0.461509046559791
0.464088702812843
0.454282005403737
0.458508640721387
0.449574382180016
0.45507178610265
0.452133039949814
0.456134637879551
0.442892673182742
0.452707061395638
0.440922879603963
0.44824983853698
0.443228109901423
0.45336567330303
0.430450805539552
0.446513656325607
0.422238546200081
0.508463094603391
0.458261447114276
0.427094469686003
0.433218755612405
0.42676533638874
0.423774875893502
0.406369261046662
0.470648159884143
0.438900094211776
0.409613905635624
0.409611224369252
0.397566691363876
0.41179713006705
0.41615958629053
0.387219379932843
0.398171373890522
0.383471588357317
0.396652992914862
0.471327232428241
0.438027547693139
0.49367875886538
0.397412852984135
0.375614394486323
0.369325039977118
0.421096593690276
0.350745655580789
0.377264470907743
0.349352251875179
0.41670918001906
0.37331527558117
0.348636338278282
0.349083457723936
0.338980565709918
0.36833226766294
0.373844070564702
0.353368607883513
0.366437582059575
0.382893211305138
0.356012605006345
0.401094278902385
0.39900452363347
0.371463318777114
0.328488049429785
0.329782903639081
0.331855904581353
0.3157888941924
0.403121367480251
0.323477498007835
0.340166943991937
0.312960447950636
0.308987048526773
0.315427453256483
0.331106268798074
0.331415833834318
0.3077403902528
0.362633162893175
0.301413690673598
0.324121477708624
0.330161085659111
0.347000710756818
0.371865531999767
0.311466106140425
0.303002968731861
0.327523731230415
0.36055286192856
0.307322182114075
0.328118721845823
0.294067733557234
0.297374358823828
0.324792014922043
0.295725433932446
0.31730860229629
0.323016004024176
0.317448685377679
0.372891025876792
0.36529541079073
0.357229459743227
0.314309911302099
0.295564885346785
0.303957361353506
0.301427195779854
0.309970399961851
0.298717452351618
0.329837240027369
0.327108741570715
0.287742218109319
0.378236915816282
0.3182489598233
0.312778706734766
0.316237681935017
0.31957685970346
0.328215384878315
0.354322204721897
0.370362447358848
0.360911779068244
0.34444840802413
0.383334821338446
0.340163517087995
0.359648559067576
0.343946711556384
0.367971804216508
0.361357673236514
0.392814380723675
0.377499526044474
0.390753449312008
0.389462882381012
0.404719459436928
0.405425356002176
0.464818772910042
0.397578933497785
0.485528948732635
0.439478527839585
0.517755825396352
0.474351041457315
0.467818334301296
0.475464721320737
0.473110764024834
0.485560672657646
0.498949696487777
0.488740471475796
0.565796335770445
0.500342333561871
0.541927334948117
0.520498386958545
0.547246337037356
0.530449938298085
0.588578538287731
0.556502543658293
0.628149842174172
0.62622123426204
0.586514166945067
0.58184867402392
0.558789140105853
0.577634556714899
0.581088993378278
0.572232005169811
0.580401803441113
0.559343028852199
0.606840417707295
0.583247756143378
0.59157957525911
0.59037133932056
0.596981843123689
0.588614623382679
0.601191015996654
0.596191793891572
0.598975131714923
0.591661531845631
0.625319502034409
0.579329565797512
0.713301222012128
0.640417654878807
0.630399060591988
0.627502158245637
0.631824318763486
0.648311258099526
0.633550457597148
0.66528186858754
0.658339355704113
0.653707519654165
0.666071835005873
0.658511720908236
0.669804743135827
0.67785979402074
0.716652227631748
0.669399887534736
0.699345667670693
0.66854890491397
0.693169672159013
0.768075084441443
0.698439902783459
0.719622928965407
0.705017872054527
0.712046936684764
0.700663865843172
0.708870940249528
0.704963424448704
0.701238443337475
0.707466914290833
0.707816892623632
0.705963427873302
0.704972522387638
0.720899730751955
0.70886586927926
0.752051737279742
0.706716449734938
0.705809253736386
0.700904136774907
0.702836081411591
0.693550245971624
0.717137153480128
0.726023788821117
0.708952656846893
0.7078755233245
0.703113951540092
0.717245203832195
0.714134361933494
0.684049606632193
0.706378937272245
0.688136126650241
0.694925841755105
0.698348856083593
0.692338212079589
0.7584309996885
0.714562456891088
0.71214096696336
0.707898892683029
0.728375216530215
0.717389293967333
0.7291631704965
0.729775693355187
0.729258753147074
0.735553877335946
0.752041240604148
0.747633311438191
0.74646515220651
0.76994852311779
0.77137156107479
0.787769896931117
0.770288144649582
0.763632628238979
0.764393296284171
0.75384106637616
0.774344485964898
0.756687213516258
0.765736526440143
0.746366123870952
0.750805971379334
0.732448740521647
0.792300096262854
0.746505051986197
0.750172174630643
0.75525239463182
0.729915160946626
0.740344527981364
0.719002958536112
0.732472794440948
0.716829426591918
0.723184508664462
0.715983031292028
0.719062406784202
0.713194991565771
0.709492038468348
0.708814510853076
0.711705380419623
0.703000722551366
0.70505462625139
0.703536613030253
0.696592161145755
0.69745145756356
0.703566911399021
0.696192843243202
0.684493507458683
0.704924841861936
0.716022346703959
0.710044298601046
0.711890648278318
0.695019210722137
0.708638803592412
0.692750289691866
0.705327278704395
0.680904171329827
0.695243954964387
0.684309621547814
0.684042781289498
0.688855679172891
0.693501511245773
0.685145043075646
0.687389936000625
0.675650304948074
0.685000563532913
0.668395877061935
0.675267105307536
0.66488718995566
0.671646375497576
0.665937847666091
0.682065416958439
0.671703743927112
0.663349890656759
0.664536204447573
0.656432318680611
0.663369132393215
0.663126845586236
0.660055438833168
0.659252230574866
0.655745803039578
0.656795063978907
0.652916939696405
0.657326449598993
0.648421517410998
0.652872005681739
0.64881247208896
0.6450213762278
0.641399007342037
0.644098672321039
0.640556654876268
0.638875345672202
0.629013232585337
0.63362756180651
0.625651345596083
0.623031097840527
0.620644333847838
0.612588117984027
0.606549509917292
0.600675530700591
0.59613071491269
0.593963170217639
0.593123427319471
0.58664809083972
0.58156017593351
0.58262268574547
0.579969251305641
0.576445084511285
0.577227518552289
0.574019883645972
0.57836011243437
0.575242843486064
0.571164254793591
0.569718472786785
0.572949108037866
0.570187081956052
0.572543761582131
0.568504504243136
0.575817665154485
0.570068734045767
0.568339700421788
0.570935864728462
0.578788192447166
0.578991414165639
0.588830219869402
0.580018156819693
0.584667977418157
0.583007050547888
0.590471204550214
0.588975034551574
0.591079517915284
0.594796086216159
0.592310722735717
0.590672919350229
0.595060062251163
0.597731666806051
0.592529767163995
0.59573914550494
0.596111435174661
0.600189000691414
0.598245836340202
0.593604026501248
0.593190936863366
0.595263487265283
0.595645784238162
0.594354286151727
0.592888254259144
0.588152228742056
0.589811369264766
0.586263209916551
0.582854961246262
0.582709878953937
0.581901248858267
0.578049034585626
0.58124799732982
0.573520786711513
0.574132572473768
0.567578413531964
0.565348667922839
0.570685963173271
0.569266290077209
0.567727181249795
0.561148333910562
0.562552132869869
0.559736666579106
0.559748136890276
0.555554073134319
0.550888607614633
0.547954589835494
0.54958951795486
0.546966883340756
0.544545226715222
0.54524036727153
0.535326025944723
0.536350288066384
0.537681477233491
0.527903384110404
0.52629714997616
0.523806962318892
0.522833679479094
0.516990818988786
0.514798446902094
0.510391700314326
0.505615143425643
0.501799214314825
0.501024946923063
0.500842312504049
0.496198921271501
0.498427030837497
0.496193116403567
0.492954588815584
0.491706380574631
0.492955861227979
0.492955425865705
0.487132601835236
0.488884509314641
0.487847805920617
0.486930798367225
0.480844057430017
0.482804950684707
0.48083868226094
0.480674352230927
0.469214118923685
0.467748406990034
0.461483995689774
0.456311186186358
0.450907488582163
0.441559624902127
0.436540227346398
0.430557454073109
0.424120643924833
0.422080645122417
0.414231649600814
0.41177679339243
0.410379510279098
0.411017781844785
0.4103387966438
0.410650219480786
0.415061793580415
0.42293688803338
0.429068521361613
0.435110229662014
0.445366151562531
0.455619786507488
0.465653166690969
0.481974547278662
0.497510953723659
0.514511120110255
0.52889370721645
0.549061195325317
0.571407758483811
0.588514569679058
0.605510775032414
0.630889981541393
0.652349758895705
0.676996356742582
0.696144859509308
0.724669950601928
0.750780011074021
0.779066614972659
0.805698187510168
0.824888761757378
0.862749146684336
0.885871173725177
0.902279445252109
0.922218266551486
0.952783280936444
0.973226395004395
0.993595090223398
1.00706960232893
1.02369121835235
1.03124018300354
1.0454629040711
1.05170545491934
1.06555664431021
1.04422423705505
1.06170731754372
1.05588922285656
1.05837660919836
1.06326033296528
1.0381267486801
1.03406179082944
1.03364068962593
1.03043881721382
1.02670625857601
1.02048750070271
1.01653394621981
0.99850791492884
0.99936708316696
0.993030324077756
0.995521576744618
0.998740223354268
1.00488227240182
0.998346544190689
1.00728674107391
1.01503943475407
1.03290350612662
1.02549093841163
1.04072544208736
1.05483811015518
1.05707835031824
1.07413537045202
1.08962409126634
1.10151241601109
1.11316266373396
1.12902572802305
1.1192364883587
1.14366741644782
1.16749922753808
1.16755605888831
1.17134023685185
1.17149579321254
1.16393521546184
1.1526719790952
1.16845999283239
1.16598080777566
1.16234316101867
1.17123072778064
1.16740641638059
1.1671050521046
1.17123076615841
1.18614023552963
1.19746158033695
1.18248690359952
1.18440166654667
1.19715252568941
1.23435074865449
1.21398752747754
1.23308613618429
1.22542694207065
1.26168442636036
1.26046644853604
1.2741178234523
1.27813036868246
1.29327959759452
1.28490482268095
1.30335702043929
1.33156275391702
1.33892812410544
1.35764257262154
1.36602556020799
1.39031082606922
1.44178039221676
1.46270011550825
1.4929395747141
1.54885901852122
1.5386606894151
1.57370291021937
1.74763821738774
1.68291448621391
1.6805084538695
1.64509648400216
1.70357257939226
1.66537678016553
1.7569934337551
1.7605227192834
1.73488707599399
1.76091955202324
1.81253089953541
1.6866594221723
1.77514974978657
1.87109618759293
1.73037160234416
1.70013741342342
1.71589915071722
1.69255970601582
1.74415579233857
1.6729207232993
1.82170011093028
1.77895438564373
1.75813276615204
1.7260221635751
1.78068084057476
1.72334690572117
1.73238025931439
1.76702035529915
1.84974041768959
1.79317382817004
1.86451513348514
1.99737653593256
2.07844604642923
1.99897446087971
1.99826471811138
1.93131356421676
2.03180951221995
1.96044433671321
2.15891683752181
2.15737115012041
2.07457726043555
2.0249202123024
2.44853862970599
2.08215577979453
1.97786660305847
2.19641923623243
2.16615667943002
2.05587279327152
2.24972989169068
2.1843703341045
2.25051102366543
2.15696817119972
2.05742603287646
2.10573899502492
2.50638334200509
2.23863830335668
2.46697729303327
2.29250956061219
2.24610013438604
2.19893238442478
2.66710818450744
2.33995503520191
2.40767429396303
2.67566878034066
2.94383590686032
2.60776134692846
2.45475349096046
2.69685048703973
2.65708323764282
2.61787779879102
2.75232477255908
2.62070769953858
3.44629975915732
2.14705050538251
2.39214535342579
2.13977546637342
2.40914048506969
2.41045335566896
2.83642703199985
2.21011263090074
2.09080772250784
2.04601202308064
2.00418456387673
1.96383135609584
2.1855912375034
2.09871367283305
2.02859169469484
2.14166582655539
2.17949749391427
2.06223003055057
2.35426977320762
1.95527851417493
1.93130237422626
2.03850797844702
1.91259949059299
1.75219197532859
1.81885723569621
1.9349775408414
1.83958995471593
1.7422041115945
1.74759475118119
1.75730268223781
1.7737204966765
1.70289019323408
1.74008846048117
1.62245611667772
1.59373326989505
1.55369029411638
1.51706424068078
1.48119337389764
1.49393919950439
1.37387715808924
1.30734989103336
1.26606212806148
1.25883887957105
1.20236049984485
1.13446161012352
1.10213251028628
1.08610342050892
1.03505249377929
1.00476467466672
0.970966150983929
0.945508393878454
0.907018344488355
0.897754702798156
0.870126800034764
0.83271895431038
0.818692618876022
0.825036634031759
0.812271012184875
0.794090244128502
0.777239745436997
0.772960222988404
0.760881030088894
0.759227612761998
0.751226997597426
0.753281456762696
0.754494446277971
0.75394005821099
0.743482718749897
0.750394614330423
0.749979547478728
0.761023404412913
0.755352981903332
0.757400623731931
0.777512570583724
0.773990032100169
0.77577321504635
0.782237803639736
0.776234898351271
0.790663376004789
0.773853029169021
0.773433723383527
0.786377179159903
0.795005691492852
0.793924649741548
0.796366338499453
0.790218545038061
0.796834772834027
0.788308805604205
0.796336350816589
0.800969310652928
0.803224391245943
0.80807054871425
0.80769237120562
0.797108328574498
0.799966021289726
0.817784541406435
0.807967848313157
0.796970309411057
0.813938972291336
0.807331017814337
0.80603123222588
0.79766814090585
0.789673651327188
0.780064248401599
0.796431325811437
0.79209610710697
0.765220936466304
0.773399134145087
0.775380696764848
0.753731382346942
0.763375755159779
0.772813239661972
0.775091472991077
0.76231040611421
0.768861456254297
0.76920985503986
0.76903777637244
0.782164003769534
0.793682773309885
0.807346648521105
0.810200883514713
0.805913155356603
0.828374340676051
0.837213647947799
0.869422017517714
0.874297600235746
0.866372167874775
0.880874559660083
0.904981150910567
0.885267514986419
0.872533799852763
0.866484880484216
0.875953734647031
0.859569717653245
0.848296567617897
0.841331494055126
0.832042343312411
0.834025896007106
0.819866868371711
0.810220934487809
0.812577788881714
0.809351548338624
0.796235360698695
0.799530168387345
0.808444187244622
0.814643313952631
0.830216230626242
0.819748899975558
0.817001848483471
0.807117808300658
0.838799121742016
0.821829426791725
0.814543494927164
0.802335832709039
0.810125976256937
0.819442993231586
0.819114902251262
0.823925767355316
0.827432065095828
0.800804166418607
0.819255857127966
0.839363178143341
0.831219057232743
0.808695166982173
0.817128804421692
0.823639177466972
0.831674795212554
0.833578486399556
0.836978529429601
0.835360602828775
0.838669520028757
0.814645748160916
0.81988311441572
0.828184410608454
0.834059340059157
0.801707044058005
0.802069216709012
0.803613906546557
0.829295614165336
0.806416241205357
0.805582036566062
0.811795456887096
0.811753966821444
0.81797054164887
0.808906259840875
0.786704659006515
0.800789858855422
0.801098480566044
0.776763678556933
0.787992109916014
0.81737714309146
0.794858520742899
0.775971471156479
0.786572510430314
0.801306937601086
0.744807055508874
0.76495483685188
0.763734155696914
0.73534592246941
0.740378456088654
0.747189540159268
0.792875202065212
0.766528621139956
0.76834751666546
0.794899573818673
0.756535617929237
0.760747754460905
0.767023875071424
0.774971787435233
0.76524563862048
0.772931906006355
0.768946575066129
0.785977396991622
0.783229852145195
0.761863315979626
0.773092486138632
0.791580736520464
0.774253507833428
0.818746820864048
0.795907585897301
0.801478086853806
0.843764673923908
0.817416631448931
0.779949425630078
0.840422686274765
0.859209070346241
0.821395619887062
0.830993577851846
0.861556590070944
0.855570126528369
0.884637356112746
0.905617213953643
0.92663674608531
0.943249895042586
0.938297687682902
0.940546326093755
0.929266084326771
0.927053098209248
1.03060447396608
1.02122828102958
1.00186777610132
1.02952435537713
1.00968962883582
1.05104772359738
1.14466082505346
1.07844869554211
1.03636353012101
1.11562885999507
1.04351865311752
1.03787995497032
1.11831769905352
1.15379501783549
1.18952528966521
1.12884618047114
1.11775638853287
1.07364300223477
1.06534387811509
1.12245353173298
1.14461427548291
1.18351430994315
1.16020907729478
1.08157230973018
1.12525792689273
1.10708076931156
1.02821792086094
1.10089574850579
1.11173121281006
1.04446860382352
1.15215364871496
1.2968343917408
1.35239029981813
1.13772139444465
1.06044208316958
1.16086288788695
1.14089838907168
1.22311633990188
1.1790988066029
1.06877584771276
1.0905554729979
1.10083392422395
1.0769324004532
1.07821778032732
1.04444403888848
1.1156542671067
1.08933349248886
1.12892641413125
1.07816399369729
1.08006207722243
1.17536288457046
1.21379224083612
1.16465792262714
1.06822528744016
0.950874042323114
1.10243346328554
1.15173834939054
1.00531422269573
1.11941982901178
1.16797871269772
1.15598652030631
1.27158730495669
1.10349155664245
1.18515411260594
1.07341900341097
1.06131064331318
1.06792401957635
0.992522993725099
1.12741078678251
1.2665506006155
1.22631714459549
1.29702527306007
1.36565388434865
1.30264822049259
1.17396777536656
1.24924215761102
1.33486962812144
1.35704526308528
1.04757528875608
1.12024195355031
1.12198006216129
1.02117168477825
1.236145123462
1.33997154194396
1.37328208390701
1.45700827192802
1.37635099480031
1.81440743445124
1.66286108398761
1.38962302374303
1.1665592608597
1.43442742682745
2.1774073726789
2.00116524083566
1.2159745552229
1.23630281585491
1.54601928920435
5
1.31875865852698
1.62246807974613
1.28330792773163
1.40136416155593
5
1.1786958839435
0.968431350236061
1.50914233896526
1.66550644680989
1.27636751991794
1.16655244885912
1.44251911494725
1.2729595032133
1.68796014520799
1.14020386086246
1.57628660388981
1.39532321772975
1.90304405201864
1.41071880412803
1.50443468677305
1.41869869348555
1.12675067596742
1.27395350615166
5
1.31359887351408
1.10596725380742
1.15697886245928
1.10120555809785
2.26749960136274
1.19285550570185
0.983525210064778
1.62557648367957
1.64865975671071
5
0.632989168696846
0.840900985332824
1.03725310835101
5
1.22440123640738
5
1.38298419980981
1.44944140554954
0.974541652306236
5
2.19952338437617
5
5
5
0.966485731041385
0.847547437092304
1.29592297809511
5
1.23556055449904
0.840155343381
