3596
4000.36533379555
650.420452594757
1
2
2
0.0783331076774387
0.0805536245188704
0.0776510352456423
0.0751842191887066
0.0707411304841227
0.0752722371845537
0.0603112372812771
0.0690587537583634
0.0671278207436644
0.0787922325340921
0.073565539185819
0.0677392725907956
0.0590119038439273
0.0759107974644401
0.069759716269894
0.0686930129999362
0.0657165098141188
0.0714273941030453
0.0665290495403392
0.0763312683110701
0.0671817819714803
0.0752267075323733
0.0681136363172326
0.0663819689696554
0.0710042001159503
0.0815502046560494
0.0622508354459477
0.0750377391040016
0.0738068828237151
0.082341881651758
0.071155526788449
0.0757447216719655
0.0714610438952185
0.0742239410044523
0.0697520301990904
0.0733960708641527
0.0662454134684953
0.0727865374973982
0.0613810045200412
0.0756442229882394
0.0772645128342699
0.0714381305898405
0.0688929545913882
0.0764690063186654
0.0678190938735756
0.0811949745221138
0.0694775260520206
0.0745778089054264
0.0685795861346172
0.0728911019208817
0.0719010081811529
0.0741324971413361
0.0737303467245239
0.079387073559857
0.0696465477580274
0.0858703333748443
0.0716201912732223
0.0672530307716435
0.0653566679457532
0.0755943743752358
0.0839812986141473
0.0903448872367254
0.0701137558721783
0.0739174570122965
0.0667862967179711
0.0765811058116241
0.0585403940517201
0.0668043681421984
0.0636705380053971
0.0764087390248595
0.069591213035204
0.0795040461475749
0.080315465094966
0.0745412709567711
0.0756186534326765
0.0765836467481575
0.0636599915929278
0.066369569148567
0.0612501350777077
0.0840220614804779
0.0790641543619595
0.0802028947833927
0.0725566049617466
0.0594415353880775
0.0641815580308651
0.089135812837263
0.061649680532872
0.0742894586021033
0.100251761131985
0.0830124985737632
0.0679762647866968
0.0733557649229271
0.064540733168959
0.0656676823850331
0.063102491381914
0.0653976712109721
0.0649981707240295
0.0747497265108965
0.0596862055909001
0.0633508301372688
0.070547996625666
0.0818476563629759
0.106131474749756
0.0814870026412209
0.112599731341416
0.0860490517386362
0.0653529715044251
0.115493375020753
0.0769249992800945
0.0748366889211255
0.0633369628984022
0.0744626650835776
0.0710279026002328
0.0721470055581601
0.0509723463261757
0.0840867956686724
0.0952692388537388
0.0787468832303464
0.0712163492959712
0.0645776934677903
0.0538026315735285
0.0898409754910008
0.10113312525062
0.0722756488957784
0.0796943990267582
0.0752539250661872
0.0633085484970511
0.111049524831749
0.0921641736475375
0.0609369485407752
0.0643228586610864
0.06426640989645
0.0579255762200773
0.0600342249562447
0.104286685511063
0.080683130739609
0.0608491798334332
0.06331244694558
0.0826445474699368
0.114947693027587
0.0829742535248472
0.074400108689562
0.0564623915687315
0.0719313598058278
0.10478636248371
0.0805964949529718
0.0624517422141304
0.0926819915288823
0.0814141284165789
0.0592408472233043
0.0568479792630684
0.0640200249933891
0.080245549701858
0.0787706214449907
0.0406695014347709
0.10156323109048
0.125507613539874
0.0959478991275235
0.12000908183435
0.0712575586047422
0.0774236310724733
0.0695059536032328
0.0647882490246595
0.064083622960966
0.0588857360369481
0.0620642660828262
0.0802715692064519
0.0962782841325684
0.0649577946474256
0.0768379187444066
0.091077197434414
0.0786550602746089
0.0620605782197669
0.122451540464775
0.0780409364794474
0.0623732638962779
0.0968192265974888
0.0757145238171945
0.0590149753855289
0.0707259290086514
0.0857613733189289
0.0707763725500717
0.0635541905176606
0.0643984243896403
0.0707805780132254
0.0791776212100567
0.0671941704662906
0.0624135723225293
0.0690945023376792
0.0652084350483443
0.0837563335798396
0.115583186971082
0.097394732379048
0.0754524963608476
0.0690717891842949
0.0441992487463022
0.087386858936237
0.112592726067064
0.0679574556675273
0.0622842419159845
0.0581593849149531
0.0606858086679095
0.0614160618880425
0.0631169473922535
0.0576322398669724
0.0575658125260121
0.0949052174666605
0.083880194859195
0.0653376168611888
0.0628068921343994
0.0693069253072682
0.0672744944522765
0.103683565148529
0.0921883450128425
0.0666680772361252
0.0757843566967837
0.0674135006882856
0.0907590585964683
0.0803232571446562
0.0645898849479468
0.0623976867253872
0.0661565546434873
0.0595509437841111
0.061129602724282
0.0646511010713235
0.0659833655917238
0.0648746040397564
0.0703285250819583
0.0675050497481143
0.067830547182206
0.0706670670552674
0.0673796638625247
0.0620370710177586
0.0667487710526624
0.0575358034814093
0.0788177629508433
0.0892315454666344
0.070918745752457
0.0615467567671668
0.0573909341445401
0.0646211529799506
0.0665779839822839
0.0649364573005458
0.0651284270684085
0.0627563464613033
0.0678302106440404
0.095405921465843
0.0767298089333205
0.0619223962659918
0.05830088593044
0.0809137654967822
0.0869533994134571
0.0674747045958191
0.0634010951597282
0.0623190545548617
0.0608335055565037
0.0666872398191826
0.101736729358246
0.0780261129467297
0.0696653032006413
0.0811659786960712
0.0791639545009676
0.0676764824383255
0.0648608279954205
0.0606952987565839
0.125014874313529
0.09405585379891
0.0874883286265923
0.13682369202466
0.0979660166846257
0.079748080590413
0.0723508904886581
0.0481759062879873
0.159693715209399
0.122268331246914
0.0750059475531729
0.0691885005625291
0.0865283432350938
0.0658017039286713
0.0729352597123022
0.0836987710651347
0.0988238094267488
0.111672657488038
0.131888770470437
0.116224373486572
0.0704402471143754
0.1040841255446
0.0987352867316146
0.0749897414932657
0.0804583020988865
0.0748245875918839
0.0770776693568359
0.0870742424072381
0.0953824254840981
0.0865653736925044
0.081049126373297
0.0807883174539914
0.105592093993876
0.0927644482497657
0.0812450499913047
0.0829598366792439
0.0912926286367908
0.0809678897028453
0.0749913902411393
0.0768833800803698
0.0910217713798133
0.0715904686505259
0.0822171284973438
0.128753299621336
0.0965388135098889
0.0875852371690257
0.10898704530146
0.0840549806909825
0.0801596413938186
0.082306079059362
0.0806685694571841
0.0805274296533661
0.0748279636937034
0.0819992051404659
0.112647324369419
0.0923473067020542
0.0851294616432869
0.0839959769255428
0.0817030060539213
0.0867863389153223
0.0871932801178117
0.0877971156526401
0.0862297901777494
0.0878405954326359
0.0860478974715875
0.109516846757065
0.111932252661608
0.0839749954231681
0.127233835776804
0.119752780937844
0.0891203355452993
0.086434615614025
0.088948772484794
0.0917698340591914
0.084789955866757
0.0885412265232418
0.0940954080871338
0.102450002987264
0.102417055340797
0.0902217255192134
0.0976165666036071
0.113923128361859
0.154184139612617
0.147625828177116
0.115574994097765
0.101806846672166
0.0946440219376268
0.132859942267899
0.131407477088306
0.134941892144729
0.136030529807893
0.115769132988388
0.113646492980169
0.108761273243752
0.101416881309486
0.103345009337225
0.114272803363851
0.106668315551515
0.113797906322451
0.114376606594101
0.121638782975747
0.118349178948809
0.131034326338878
0.149575693847315
0.13139177487756
0.122169105494431
0.127097931146019
0.126868314898846
0.161321324289781
0.158771468449773
0.186796768425692
0.166958151824258
0.171382232412842
0.174726976753886
0.151222518606634
0.137601482731657
0.12871655346677
0.142038566889904
0.153790881920177
0.147722882497842
0.148351107814121
0.142797407646859
0.149832478633057
0.148705807949635
0.150975796197074
0.146395220141801
0.164432623501389
0.182553420372641
0.166876747099854
0.163675619240785
0.163618975618713
0.190902286537501
0.241289730604663
0.211668934423072
0.186039666190948
0.181974749730874
0.178742663611078
0.181469691239674
0.173698663275452
0.184126346065104
0.195753586136799
0.193375616887045
0.222866011922016
0.213744125444025
0.213753741994416
0.215866374800691
0.207017791161507
0.22402236036559
0.213117732204101
0.231376895696007
0.236599335517738
0.209142722590383
0.205950637835284
0.250004720855088
0.238112964245219
0.245239776861128
0.242430086823226
0.220789359621199
0.217827516856001
0.223407032259971
0.232902820062106
0.242289381846906
0.253250840610688
0.24644113183201
0.248446092843358
0.256480462684333
0.248896768796064
0.258489630544951
0.286690592206885
0.269125002061635
0.267554178349841
0.277055957348115
0.260665774360997
0.265490374643447
0.257957912486543
0.31375164293738
0.306387802882718
0.314232183441212
0.308275022807117
0.286623391638192
0.287316750514015
0.302243760138157
0.29679310681903
0.302620050210063
0.304385982656574
0.317714530587644
0.312154132897262
0.32031039308788
0.331510987572234
0.328196283621541
0.331297667038392
0.339914778151013
0.330278027183376
0.329861206693759
0.349279258584319
0.338828219976162
0.346288651362228
0.397725856082268
0.38425900983161
0.415562934501906
0.374877010204964
0.385454984036351
0.368982203401151
0.392091055520298
0.389714393229371
0.384623824204356
0.395219918047373
0.397349084665213
0.38088645651813
0.393646299248035
0.395206949402167
0.414708234235167
0.42020146896964
0.413197892685365
0.422158493467899
0.428698314025017
0.433652815130393
0.429042158841345
0.428226752825985
0.454025343844281
0.454173479348205
0.445875209201108
0.468874580903147
0.470435715399288
0.45887286032837
0.46569636783484
0.459479601235356
0.479789241040227
0.473531063174554
0.490907308171199
0.464050270623857
0.488820213074613
0.491428070018774
0.500266745224066
0.505058355277383
0.509174513925646
0.510064827865726
0.516590201545398
0.510399704315438
0.550486318581257
0.523914161961131
0.539439553740244
0.529923616271669
0.55492126993106
0.53863792248256
0.577104411271735
0.552662097961485
0.548884927419088
0.576132064759551
0.579660663021731
0.585177190945255
0.566479655066665
0.572038416011492
0.611935578126392
0.594999418847564
0.6002710007342
0.589726406920457
0.618262817814334
0.604387257004508
0.639270765615702
0.653265889580161
0.644876362859104
0.631613846958164
0.661259848737224
0.616519912207481
0.673625171342419
0.627544316845045
0.645015898737489
0.666112307634371
0.666430568520007
0.644640060439592
0.688616065308548
0.641214829824606
0.674524397815192
0.690027115557607
0.694611778740569
0.693509591560098
0.72645709833233
0.700494188778932
0.727402661940611
0.693177342733193
0.71564066508575
0.68102356201029
0.729302034928313
0.746692621905617
0.739643954817189
0.712147873280309
0.762003238644079
0.756932332621362
0.796982269662211
0.748655362278023
0.762577262955487
0.737146335144796
0.780535826315363
0.780666463574253
0.799001920114765
0.776051629682361
0.792877196626969
0.776630210480081
0.819083753518531
0.759437991973766
0.79751659465105
0.797471223544267
0.784048325337714
0.799735667173359
0.799360843907175
0.782530093231721
0.898440488336645
0.811098029395673
0.83688340232893
0.864333836141316
0.904605759427048
0.853402087193524
0.865079677187584
0.860123059875623
0.895564875679938
0.879242733967413
0.926392242404178
0.871738926410968
0.881680747952472
0.862354696362673
0.88469724099276
0.904554817618709
0.874421898183018
0.923009710905723
0.909078702699666
0.891391900194054
0.962410925515949
0.903943660643903
0.97280713525128
0.933513542066326
0.983888579335702
0.887076405714647
0.983485957221786
0.926285497711104
0.97799896412446
0.915364896960346
0.922886683938651
0.91400529719878
0.955759488281538
0.966721588439017
0.954268807670865
1.01585081162145
1.07880265739231
0.979683533545231
1.02480021397571
0.995417434513681
1.04485191945601
0.965421770752216
1.05670430889252
0.965873473571001
1.06772598261444
1.01504224654368
1.03993910969754
1.03167404438172
1.12684380918265
1.03627260931031
1.11872804099569
1.00542795544757
1.0917880054474
1.02592301101208
1.02520045534283
0.979711603265198
1.08936614668206
1.0388388517801
1.15843458755128
1.09531214918335
1.13241104286326
0.989689156461288
1.17979872313169
1.12983434462321
1.10194976628866
1.10321670494819
1.18827282238553
1.10121514540725
1.07040103739173
1.04782198309279
1.10759302222211
1.11177072352686
1.21387447528208
1.12117420236074
1.20753177737658
1.12671870995851
1.17824292062952
1.12305914118235
1.15756772410973
1.1345603305198
1.14393669689514
1.15998108158872
1.20629271100479
1.15189122430118
1.1938695170846
1.2173317892375
1.22666886242752
1.14826742615093
1.17810007203649
1.1231066835794
1.18811511418916
1.13041010573164
1.18367040445839
1.11194930331803
1.26663341824039
1.20002345747244
1.25982746923401
1.19509187585462
1.23183655361714
1.16505655431018
1.25809470653719
1.13796939693025
1.16058555153689
1.15875297206054
1.18879980991074
1.20027045254274
1.21696599835006
1.10823579753716
1.40304504683092
1.26401559037425
1.27859474910232
1.14187991853994
1.26851705215941
1.15884228555243
1.29350460071671
1.26374112921128
1.39063637515366
1.16691773645484
1.29126288549122
1.215708448675
1.24699858496391
1.16840747331152
1.36275222181368
1.23465233231261
1.34500982221274
1.28006203624095
1.29072007619386
1.20912243971946
1.31788940029502
1.22407782892156
1.26607126808895
1.16834404794918
1.21561966183623
1.20819452706201
1.24355917499879
1.23640659904385
1.38957277489921
1.23136700846888
1.30377746700406
1.26947114361806
1.37421005949963
1.29553302492417
1.37002169194039
1.23354954900212
1.34922082013938
1.24253942609126
1.34625168850887
1.2990615567646
1.30135866984744
1.20311353437322
1.21726369465392
1.25759841081896
1.40753979414772
1.22013249791235
1.24679683087278
1.18556239675451
1.33857585849736
1.25003827590624
1.30636517167372
1.23164723557036
1.36747625410894
1.2414383232685
1.2781756328572
1.19723723789272
1.29328142639199
1.31547795914304
1.364483227386
1.20346773235287
1.34249661913726
1.22530241430719
1.3079401814396
1.25129679102829
1.28648682778755
1.20040439904556
1.31775271977361
1.26692170764584
1.29209036114012
1.27343439691887
1.39179309957113
1.28481742927276
1.28374316627957
1.16941905475752
1.26232383599184
1.26095582710586
1.32408877639626
1.26910002341357
1.30811394586383
1.2124396194913
1.40324795979607
1.28985015645208
1.27275273360953
1.203506932733
1.31683188443751
1.23737683632388
1.25163569561184
1.23528709738737
1.38345528379507
1.21626728860943
1.32371150578126
1.26266950066675
1.31881330010445
1.20677991274436
1.24334427941417
1.26088992323883
1.30156370432853
1.17212165851672
1.28367141771901
1.21395156536246
1.30757174320543
1.14990363368429
1.18444416990246
1.23462360205022
1.21429633167979
1.23805574623086
1.3378193011005
1.27165177214339
1.33294300283826
1.23952717768844
1.28379414914014
1.19601439207748
1.25601750652554
1.22527167426402
1.24676116465789
1.17764381109196
1.25580009382933
1.19381903029604
1.27724236281098
1.22174353194551
1.24162992890942
1.18807246339137
1.19546637924196
1.26133999674472
1.2584937667962
1.16116126223912
1.17524852432614
1.19204710928488
1.23031917308236
1.19683040670114
1.26608816172677
1.2009256966675
1.20430011937712
1.19495904669245
1.20681265266151
1.20383818330749
1.27318392619004
1.16607248982959
1.19182261358475
1.17929570574644
1.14675819695233
1.16062288763243
1.10285477830839
1.14122517116489
1.18902575186999
1.16017588156119
1.25837234704479
1.12469290430258
1.20692763734087
1.14366957515988
1.17244773158464
1.11570431778289
1.14068487745875
1.0848977687893
1.13057596045135
1.11435669900439
1.09608959143991
1.08537272935205
1.19684500934152
1.09796767317189
1.14360503997983
1.15374494635229
1.08020982915014
1.10978182298861
1.09919638109466
1.06555582880048
1.12926260742193
1.06749269380114
1.10835784895609
1.05051864781502
1.08166627560526
1.04012183477829
1.12764531176168
1.05059840428571
1.0732734150711
1.04409376644419
1.05415082469885
1.12063009238455
1.06260672589993
1.04023967983795
1.050214371815
1.00659074968143
1.05455815022175
1.00332967928064
1.08039082128029
0.990558396650753
1.01443047660143
1.01163832196567
1.0300379902482
0.983725948085369
1.03712011147312
0.989454346705985
0.973690044310349
0.949949229030516
1.02390497942777
0.972623355663638
0.966044799411758
0.977849308463839
1.00835448429159
0.950900752991232
0.991261458116462
0.92940896615652
0.961501936933153
0.92601863884876
0.930767055666763
0.919149033809902
0.953007175130115
0.922563971836255
0.934849426722802
0.929179184162139
0.952237222436601
0.878360680695082
0.912313677116204
0.896647096069795
0.909057597002695
0.894869628650043
0.90393288557091
0.88458445846359
0.898044342350955
0.862676147806718
0.893965544523041
0.875114693039405
0.883161781121175
0.81894244996133
0.879535315734236
0.834664023138231
0.852367623955553
0.867757324775212
0.845877687013749
0.825693846041085
0.836143829919204
0.802925759093069
0.842838666924649
0.799015858254057
0.821090222452415
0.781885894559736
0.819814766284447
0.80305223888135
0.809038640209247
0.772242472251652
0.777472083440522
0.766032932741127
0.781210218194543
0.752365420448636
0.786486156421813
0.761561601659649
0.769290542444734
0.741535162166609
0.76808212901536
0.748282348688867
0.754586588470771
0.740727236363364
0.731569017527317
0.707963687816739
0.736869324747545
0.736103117693568
0.733643537726567
0.733504492463133
0.724572450622579
0.691995668844194
0.711254723328149
0.702349793887505
0.687733940620797
0.675633762182015
0.68934779293732
0.69310061760037
0.678527049218879
0.657499519691617
0.687898799339229
0.682241304226151
0.676949125155203
0.66042117778534
0.671658819423082
0.652254437824266
0.669318033484553
0.638992283495758
0.652820940722749
0.633676128440287
0.646454475897779
0.635282916930491
0.635617675045906
0.613148850872068
0.650603111578472
0.613394124240043
0.619114633489272
0.616379192899251
0.634658208079693
0.602300949254868
0.609815058406393
0.605765195862688
0.605341431042244
0.588403153545835
0.592627841839615
0.596127385861762
0.584681704835846
0.575767884106662
0.587510554302575
0.573871766031345
0.588179394602338
0.561472163382789
0.570464832233758
0.55234142028373
0.557623479556724
0.55354605048785
0.560716850006928
0.529609870041517
0.556143425885763
0.547418799353007
0.557966054679226
0.529946666918259
0.541536660541521
0.530352015656139
0.545678360511169
0.523720578535135
0.530075489646931
0.522123282959272
0.519616394934458
0.519844883221517
0.51841940928716
0.521040416699213
0.520751906905168
0.511038828493169
0.512957611743087
0.511607905918839
0.50816349850222
0.496974373264722
0.512762432461246
0.492934180351768
0.499806886682511
0.482297046523416
0.493738510815673
0.477123525042724
0.487457512336299
0.482184634049638
0.482482231929515
0.467565236511199
0.473625598308138
0.47200707410456
0.467110116823332
0.455654598489617
0.476042933086859
0.457770933022784
0.465721430301656
0.441273171259494
0.454808279355322
0.450428807984
0.454264256330755
0.448022262008491
0.454851637576906
0.441645129523883
0.442797645646997
0.431128596716748
0.441733860458919
0.431489646718709
0.427953651258075
0.423260819456791
0.435475705485125
0.420367499854904
0.435810992541315
0.422629786816872
0.423333393377104
0.410423043088313
0.41592802819698
0.410760914224562
0.417073781781457
0.401904044226688
0.405038454790216
0.391844997397423
0.404571354180016
0.403655973931318
0.403454792379652
0.397015465250555
0.400603789403212
0.392398462508002
0.403018508619045
0.395284249504388
0.393682584144339
0.394619391538582
0.392463455120969
0.393538568701869
0.388773874106338
0.395348430466612
0.395464913385666
0.379416988941332
0.386446404965644
0.382699107856042
0.390765071527571
0.377708754402775
0.378956563442341
0.372157809907013
0.390895910078726
0.382261707447876
0.38576850395732
0.37063582452159
0.375151578234523
0.374109299262346
0.382095595688657
0.37989691426753
0.374856744585214
0.37185315416467
0.388325212302753
0.388224303387373
0.377946936385485
0.381810971664003
0.386919700353035
0.38319746498369
0.383404131196103
0.384550823242735
0.390327149435339
0.391223319975543
0.384889116373962
0.392146823250166
0.409469592307124
0.397002625032745
0.39781793413835
0.399904270050868
0.400089222809941
0.389574593860398
0.407567625726521
0.408271464545798
0.411280887131372
0.415817129371738
0.412024002535479
0.413374779566011
0.416002399823596
0.415404845572426
0.424231345811444
0.420123278845358
0.428097326875901
0.425058487527621
0.428278439626867
0.428008338123902
0.436522383688713
0.426871306038956
0.440077558339422
0.43247794504442
0.444576235658616
0.443451253763119
0.448360308829365
0.450513363912537
0.451158159438139
0.446941133121095
0.45730815173147
0.449376835838614
0.471015822121217
0.480350702683448
0.481387054495415
0.481775559976689
0.488146558594842
0.489143877785666
0.488476116716891
0.491995194467675
0.509221230865857
0.50391695257423
0.51466774049052
0.516747586310334
0.516669774271914
0.523867017205494
0.532900511896118
0.537003015954906
0.541187339620056
0.530442699614266
0.544907964868156
0.534671170068829
0.549219278741407
0.544295420218788
0.539869536261845
0.544032927852328
0.557473757875621
0.555019108292399
0.551841071287628
0.55419993806423
0.547440185151425
0.561487268112745
0.557105841137132
0.544466585737879
0.55607156167947
0.550690406268664
0.562337815647234
0.559916766641991
0.554977964641977
0.546980115808452
0.533416941181638
0.540649833560994
0.542123884574915
0.524839822644264
0.545094629862035
0.530054854758259
0.536481378359221
0.527530093503573
0.527744098815522
0.524815896546061
0.53586126054355
0.521156118779159
0.519994443457298
0.511663000077275
0.531254248356227
0.51517109616585
0.525800032416555
0.506954335274249
0.521252488864821
0.515382152101616
0.523512524828939
0.510173527503345
0.5104778975641
0.518692981558636
0.510087022469187
0.515926777415376
0.525750116115611
0.514117344812537
0.508132220314588
0.515051134880677
0.518929178419463
0.514224589714166
0.514226979300509
0.503521116598206
0.504141023937676
0.503453461473858
0.513982965256939
0.502604961686568
0.499410662741384
0.504807328485875
0.49644641853429
0.481568056977993
0.493083032291481
0.49281543343414
0.491262573390355
0.488416258008625
0.491958066897328
0.483586982166355
0.483728054020185
0.475742285461461
0.481470420478009
0.464212309838148
0.472047792224855
0.464591219604815
0.468200711611914
0.454493496296298
0.450188502177618
0.447369268596637
0.450569488040078
0.435925140395891
0.441024327227012
0.434699644757383
0.435942355957486
0.431712721622434
0.426687326053596
0.41648201938796
0.409667231068983
0.407542835034603
0.415467118298451
0.403566390702013
0.403283592139971
0.394089866163536
0.397474768501251
0.400210329864985
0.389053917204271
0.390132911448658
0.390316363970921
0.395569286721189
0.39364553586592
0.389762904053093
0.378966169495127
0.370171646366799
0.373808830432942
0.365220850952348
0.36017666685017
0.365135502379867
0.364630091334624
0.35651593205249
0.35987465521362
0.356371033297108
0.348687389591202
0.351983261713977
0.352355214623656
0.348372798816818
0.346044276902438
0.341340733782955
0.348098576515599
0.340199829938893
0.340002906657075
0.335877616995084
0.332777285558762
0.333162805283943
0.333954199329394
0.3270529934191
0.330361598164552
0.326506158622331
0.331120535569977
0.31976735910039
0.31718327172978
0.314759162755665
0.312783935866277
0.314572054047512
0.311409077776283
0.309605281090846
0.313399248976657
0.305586609939091
0.307744974107201
0.301908668731744
0.30569855275493
0.297526067065405
0.29992696237879
0.296787862602838
0.298809615754485
0.293045733630124
0.294079973805441
0.291810921205198
0.28841090207129
0.289022826288617
0.286232843573126
0.286751563588749
0.284783205803524
0.287057290331348
0.281877951996419
0.279143358620625
0.277587141490034
0.273736280186381
0.281317855743783
0.275197500377024
0.271945773535721
0.273639475154484
0.268202286768937
0.265820503984759
0.269402309759486
0.264007175260793
0.270264738071001
0.266976877889912
0.264295319675838
0.261630439229757
0.26723170208902
0.259340715635507
0.265371686165692
0.263504963265771
0.263687497865015
0.264198888013352
0.257570467749102
0.260871366911391
0.258443351377924
0.253361118149448
0.256375335212459
0.253248800236079
0.254059368085106
0.255454335131585
0.251323648414544
0.251263063495006
0.247632091451178
0.251354057762446
0.248123829675556
0.24479387681952
0.249148552279669
0.247596217968771
0.250298762855217
0.244200239654576
0.24154251425336
0.245177862044334
0.245755358449479
0.24355443120259
0.245606910295389
0.244994762305259
0.245679027921222
0.241591568286254
0.238814219744309
0.241224938258121
0.245069648748266
0.238393301954125
0.238603935007481
0.241042986750553
0.236980858701379
0.236591296427347
0.23589477403041
0.235437766782883
0.234906986186627
0.233605399644255
0.235948414527396
0.239253915521557
0.232544294819731
0.23728061693029
0.236067657037888
0.227985486534329
0.231422648615567
0.227787164520557
0.23217773425565
0.230026398084614
0.229982744579817
0.232387831614859
0.234114755681325
0.232624136420498
0.23164776309911
0.224669017795993
0.226771610999521
0.226075039652924
0.224925182922301
0.222895315054724
0.221954661033045
0.225485734574224
0.226495949863488
0.227917711573672
0.223365377652428
0.220399129462825
0.219602703865953
0.222414515568896
0.221402591744813
0.216985072899499
0.215818603923785
0.223829540955012
0.217128118919088
0.212895990178685
0.217710180641874
0.214123499557206
0.215612258871398
0.215100017045356
0.212858684718019
0.217501065467633
0.217814608113208
0.212693073930131
0.209912875694351
0.213330703676614
0.208126988895632
0.209581364309135
0.212469534483593
0.211818016517363
0.208284652823808
0.206046351866356
0.20830526823279
0.206796520764773
0.203490213520146
0.201638917631965
0.199088613069226
0.202447406036815
0.203965273493944
0.205211870216629
0.203958854687853
0.203977844957397
0.198274418488354
0.197823010736063
0.199341324223141
0.201498737750233
0.201028282966957
0.197109119479385
0.194089026542164
0.19178659102649
0.195756145858522
0.194538810070689
0.191272934544252
0.196107525232748
0.194500676194259
0.189807848887056
0.19041120258941
0.195302303465758
0.190038037116481
0.189367318647305
0.18695984377379
0.185999933142347
0.184770088776879
0.186310749840451
0.186477160163287
0.185144229031927
0.183202279739763
0.182170183464809
0.182407488047096
0.181047944197542
0.180803538207557
0.182285484065801
0.180726827638702
0.179274742804555
0.173045737022969
0.17585053873841
0.177868904009062
0.172893972324553
0.175057062987173
0.174174834321128
0.16965312748615
0.172440122469976
0.171707418648988
0.168722518792905
0.167848438533649
0.168619024955313
0.167266999008231
0.167323185126833
0.163493964444843
0.164017936745994
0.163560620018773
0.161029318374968
0.167755877620394
0.16376435534545
0.158540183573488
0.162206168508025
0.158728444558824
0.160082894240194
0.158642492655803
0.158311553589643
0.156389764526447
0.155706975185488
0.158160097592967
0.156133732942301
0.154445715282501
0.154049787785216
0.151524552658857
0.152126723666763
0.150435152008278
0.151133896961807
0.146691442006911
0.147933226785119
0.147328910176014
0.147287129370879
0.14349178758843
0.147027377947722
0.144902703649067
0.146112834323057
0.144426339218035
0.143788866314376
0.144292107911357
0.14511515807259
0.139706709135727
0.143577926495362
0.14131343960652
0.144076844556516
0.142011302956803
0.142849584759205
0.1407894170608
0.140517470226485
0.138519383933003
0.14027149174766
0.137292292429255
0.140395153754336
0.135896235077498
0.137385453572881
0.136603054743142
0.137342107778445
0.136440152059986
0.139221204508273
0.135812937749249
0.136785954231159
0.135298320785856
0.135544862789876
0.131305375240801
0.131809299824281
0.130494228606248
0.130636386538148
0.129271738393727
0.133817563765069
0.13016702826535
0.130118312954774
0.131925831160628
0.134699751563098
0.127921686446231
0.128016142418345
0.130374044116059
0.128083537427153
0.128570361902307
0.128683825015772
0.125874874899517
0.127921759150196
0.125679695422311
0.128469041709393
0.124170733125007
0.125545163392784
0.128203802578817
0.125596224311148
0.125335627581409
0.124920519523574
0.125732188788239
0.12858001116533
0.123709844376829
0.126077295348004
0.124277006853649
0.12495490795717
0.121783275693068
0.126013751156929
0.12692058187397
0.12359080297796
0.119527040623337
0.123106950021684
0.12193008921795
0.122377936850157
0.122297332101578
0.122841532864724
0.122474425270701
0.120798896475332
0.12044780182876
0.121176993175078
0.120340537758193
0.119538806446717
0.119255491503652
0.120313107628191
0.116835123552775
0.11916431117628
0.117083882698504
0.118610277241728
0.115281925682121
0.114627816984398
0.114416275777086
0.117623366433011
0.113348637247933
0.114295297157918
0.113014766372959
0.116978295213501
0.114266818116763
0.113323636213423
0.112215413324141
0.117929557922735
0.11270529990247
0.113413625068388
0.111311046477179
0.114795555689259
0.112121647424014
0.110027222850906
0.110093363274455
0.110804839777293
0.111326248822623
0.113216364699189
0.109580697521343
0.110274712618495
0.109125023641499
0.112654701102489
0.108046073151078
0.109668342436956
0.108433520279033
0.107977119643333
0.108077735228115
0.111381714772045
0.11057057222025
0.107398510250368
0.104295712947917
0.10999875310994
0.108150583112159
0.109417868821591
0.106010291366082
0.105318791144882
0.105085772936384
0.108911866833925
0.107111513981298
0.106773211527999
0.106174040520415
0.110345388430871
0.10541206606373
0.108120239086113
0.103932416032702
0.105392760987078
0.104231807067168
0.106718715226078
0.103303504059269
0.1056271658259
0.101647519571372
0.103323087323462
0.10099657711379
0.104262723215184
0.102180566633318
0.104396006258943
0.100177352262172
0.0997499787866738
0.0981336311188128
0.103316364977171
0.0988820559076948
0.0980905696839697
0.0981388493951498
0.0987351898509189
0.0961791375885163
0.0998138066313188
0.0980440892668369
0.096977818801138
0.0922357220291997
0.0968571885915386
0.0951277406456311
0.0978441543052676
0.0936074893457752
0.0982354346111855
0.0936335930751066
0.0966360384078395
0.0951465277965576
0.0952058650211634
0.0924081526902642
0.0940571335797779
0.0939821194784538
0.0932204614737932
0.0896288032207276
0.0932566196568969
0.0874976752558858
0.0898509840879876
0.0911199939982224
0.0903449937117505
0.0893208842578205
0.0903932680997784
0.0870383041341131
0.0896557014847125
0.0881334169831121
0.0891063538401895
0.0871867188014931
0.089959490483493
0.0856073152722903
0.0874251368241492
0.0842835473000178
0.0888482470173254
0.0865847365678246
0.0872389944784368
0.0851698873872798
0.0889470177011319
0.0845866114210043
0.0861034111918342
0.083663123924215
0.084494675873295
0.0819321794622849
0.0841396649535232
0.0813270582443072
0.0834193502101539
0.0789759697205265
0.0822898890486915
0.0793615836339319
0.0805348810002553
0.078274976433573
0.0812403483011988
0.0786038137610611
0.0808132433697309
0.0779531005248714
0.0827258850043714
0.077349935495129
0.0805012585114621
0.0785865331028934
0.0807400409340215
0.077221526964836
0.0798121196205653
0.0757901662896687
0.0759900223872227
0.0759138363202057
0.0770449166350807
0.0743839240983624
0.0757594112165949
0.0737899943978076
0.0756547492349844
0.0713841161394231
0.0753174305596367
0.0736223291563613
0.0758697806139391
0.0746279176292416
0.0759444949719221
0.0717253635748994
0.070887219595576
0.0740817429671595
0.0756208664130522
0.0702681162536994
0.0729080007890826
0.0727278997713448
0.0722806149583904
0.070227958406824
0.0753587367382127
0.0723338283607695
0.0736607115173541
0.0702259698210515
0.0723912258679844
0.0725787576661136
0.0715730660469824
0.0687921539690554
0.0736475789895972
0.0711411938735528
0.0765503070512666
0.0731741085461319
0.0725567418785828
0.0701673830782802
0.0738207105820358
0.0670353949634064
0.0728095618496637
0.0707772526993501
0.0713146851042399
0.0696232820496218
0.0755112829708557
0.0649873092936214
0.0687991595424309
0.0671316416435775
0.0708252712613077
0.062653932756323
0.0689156918298314
0.0670920512278309
0.0692910957420386
0.0588451400589645
0.066880474818595
0.0636497330926643
0.0668609974001883
0.0614996298080282
0.0648037104382534
0.0576727971516815
0.066228141890298
0.0601128752159415
0.0658188737012913
0.059587799580556
0.0674426962815439
0.0629059800186701
0.0665806202232657
0.0625990844027437
0.0681210365183283
0.062042179237592
0.0703983024790709
0.0592637485818452
0.066145708469663
0.0589756616939064
0.066829698922722
0.0566712968456473
0.0636926637181356
0.0592012066080451
0.064876352639214
0.0619355904316595
0.0612243149096391
0.0573897966385443
0.0627808556905368
0.0599533972309995
0.0615577434973441
0.0621169004041064
0.0596285366679842
0.0632035475159224
0.0615439742345528
0.0653498866013044
0.0555924948194645
0.0713495343125187
0.0543237758299239
0.074943070668162
0.048862571338772
0.0729361202518116
0.044835009793704
0.0778001836018332
0.0413123933273059
0.0853340622173428
0.0434763052781447
0.0887509996644495
0.0427841350090061
0.0900553740320549
0.0429478842698828
0.0845166455517875
0.0496473249739826
0.0800231487364852
0.0538609403188154
0.0677586644455566
0.0627242730607504
0.0620006294876655
0.0671789372576547
0.0605915479653221
0.067498032336307
0.0585801830812925
0.0685392445112436
0.0596829149266079
0.0636161637170727
0.0620617884542465
0.0623955362689263
0.0653469395881179
0.0596023099685191
0.065318639132727
0.0616505880528306
0.064071087219241
0.0624780735237565
0.0614995174056289
0.0627322790780602
0.0608342182387455
0.0606071132446697
0.0589024417816368
0.0613057694351593
0.0586673765251078
0.0611353019335897
0.0644087086051378
0.0635805497676716
0.0618277437621775
0.0632966809550763
0.0634411587709367
0.061272054670249
0.0617022277992048
0.061178177562214
0.0612846837987101
0.0635922808861653
0.0598317578131998
0.0597994376061538
0.0610097723425915
0.0625990197749283
0.0617995135577255
0.0607154740903309
0.06041274761796
0.0628681915754317
0.0616548465150133
0.062322003740332
0.0627473946896858
0.0645724108470317
0.0635571686410763
0.0619872838767208
0.0630269593655879
0.0624808102405745
0.0611534141824798
0.063690476373282
0.0607873194069568
0.06322897337451
0.0611737114595495
0.0610643344616435
0.0615654525159028
0.06414046155989
0.061928010301603
0.0624970701212826
0.061321924908019
0.0636896613533917
0.060683903174434
0.0629777941644114
0.0629526354266452
0.0626682790229885
0.0607600211922357
0.0663011110296321
0.0609621651339694
0.0637065678063412
0.0621923852338087
0.0622487699143498
0.0616982252071465
0.064046556812009
0.06019525354087
0.0644567162658726
0.0613159299793463
0.0633825677030367
0.0620620414724985
0.0631753377381695
0.0625669069478988
0.0637066370496652
0.0613877675694198
0.0647889053744505
0.0604817489953431
0.0646594793502318
0.0623819286460977
0.0638328453235915
0.0638159786818703
0.0651920104639208
0.0611730979192945
0.0652197262691207
0.0623316765332967
0.0637904800121692
0.0633680853901768
0.0648697684997177
0.061883253182624
0.064479299146063
0.0637495030233965
0.0648001291538098
0.0627367261808347
0.06419531016779
0.0635078988957803
0.0668020866662365
0.065042225610346
0.0673490865834629
0.0647402498073828
0.0667044868630092
0.0647469473117321
0.0666174235128869
0.0629301156477135
0.0673800750878941
0.065077604143697
0.0650282076300879
0.0645398225139939
0.0671535697964994
0.0670864743047481
0.0674076217328293
0.0652988560141442
0.0682978324852965
0.0657163598853515
0.0676795462139024
0.065865995691248
0.0682866534026404
0.0640206397430372
0.0693859263070881
0.0663625334785598
0.0666624936570241
0.0663914824604731
0.0674343643151956
0.06684160975134
0.0694222532458383
0.0674213720984191
0.0676413447291929
0.0667259305063521
0.0682550235774083
0.0668261181620491
0.0686036875049325
0.0689310107973407
0.070922960080094
0.0658593900098243
0.0684751935855223
0.0681712589829216
0.0701151751146215
0.0677601337854444
0.0692875217240338
0.0688526977489306
0.0703122745695115
0.0675360357691087
0.0693132394411459
0.0684365517392106
0.0722239296751174
0.0697548099938191
0.0716327387929473
0.068636542583005
0.0721853148591635
0.0720398262001878
0.0725229718066669
0.0699611519649766
0.0746992531355148
0.0703556065439718
0.0728677800640546
0.0715631830703331
0.0756489527080722
0.0720181397175797
0.0726088032917501
0.0694330745415024
0.0741250962225135
0.0720103076543016
0.074063017883274
0.073438330064095
0.0728199559555134
0.0708649459537329
0.0731278825612279
0.0707592253007925
0.0735939017142278
0.0711096741320536
0.0750448765827968
0.0700255845842775
0.0730616572231567
0.0687073979121246
0.0720773735860471
0.0711271477270506
0.0730825147375108
0.0699616536518143
0.0725192196104842
0.0704208662041754
0.0713058882962834
0.0705008379967304
0.0735231466386166
0.0679221072422326
0.072076758379132
0.0707254300129181
0.0709616411500955
0.0678178899519781
0.0721778824006677
0.0680371038176537
0.0732014581567129
0.0689338753478195
0.0739348410342056
0.0686857770537879
0.0700960470997878
0.0685881706471955
0.0718100214594996
0.0675008716955477
0.0713589087332965
0.0682221747639772
0.0711095026779882
0.0682266995343312
0.0668913744921474
0.06865677520987
0.0705939577656228
0.0673280771599793
0.0711915773456894
0.0677000271257146
0.0697304044357136
0.0669519518991354
0.0700705022861926
0.0666588766062921
0.0679471460240175
0.0690804904990706
0.0699367316425551
0.0652410437291658
0.0693861224731777
0.065112226336978
0.0689625335339471
0.0676390590468284
0.0699933681876714
0.0662308995158606
0.0692283321701682
0.0671428595734167
0.0665116868513159
0.0658937947182143
0.0708511496588242
0.0669053176207216
0.067875008537171
0.0679532992054682
0.0691724723364745
0.0668571133452346
0.0692501822737622
0.0656539106977728
0.0706491805530444
0.0662237019037283
0.070457834375207
0.0664200497758717
0.0701507034205554
0.0668558825535396
0.0686308063997798
0.0685382004074531
0.0697331982010703
0.0663975624596043
0.0692228521373463
0.0684111852619654
0.0702252248217164
0.066040569823912
0.0693834210531254
0.0669298734354899
0.0690789884999861
0.0665934801380507
0.0680142143735661
0.0656496190485627
0.0675758451932485
0.064530185896361
0.0679348657740463
0.0694362101354687
0.0704511238233725
0.0644611999822488
0.0684865775865534
0.0663811776021411
0.0688219671714378
0.0652577699360294
0.0658995422044237
0.0640717700360724
0.06714162304514
0.063822006004028
0.0692268715912655
0.0655347185742593
0.069897563545964
0.064991546843519
0.0657115014271603
0.0620927450288432
0.0668438365608203
0.0657073880550653
0.0666504461968623
0.0612996457340319
0.0660134630437837
0.06507263552354
0.0658671918095681
0.0619187110286876
0.0684554782159577
0.0656052143585111
0.0656288000082264
0.0624910761075142
0.0637975407810238
0.0600951757351847
0.063136469255982
0.0609404525596722
0.0640952086667053
0.061999016839626
0.0625656281283413
0.059560958172314
0.0631397933169767
0.0601525402312676
0.0629027130490014
0.0584232601537548
0.0626628902114403
0.0606333910385874
0.0608537272471308
0.0584379670368571
0.0624764633712847
0.0570730805853248
0.0601266492319984
0.0572267403004136
0.059270041127453
0.0596406700512674
0.0618403001010781
0.0624558168968422
0.0629205323603522
0.0549475159396551
0.0594092777131917
0.0546480661300478
0.0590832384527466
0.0536454720473557
0.0556752185183912
0.0544168529274262
0.0540897238054409
0.0537682954424228
0.0575967599250552
0.0546756659964033
0.0569064002975198
0.0524617771588686
0.054961749154016
0.0541467656204697
0.0565028203032696
0.0535000259316301
0.0546289431072476
0.0512478370513081
0.0553567043252844
0.0511622609033735
0.0552519374555493
0.0497413265509519
0.0549123790459395
0.0568330843055287
0.060833700201073
0.0546888595050645
0.0533928016409109
0.0535964487649825
0.0570587989165132
0.0508537609508485
0.053091199812113
0.050940697793064
0.0527550915672872
0.0520210289292195
0.0542013352060252
0.0517423462675456
0.0526006357506385
0.0524520774148915
0.0532430226281621
0.0502739616417453
0.0547102465049773
0.0500853224107048
0.0531976529967133
0.0509791127759488
0.0536727495106517
0.0503518621866164
0.0500628440570094
0.0523285467066971
0.0548180798105368
0.0512825581152702
0.0588366864417904
0.0545668662448062
0.0541671118404663
0.0495798591913921
0.0502285578638714
0.0483371124758923
0.0531762304218448
0.0509351017383393
0.0523736393655504
0.0500018364005565
0.0510174709226982
0.0490435093218477
0.0521312228298011
0.0509836764242594
0.0501743274686996
0.0487422447856823
0.0520124892865104
0.0457458665032086
0.0526185665643067
0.0480815089490799
0.0513257673367323
0.0495690661148215
0.0511830925459615
0.0528017223341393
0.0532948576569942
0.0467546920044917
0.056938401287622
0.0621105969713024
0.0557103833619346
0.0495465297381962
0.0519646294070202
0.0453925219623589
0.0511172202071397
0.0472944964480955
0.0489875255625077
0.0462536437777292
0.0506915908286284
0.0500150189027978
0.0504865300905031
0.0506944343232366
0.0522596422464778
0.0461279834053753
0.0494014557465639
0.0472765954715445
0.0515034334897631
0.0469093983610941
0.047236534999982
0.0519496717149847
0.0635510404951211
0.0532283459813064
0.0528106543224533
0.0483123516838755
0.0515249567034615
0.0617216646998086
0.0607053316999024
0.0473764480472675
0.0506679648004659
0.0474180479746768
0.0487836700574085
0.0458946857177389
0.0474837424995092
0.0491243103419854
0.0553302466888742
0.0511007812765246
0.0531606101141731
0.0472085336912076
0.0498712679702807
0.046549102575586
0.0502742913431129
0.0452336382505985
0.0482726658052743
0.0455298286900593
0.0464326473007939
0.0456170804961936
0.0463430604978148
0.04586513533595
0.0466195175660764
0.0470723085639537
0.056089864147504
0.048048719615312
0.0507760089150481
0.0486214324424495
0.0449069104403003
0.0517526383765809
0.0630383822130751
0.0468311594673151
0.050463479645927
0.0448839469040552
0.0491075757110696
0.0475497059475216
0.0491081019655947
0.0455353300098605
0.0482366392227999
0.0422845035773001
0.0490172576975402
0.0442639581062789
0.0480703363505072
0.0462380419237923
0.0465263083188007
0.0447073450483831
0.0504420477040488
0.0435493847164207
0.0476891417024034
0.0473753421320098
0.0512357334655415
0.0554337203097518
0.0683272676074716
0.0596801016475072
0.0609071796163762
0.0523797935487124
0.049202783253112
0.0477474849818613
0.0494065044939234
0.0454614763947729
0.0515074139278753
0.0452170486574049
0.0503978648305116
0.0470512763605838
0.0498877468387161
0.0449083451895039
0.0486366587899404
0.0446896157299822
0.0461798384935754
0.0423955837094288
0.0491325421118008
0.0444691850667118
0.0471972663851198
0.0431591520949809
0.0583106006387007
0.0517858088477715
0.0515921338764705
0.0453569954400414
0.074834266465045
0.0671368497748809
0.0547183364486647
0.052712429577209
0.0501190825340334
0.0469860207471334
0.0481556850396896
0.0473760988055877
0.0536496304504958
0.0490444172925765
0.048971281854394
0.0475724723447741
0.0487454928570995
0.0460941193189005
0.0475146126015435
0.052228611434313
0.0796978998731423
0.0556083235062105
0.0523801248703492
0.0465328574751338
0.056623355637066
0.0671439591057826
0.0541632934899252
0.0524911403014303
0.0519661991647395
0.0482119484133578
0.049270306362337
0.0459740680254577
0.0481991270769478
0.0508087697070471
0.0535784644939412
0.0476735976364216
0.0491230666920557
0.0452528798858388
0.0530806902945249
0.0509791065344956
0.0641526963574931
0.0568605382847833
0.0511403837387724
0.0517939984066264
0.0537032421808631
0.0510174599246152
0.0538437883865323
0.0477940617112069
0.0505893578082079
0.0558188799728898
0.0650079290477271
0.0545970690931029
0.0671775543417089
0.0582870826329607
0.052624508761346
0.0535460439499764
0.0628949607505473
0.0557136082083346
0.050677368937853
0.0623128523851796
0.0793884003085406
0.066528164476517
0.0739032793663937
0.053286450394609
0.0578282906663487
0.0490514226669381
0.0539837409809767
0.0529653942577084
0.0701568857695478
0.051424761986504
0.0578931566236274
0.0473338426003704
0.0715433451837421
0.0647827754975429
0.0616185109746078
0.0561248377903308
0.0553978526469908
0.0549113259343748
0.0688523224711887
0.0553366438279325
0.057886886019924
0.0788133160305679
0.0945877640216751
0.0762016565968033
0.0632021571020147
0.0537343232402921
0.0989300799097459
0.0585105296034961
0.0634644255302909
0.0562542700640109
0.0616364173500873
0.0552760573288986
0.0650096717802399
0.0825939236699749
0.069202508275043
0.0567911946492839
0.065993134535901
0.0546431809429271
0.0818299722191453
0.0676442649898057
0.0640644716345703
0.0569611752860213
0.0635399973048807
0.0585067930997819
0.110798596110076
0.0768764653877485
0.0825466325191386
0.0841561810465278
0.0855120187841771
0.0755868321303331
0.0743344290730028
0.067791710032388
0.0854296914577152
0.0836549241993369
0.0736339160510383
0.061664557904454
0.088636380813827
0.0902769233851802
0.0737433156361409
0.0743242926091267
0.0694863571487917
0.0733680609227823
0.114094027393217
0.134009842365277
0.106288089746291
0.0791089285639626
0.0824571036436378
0.101656895411229
0.0823599904064177
0.0770860849980414
0.0784039477417027
0.0776219013706426
0.0787740923473073
0.0776256587550462
0.0933018797027813
0.082935819898233
0.0849507621496749
0.0804725554601855
0.0868253601853223
0.101093682423116
0.140581115322117
0.120958289641464
0.0989051037397397
0.137583104157652
0.11840143271125
0.0995734064036202
0.0945679072125588
0.0928594355735107
0.111254891315267
0.0980911414014531
0.101785555651281
0.0951195023761932
0.129878562842236
0.114875404904081
0.117830820916433
0.126262837717814
0.109963461828533
0.120458419786948
0.111857608185914
0.282234160037941
0.139401181820462
0.137809990780994
0.138065396608228
0.137924774541898
0.199808725884317
0.140639387927488
0.135500974679025
0.138038412636146
0.136205118057611
0.14523637697557
0.154672473972713
0.155254444523037
0.171717615922983
0.159353098286654
0.161878962202662
0.189328614046742
0.253569125546519
0.221016633597468
0.200143254838989
0.181391207191049
0.208765221049976
0.206107059488345
0.197448713076908
0.196424119006406
0.203140094017192
0.212722095693561
0.267883183546083
0.213568184078984
0.22747164919235
0.226106550308522
0.26627224940509
0.223821512427036
0.300855619476961
0.266114241944385
0.255653460128158
0.244349098587566
0.258731409286097
0.260537430293792
0.261161448715757
0.29707866944789
0.287314592374895
0.276077523701782
0.282545030792223
0.274837937913918
0.287856455154682
0.28491542308528
0.297881534569687
0.285658589593024
0.36019740867068
0.30808907734919
0.470131348216558
0.328738220159339
0.307812107264063
0.307603604468026
0.313262927455291
0.353827729975268
0.345455316003415
0.35127267913527
0.337088852216471
0.305448127231651
0.318239497736403
0.308354782938286
0.315112155189226
0.311667929901976
0.321490128585923
0.299229785437137
0.356860669934009
0.309616559603329
0.368582941316783
0.379665262333695
0.316349047175059
0.309088839612002
0.309183380349105
0.30124725145283
0.302012376768042
0.297272251841693
0.306094781270713
0.325589262427237
0.289779363577914
0.289752508992582
0.288631473500227
0.322932900970868
0.318879602620075
0.283011572172954
0.296929932294664
0.274452785739092
0.283857212812775
0.266935814663375
0.285120502385637
0.325398998773274
0.276296944596422
0.267855548635557
0.265089498304142
0.259780731007679
0.261742412928703
0.255090422771322
0.260376608773867
0.25878633226364
0.254697527595198
0.258257544352754
0.25474701965969
0.24797106252231
0.248280122353199
0.249754800527946
0.247174909040185
0.243678232070711
0.245229707576198
0.239407612603268
0.241690012365295
0.234485466684543
0.239205470430194
0.235955414912709
0.245690320247507
0.242056455319135
0.237981167612693
0.234811678163156
0.238350891867492
0.235602670393303
0.237021223844599
0.227637996197792
0.234375950789879
0.233121074050638
0.229524593652658
0.223953956658072
0.233334667080152
0.223742022754738
0.230152799093072
0.222639694008814
0.228678544597496
0.22010494981458
0.236118528013135
0.215779005562291
0.289126269183267
0.239700472118254
0.219742370385117
0.219812982656083
0.210429285356222
0.216970318567927
0.203676903228009
0.261976928222391
0.239136809815256
0.213580919353696
0.213328329078931
0.202235934951349
0.2220341346517
0.209836017559888
0.196500629021225
0.203301240511387
0.192363501345416
0.233028130328046
0.280927612764198
0.273994169644272
0.29110259674177
0.209178519069656
0.195407753007153
0.190792762697967
0.237216906714134
0.174406558707019
0.194956758864983
0.178376144173458
0.242079511821782
0.197658169826841
0.178941772980955
0.181001585450578
0.177483788302278
0.205002209372278
0.20980728823873
0.189800949578114
0.201656807214935
0.229849620774475
0.203264099608553
0.264746615589379
0.245377765064139
0.210840465297117
0.169330412144182
0.177614513702635
0.176911668608301
0.171437903924556
0.248311285637613
0.173877114066201
0.192276071791886
0.167190380543444
0.164059653186979
0.168978433932887
0.187081405108931
0.186184789092672
0.171427562491352
0.216487898559276
0.156408109527111
0.189115885191919
0.184139022591136
0.210842208469648
0.22372747639469
0.170929595562312
0.164195257587192
0.194885697756899
0.216052589957169
0.16734098892983
0.187018225198636
0.152169512252236
0.164197059298191
0.184063001170459
0.161136117260354
0.187270421603706
0.183210957786452
0.190504732710455
0.245680851569904
0.232646901451827
0.224062438396688
0.175767214423665
0.157623296029464
0.163237461334957
0.164865777025757
0.174346956322066
0.161678933523293
0.198318343217714
0.182096628001833
0.159099225483732
0.239970454912245
0.174322938908227
0.173154625218788
0.175751989322878
0.176639797748399
0.183968736072407
0.212097534096665
0.228492527233267
0.213357221797355
0.204643976534347
0.228849791018956
0.192025744500019
0.206460425534909
0.195892167440748
0.212577683851159
0.205939041852712
0.235215101463071
0.222866249683624
0.230672291606359
0.226924543468716
0.239833259732512
0.249766040594818
0.290301589078899
0.236896171027179
0.311951746136388
0.281687893149731
0.347048325937555
0.290608443598135
0.286155468248321
0.2909661014343
0.298080804632577
0.299776462336488
0.307042094430381
0.315440707868835
0.362341551180039
0.316184263838329
0.338805076139957
0.325863911250071
0.34488519095414
0.331890028042205
0.391019488277095
0.374315359716617
0.421371357785608
0.418422947236363
0.380430314504799
0.382833777318143
0.356269095674218
0.380504810170431
0.375766520139517
0.364109571296864
0.374215380460944
0.364134537854892
0.40616029828255
0.367223867132297
0.376480073551009
0.372565564435933
0.379748955475184
0.376327007497315
0.386731938507259
0.380661773938241
0.380251193965987
0.378761894957388
0.399825391847929
0.372369351739565
0.479402652012176
0.405229414568598
0.404092010243725
0.408845144605781
0.40426267084164
0.415002422466578
0.414016944027043
0.434965093451807
0.428879369621204
0.419810268246653
0.431911939516219
0.418335909274282
0.431165138245364
0.439367892786539
0.475359322853493
0.423719358739909
0.456256069777149
0.432870003757653
0.464972656298913
0.501556808900859
0.458104319409331
0.474194206854578
0.451149765991804
0.454346285604934
0.4493685172458
0.456343087465273
0.451955312741969
0.459084614516966
0.456459158968242
0.45823739657021
0.46053416285833
0.448743160943758
0.455461589180631
0.444850136261626
0.480555892633529
0.450273690468112
0.45269275596523
0.446427455818609
0.456480219574921
0.442562096375421
0.472708018146076
0.463608208917289
0.444731990461752
0.455702893742386
0.455626756614889
0.456640952408892
0.454717034004132
0.4333170121197
0.446597354943549
0.440752406546128
0.442615048109406
0.444737311229727
0.450066276131055
0.488249727704158
0.457517125181084
0.45597110740593
0.452488341914763
0.458854491676495
0.455312962160607
0.463175545088909
0.464826909659764
0.473584097675852
0.470143102347061
0.475263295004069
0.476704986769254
0.481993659448597
0.500074123326098
0.499219066733776
0.49812710050186
0.490815838437595
0.491124152764656
0.493356228525351
0.484922414089341
0.49873857893216
0.488370273489101
0.483718011913195
0.483077528169726
0.488865622261553
0.473731837881708
0.517707978702758
0.48043785595247
0.487265387280745
0.48001747786799
0.466414228035072
0.472156234579
0.459698210875611
0.467847606200139
0.459809627809037
0.471278818552057
0.458456908841616
0.455499993955503
0.448017967173834
0.454019543199302
0.450456256667312
0.455765271563794
0.444590187431847
0.452751300800137
0.450698602091317
0.446688827679413
0.443998408618538
0.441768826697494
0.445396257469761
0.436199601328396
0.458997614687569
0.467520560013039
0.459908913171391
0.452924991073559
0.438355011309222
0.452564806661536
0.43484160197516
0.441006567083023
0.428150509082431
0.441042018938818
0.43354677086877
0.438180903934502
0.428016089012742
0.438836230056099
0.42641894838775
0.430831574508832
0.415815005307682
0.423752309146136
0.416996464920862
0.421505311208464
0.414943831647609
0.417613253799709
0.41081717547203
0.414327862755623
0.414360097170906
0.407107772058762
0.407608930529819
0.398166356763373
0.403796035649841
0.404216437604955
0.402473067775264
0.401455428243121
0.394790949449507
0.39293406918455
0.392168880176962
0.393536623165905
0.390114485419729
0.394158495875801
0.388139283625741
0.38837856960974
0.385878249762015
0.388159093918425
0.385336426717738
0.381080854213232
0.379962374253719
0.37593739726344
0.371067837256117
0.371385130989447
0.367870976304021
0.363501261054884
0.359714901491333
0.358148000458297
0.3535804999979
0.348969761695987
0.346003185152225
0.344968373069171
0.346160760845891
0.345397665977783
0.338333939443913
0.338090640812671
0.335294854423993
0.336044573326825
0.331566833134463
0.334802644733138
0.33403469342995
0.336084067005788
0.333338489041136
0.329892381781218
0.334176139779028
0.33225477652258
0.333507017034088
0.32972459413633
0.331905856410199
0.336060374573609
0.339413932289898
0.337428721316749
0.340926613619468
0.339072256555684
0.340899393355474
0.340955260549263
0.345977137785726
0.346724419239544
0.345607960706391
0.347630575098917
0.346705847923886
0.347996163012586
0.350133509207139
0.349415873505356
0.344069087922342
0.351017456006505
0.350175641294746
0.348437982676852
0.34585623728126
0.347661235659337
0.346972140464709
0.349338332503202
0.346049592972334
0.346162738369297
0.340983439828271
0.346013712532165
0.344293014444011
0.342951679288705
0.338550934074567
0.341904904289334
0.341736938529463
0.337859199552134
0.338199068124776
0.33782062200397
0.336372130096693
0.33629313946018
0.334979121279711
0.332838914908481
0.33088425911881
0.330115457391262
0.331328192391573
0.330493123211293
0.326353904224006
0.324910162295194
0.320906516761418
0.323485558020139
0.318898251359567
0.318150436081567
0.313707458695463
0.316741197930588
0.311597902264946
0.308103381341327
0.305105345827659
0.304798589505286
0.30021457939465
0.299580735951921
0.296475385240234
0.294488566097904
0.293359385167404
0.291950000497519
0.288323637782632
0.288386708881559
0.285946993436177
0.287860146372871
0.286781471717197
0.283747626365811
0.282803844001081
0.282686054809706
0.281571799957805
0.282925582699239
0.282041036564354
0.282431754725742
0.281636992004644
0.283281353775317
0.283047587097436
0.284133411360602
0.280608710488046
0.279703928182413
0.278304264806794
0.272976807247357
0.271719483799976
0.269215045956626
0.265773291135884
0.261459292211495
0.257836273059153
0.255468379579635
0.250631913165478
0.247156093635717
0.242092459947466
0.23949316092289
0.23426589947793
0.23577618773129
0.234972286905036
0.233868626577016
0.233702239720224
0.234682707260049
0.237639654708242
0.241200687845285
0.247309028816492
0.252194609749129
0.256754483823754
0.265274924628231
0.274820626635582
0.283912862752521
0.295773256518205
0.308191890583705
0.318650010564203
0.334195340468978
0.349109590641841
0.36617970466125
0.382238048814136
0.401497753102234
0.416886422275626
0.439987065975646
0.461803536854883
0.48632759056132
0.508851359113052
0.531729700906957
0.555858924729607
0.578744416844555
0.603945309206774
0.629223022507959
0.652233496056437
0.675480768790503
0.689800058629605
0.710901319742277
0.727047458125486
0.740031692709783
0.758295029203277
0.775653688406522
0.777754300648695
0.7810099873132
0.784592034246244
0.783016726041008
0.779592677551721
0.775770766467035
0.770864553650003
0.77086738956168
0.756644205699023
0.754453402420326
0.740584759807076
0.732907413232144
0.721940453700591
0.71463312261727
0.710092195826809
0.70108590165522
0.697868891151794
0.693904431770868
0.693772963685597
0.690515850019483
0.694505415831034
0.693936848140622
0.695466379620247
0.699566518605335
0.702980837955512
0.70505819088919
0.716604747057366
0.723565998044113
0.736199847152864
0.740592308372043
0.753595078853363
0.761286846921567
0.760871840061736
0.771749368761379
0.78025866738209
0.783481655085231
0.794226591465604
0.797011753660131
0.796749360208762
0.806156390358894
0.81096444206565
0.812235381935887
0.812246003962895
0.825075379988093
0.824819831603023
0.82047379539383
0.826738790727165
0.826596224932121
0.835262117676635
0.839557618146495
0.846397015507982
0.840894964722496
0.840425415079236
0.852499019993531
0.861311816077609
0.86280846886732
0.871426747208635
0.870923090497241
0.881211561866515
0.882364227029092
0.900434006591295
0.905145045056312
0.912256907251261
0.920304034731346
0.93283841994933
0.956189373791687
0.963234665959859
0.982123091274896
1.00549298323437
1.0073372358362
1.05667149710297
1.07937132773828
1.10237795968258
1.14082749022018
1.15855535783452
1.20748585105323
1.2370723224644
1.2372267174706
1.25060561623321
1.27959198523986
1.27044748227273
1.3122882322005
1.32563866348718
1.31616506952904
1.31956727172864
1.31488156203045
1.30953180286856
1.29630282932398
1.27538731950449
1.33106940263072
1.29796413285431
1.25399822571167
1.301752745499
1.27737411949963
1.3019302430753
1.30490595374196
1.30904171409441
1.3518582672591
1.35220102543101
1.36009375249103
1.37024189939174
1.38877330487942
1.41292736515402
1.39593322445804
1.44417931702296
1.40878581941707
1.48460448253784
1.49454768112395
1.50640614961829
1.52006097021288
1.55460212003539
1.55001587948406
1.51634390506637
1.60974084056792
1.60032122568037
1.57937778078667
1.62656302572063
1.62380444291735
1.60957967906048
1.6343179223628
1.73718464222001
1.65590226442836
1.79156469057482
1.66600835794128
1.79318604132618
2.11017137540102
2.04903920098395
2.00436026369221
2.05081321027664
2.06701518780529
2.08415254348751
2.06716612071606
1.83615043706049
1.99350490797529
2.13563875080825
1.938936088718
2.09477988941338
2.20484401688047
2.0886751838629
2.087716337052
2.12434039247918
2.12831957461395
2.15652651815066
2.05098773047739
2.13028337630217
2.12271895157174
2.22887779321054
2.15913292166929
2.01138453853864
1.99928388214677
1.92889684921109
1.84779809478243
1.93094916617581
1.75351179014026
1.80064975275003
1.7828031068149
1.6872100689125
1.58581499566548
1.64628717022871
1.62597589429245
1.68435673998186
1.597314908677
1.61558560141914
1.56496531346368
1.52121970962842
1.51413569943969
1.51738192613974
1.46720969139595
1.43111605098792
1.39830979675238
1.36268450042298
1.28865666748989
1.27932072601927
1.21200012076167
1.16024823409442
1.11464850831782
1.08515111745815
1.05515306256212
0.975495418653669
0.927874699594181
0.872643241609932
0.822067572852681
0.783912482132439
0.729519098076101
0.685484102917919
0.64578275271032
0.604550197516601
0.571149459454465
0.543435918379812
0.509084303875261
0.481513867599745
0.455084913005009
0.433887514765181
0.414675601996647
0.397866982394401
0.382651280847641
0.370588607906994
0.353535180811878
0.341678375521731
0.33219281018627
0.322265797196875
0.317966439390877
0.310812299488594
0.299261828043848
0.299571753433344
0.294190225059915
0.290571457961687
0.285828743514506
0.285385946926127
0.283824722477188
0.283490434740284
0.282077667072928
0.280669937506015
0.280786213825759
0.28202891768542
0.286507597324183
0.291304312381687
0.295237597614751
0.295710098741326
0.302268923744913
0.308597706518144
0.315127416449172
0.324442780938096
0.327178172925933
0.331313759544423
0.332851848144443
0.342504635888809
0.346354471380281
0.349170363023474
0.353778744078979
0.355514750624731
0.354438904615745
0.359785383269026
0.360329441025175
0.355543001684172
0.364018335364216
0.364836134636102
0.364798407892516
0.36832554395175
0.363793634437231
0.358475101312994
0.363048986005449
0.365450554007344
0.360085871848061
0.362746392822486
0.364496001316833
0.363131742632234
0.361917913929908
0.360383820514987
0.354240076626137
0.351574857989704
0.347722956759231
0.34656311877141
0.339254595127447
0.340421392336621
0.336128852389098
0.33597495715008
0.331962298111765
0.329616497685416
0.330665098379015
0.331952678349845
0.328081394280474
0.32710815119451
0.327651252982181
0.330968576097824
0.334803006555126
0.338372457876844
0.346467959154248
0.34853088216517
0.349155792202921
0.36117509708131
0.366203286132824
0.364649383110921
0.366230838681837
0.373336546803193
0.371680568738048
0.373976972430898
0.366228806961816
0.364748692511221
0.368526306613165
0.36082288612563
0.347486746799805
0.34534242165694
0.333862900608987
0.333635318526286
0.329953634175157
0.323384705283303
0.320715849494554
0.326774116254913
0.322149943331016
0.317850285240411
0.322013815356824
0.324019084711536
0.321755390787773
0.327229694621254
0.332977611055712
0.334968490507876
0.331002177106071
0.338497885557152
0.330094952341702
0.334450904120885
0.337672490991215
0.341387272795354
0.341758688785315
0.343197486445041
0.344867555907795
0.347068711031006
0.350044703193671
0.354823445598723
0.351923511206578
0.348273070075225
0.353007518605431
0.363995824873518
0.347197261655409
0.358971780941331
0.359822636224848
0.360048212896623
0.352901354390629
0.355649136687063
0.355113286775544
0.351771186398998
0.346686551214086
0.353698800822274
0.356090217567209
0.355473128021596
0.346795268874359
0.347685852630627
0.341814813276102
0.353790050819996
0.341696448284018
0.347216755236578
0.348264568050842
0.343161544395129
0.340454471654051
0.335833378029328
0.329745837503524
0.321721936138322
0.318179613024193
0.320689976251109
0.321326972222912
0.327030859272925
0.312392577737483
0.312526294093896
0.299097797584804
0.302589335626104
0.293275198832911
0.299641131932983
0.29858448885537
0.296976508206957
0.308401943262547
0.303429980065791
0.286324861911393
0.30398620407236
0.310645968428866
0.304020100470128
0.297010517727117
0.303828763113994
0.303075943877006
0.310670611031202
0.312882460379692
0.315105248064586
0.320270193070538
0.325244963503995
0.312484857856153
0.326861375674625
0.326452332723883
0.333470598735929
0.328404865921391
0.338415217330934
0.329642098325715
0.337887020236966
0.344033912567354
0.355313031825325
0.343666395455679
0.344533046045984
0.350448109859449
0.365237803760839
0.362229729387205
0.386884031391176
0.391813127476146
0.393623522540275
0.406010596088441
0.421284770330538
0.42602248229768
0.42777887419287
0.433438595937814
0.449984401687296
0.464088691800442
0.463902135847492
0.463300656557926
0.477189255210886
0.464685274535604
0.477119034613864
0.495502513684388
0.49146314464079
0.485075171207952
0.497051944491692
0.492413451515848
0.497286321187253
0.496859485718809
0.507543582344496
0.507366462541035
0.50817851436982
0.478831685311463
0.509796058481751
0.519481490548574
0.502903298631387
0.507486589833519
0.519739004089989
0.510948866348522
0.532641565859071
0.536131735080018
0.569503398499728
0.527754039398627
0.507436767897273
0.509321943848168
0.515284362215251
0.533719228957507
0.546812714875024
0.523477488570298
0.488086499729899
0.496839684939491
0.533455894950507
0.498930834686043
0.499471281686097
0.491921767811279
0.479641987268607
0.487122718673781
0.492443634239814
0.483046962161961
0.466979141824143
0.483298039141331
0.489086736008497
0.452103620727804
0.484399558216535
0.475152623283652
0.491942485158788
0.4900505557339
0.46152617659867
0.47502080697442
0.477937674686975
0.488637952802432
0.476966920959911
0.454670404543053
0.482196656351819
0.467669411688428
0.473992499437587
0.485125040161869
0.440646228872706
0.452757688381608
0.498089519983851
0.542241000993033
0.497834561194338
0.494194412372125
0.528324461971312
0.456736663955886
0.506724799789459
0.522337084759243
0.510111091757002
0.540856436868223
0.488419731096086
0.490009091072295
0.632559685736574
0.503034251907764
0.520938878013843
0.591061719821128
0.582631339845471
0.574697888789681
0.5887107967655
0.625088601150082
0.60630446568712
0.64789258465326
0.622921961056058
0.60807787791214
0.648990292960737
0.644589452147136
0.671713239503907
0.591944929924698
0.628298176827363
0.702685254220464
0.709116985585396
0.755939232519916
0.682564095815979
0.690399933681884
0.732202037077808
0.643521731605772
0.61252057978156
0.633044311920496
0.652103877777323
0.656782596460244
0.608894136408545
0.535268987376378
0.5532958644743
0.562959676219662
0.602984534528436
0.613946339402946
0.58482869320396
0.614594264578315
0.642055225155661
0.64771465452728
0.743662516605565
0.774565437288248
0.664695046429101
0.6197368952194
0.585078359057986
0.677917925155401
0.788373581225313
0.565418654670481
0.585488685119679
0.564990155917266
0.562711364685075
0.456580945194422
0.498578804484663
0.629709251818357
0.760054851404995
0.653839380602575
0.537692441254526
0.553686144792066
0.431146380157338
0.736990760763095
0.6093268900358
0.578402669135045
0.692168800830498
0.771657170652844
0.869656464135031
0.51781256778638
0.75330594590063
0.771923357842934
0.501842423647323
0.402032440576136
0.674540122388845
0.820686439026507
0.776241995775185
0.786418315454445
0.665244806883306
2.0144823193089
5
1.03715621133618
