3596
4000.36533379555
650.420452594757
1
2
2
0.0919691077579379
0.103540118096489
0.0996543062648218
0.098414404816654
0.0970012338756788
0.103819242454895
0.0942107552437904
0.103400004770163
0.0932799358392887
0.105297831853141
0.0966736391464879
0.102330043341091
0.0892865116993114
0.0967220298900866
0.0949150491766634
0.106101007612765
0.0946251993743807
0.100114659792779
0.0925484979792493
0.101330003895274
0.0957133154423999
0.0948047945290764
0.0906543755656553
0.0936598588480254
0.0952431034419989
0.109921677721411
0.0941184188696143
0.100148576601055
0.101850258627795
0.111193136418172
0.0929094492323477
0.105110213274927
0.101023748124104
0.0972087188057485
0.0930398481014613
0.101251996221626
0.0927292437470605
0.0996137531820788
0.0861755860514
0.106197237754002
0.108531751207022
0.103383322993178
0.0886747830908982
0.100026322467396
0.0968571603418234
0.106130223811606
0.0953159133741448
0.0999287770308184
0.0988140514090418
0.09804666033116
0.0941890362519784
0.104654911196027
0.100544917156514
0.108536081743343
0.102706452249672
0.118209977833925
0.0930382582699374
0.0986224692365926
0.0894336891329619
0.100571526237009
0.115223615565914
0.114248979523293
0.09277986529096
0.0995494415761561
0.0903309437113212
0.110266578673742
0.0885333625695154
0.100723463589629
0.0948993704503358
0.107421145998499
0.0908720931132586
0.113314358342038
0.108351406657654
0.0980879030331698
0.104830459470067
0.102618941136938
0.0881048138011711
0.0973922081840069
0.0842367249681229
0.111733654188918
0.104520043860816
0.100063272806215
0.0893678953825966
0.0929613487471595
0.0971106598546383
0.113463297602371
0.0894187338724744
0.107683174179831
0.121406428057005
0.107159453552913
0.0889780579487214
0.0944760820735893
0.086772374137912
0.0885010542897882
0.0911946036002624
0.0938184210165419
0.0837978047184728
0.0989161594874103
0.0831038825533433
0.0946579988624626
0.106085372000357
0.113212157168095
0.132826507648114
0.0974323256400061
0.131280656901528
0.10596041462598
0.0890830228609967
0.14268703353769
0.0958060327476294
0.0987757768278565
0.0809358842232714
0.102965055887189
0.0859899250463901
0.102151202558413
0.0840992161428604
0.117179326255442
0.116891223184749
0.0974412172324966
0.0899582428306985
0.0902105566782964
0.0798908819702108
0.123629545027521
0.123371725634457
0.0928573321583372
0.103216356602401
0.0960549387087574
0.0847706806496257
0.14340959059973
0.11606334588202
0.0843965348107616
0.0893568353924623
0.0879408694735558
0.0854825029273158
0.0899924342245663
0.133988979925121
0.0992530249561879
0.0873571390231177
0.0873362855517023
0.104397941755205
0.149698723318265
0.0987177298538611
0.0936555784965813
0.0844409476973157
0.109321019160373
0.132238607862444
0.09767038114021
0.0876696906854466
0.116850164271707
0.0978785515415603
0.0793107283263851
0.0833329792620496
0.0936173868072883
0.110985814029059
0.104147312689678
0.0696464520209264
0.133487506877819
0.156921433955901
0.118772872290836
0.14161688611073
0.0878516395478507
0.0964897131475633
0.0870832191339449
0.0903220059361994
0.0859854519717186
0.0839722158310519
0.0847123209938885
0.105084123431062
0.123148758980304
0.085094185970452
0.10308686200292
0.115751255345858
0.107135854877797
0.0873574924472601
0.151727463100441
0.0977178970219305
0.0859896526881467
0.129563402390167
0.101273118610126
0.0852574704069834
0.0988681615225203
0.113033894103982
0.0940340951912493
0.08430938032166
0.0900519454792172
0.0944755761784797
0.103477136801588
0.0998101044985519
0.0949373897955969
0.0911139464729172
0.0835232911823032
0.117811710542191
0.142257864524869
0.114997694377029
0.0946797914940387
0.0933986593131814
0.0720469448666023
0.124234540022306
0.127766672144283
0.0898591819821316
0.0905155664979997
0.0792406346800843
0.0846448111568531
0.0849122142271547
0.0841972714437808
0.0808961378552516
0.0835399092266849
0.132919291573292
0.104313388863239
0.0860988431318565
0.0913873242130454
0.0951277279271162
0.0952204155391505
0.129447042072338
0.120046982242569
0.0907155070405814
0.09751376172809
0.0846297868686902
0.1159990979418
0.105356872776892
0.0840150567079654
0.082337983070175
0.0902710458626474
0.0901554266061531
0.0893504688631499
0.0888517740214974
0.0984832258217533
0.0897240360331072
0.0934246972207894
0.0898014625226946
0.0877909032062535
0.0909033186388876
0.0907720641247695
0.0887277199355019
0.0877803719653138
0.0833465810779107
0.112102328036021
0.117080822509208
0.0985861366233647
0.0901797981743724
0.0849217242246271
0.0886919834771358
0.0877978286048622
0.088707876639126
0.08776331298735
0.0897883075505353
0.100163354406429
0.123122253383038
0.0958377101475652
0.0871978164140234
0.090454555608969
0.113184704566313
0.11521820461869
0.0963428970255658
0.0931011946874436
0.0894641784220868
0.0921009172042392
0.0949951717218356
0.130481122061229
0.101696002920396
0.102488235256711
0.106891051212995
0.106004675693417
0.0953329643063008
0.101158998277486
0.10353468230614
0.16330858417832
0.12111116899935
0.116397015844051
0.150684138280773
0.113143970119127
0.0994838761119657
0.10274090566562
0.0912034963197627
0.182037531837639
0.136027801460481
0.106735030106962
0.0998575155239544
0.114480824494914
0.0933858983029479
0.101886135346142
0.110527976026587
0.128217255613657
0.149469051448237
0.160169630182174
0.148072967214913
0.106650273747675
0.133027233797622
0.132579582553229
0.106253663454092
0.107518400065616
0.0977813847329688
0.106899367517482
0.118342141605578
0.127356505031632
0.109455063301017
0.114605023314637
0.111416900045417
0.134033443269535
0.115203738794257
0.111593298513249
0.117616847317768
0.121949029197652
0.106146831103517
0.109086739457441
0.110058798976497
0.122710326501706
0.110085352989872
0.123788615885337
0.159813956869355
0.128821772197953
0.115071347174966
0.140949374770321
0.117901059979403
0.110926678720321
0.107404546232569
0.11400616116726
0.114810940019424
0.112789827357847
0.113951349468642
0.14507069450635
0.119738893868575
0.113983367971551
0.11350938715405
0.114338472848193
0.117109958995098
0.1184983332813
0.11838407580795
0.120411946069431
0.124040094575383
0.127169236471428
0.142160118328336
0.142565568898486
0.121518039584509
0.155653111373656
0.149212883849209
0.123676567279692
0.119577802922323
0.119762588554928
0.121367424509459
0.126123109030695
0.129004908341585
0.131706538503001
0.144459968840608
0.145326039860596
0.132352806747158
0.136099631608372
0.154247288962089
0.216608555602725
0.186735238756135
0.145956549859171
0.136617049710333
0.135389542941661
0.180071546544678
0.180603459410571
0.173064963417659
0.173815115936783
0.151465516684476
0.158081461823478
0.139525382419249
0.14086425933452
0.148258349739053
0.157309623698339
0.153362555995014
0.159827735524012
0.156838923715306
0.161433857771221
0.161457036565532
0.180623409732005
0.203677211178107
0.182929696912951
0.172000971450559
0.18087829212746
0.174777682162381
0.210240559103154
0.218442645378463
0.217936572179646
0.210583353673529
0.21244253673294
0.223512039640353
0.201513519169912
0.195854818916638
0.193140942355923
0.199235350827968
0.203113265553154
0.206710280213741
0.206597352029272
0.207992753267599
0.211390766228693
0.205950431270142
0.214574164846106
0.21406353708782
0.223786332549669
0.245117992914431
0.232978981302695
0.234160416357652
0.23440233632099
0.255069108361355
0.305492761088329
0.270484159186463
0.243980111666098
0.249549883560502
0.245734887011715
0.243988679790398
0.246449813452874
0.25279070453419
0.269412302750028
0.269061795586228
0.315313879572661
0.30599498270882
0.287234409349484
0.281996067428218
0.275121447595432
0.299239571575405
0.300928789258421
0.316021675049011
0.328134970456165
0.296891108379535
0.293525977021899
0.33636910007214
0.314874536732135
0.307333826116189
0.327138409748996
0.304946870508221
0.312318980471834
0.325335060055387
0.325416504231428
0.335695174337061
0.335176886952215
0.342462080790755
0.335596509815274
0.354080751623069
0.357590734094641
0.360437364645813
0.364825360269098
0.35461707322357
0.37245833701437
0.366352134406867
0.356784402453228
0.366185615945355
0.366601843927312
0.411329081389099
0.400167538608466
0.415255935180633
0.418196466390184
0.386951724455728
0.383475957587908
0.406898483092519
0.409069426366317
0.405678382959274
0.424477251187936
0.428807432771322
0.428054612826011
0.430436603281059
0.439186744382819
0.43643736626084
0.442989112415557
0.460365860945755
0.450838228857341
0.451774153125852
0.461906155917628
0.466723175513774
0.45067535433274
0.519650143448678
0.52822551614639
0.519885354618942
0.507845502803102
0.478926555121589
0.467529924544957
0.502480441935982
0.498523524855438
0.517274811907208
0.52932268474972
0.516461773929255
0.522433017444296
0.518275922152754
0.514770437256552
0.536654770220097
0.562886061709557
0.54905701923805
0.53826614752717
0.566240629467154
0.558669699527839
0.578345471451245
0.572366738873153
0.591977222282504
0.570751665691586
0.570589753524789
0.600372742440364
0.611247054119408
0.592014432860317
0.612316632227429
0.606507800142066
0.618360227422354
0.578473160939068
0.61040568266307
0.601251999841332
0.626148704760125
0.645160089065109
0.641650053761454
0.654434775022297
0.642083697556684
0.638808517394461
0.659958705301092
0.647605140608426
0.689508814341275
0.677754472221296
0.679556862227435
0.684366728198331
0.656362377782735
0.685914345785841
0.710806412050242
0.702494908168654
0.696331964540577
0.686461155659008
0.726485617061636
0.714093895443062
0.71588294284773
0.681683602833953
0.757380144926485
0.725685474307827
0.732274435942231
0.713284618640973
0.765922197156596
0.762551770253329
0.78500558897845
0.756131500932347
0.764386956318198
0.749243442680911
0.798736754053694
0.790133344793564
0.773606116401744
0.781016335012163
0.807693321617176
0.807528232120037
0.806586790122506
0.786045473848796
0.834630215801216
0.797879022943695
0.841644157456884
0.81006857747801
0.843789998293516
0.830104046094064
0.887825472599971
0.843628378545202
0.866353922135787
0.846187063296894
0.858904025826503
0.816112259432699
0.904192143966911
0.86324454326339
0.875313234161151
0.862929574851498
0.921259787280265
0.915121867660143
0.901947847323984
0.883033087675982
0.899810289357401
0.819452967302699
0.90135893864669
0.947955090737928
0.909446791291693
0.938691465512033
0.970242422035722
0.891582056265881
0.956713593534693
0.925416981718796
0.917298515192482
0.912459453664605
0.963942145964129
0.906956546221451
0.969994964286639
0.99561223607295
1.01554907267663
1.01946329115304
1.01772230959354
1.01794526463418
1.01468020969476
0.965759499720138
1.0150677007597
1.03883757039014
1.05106744404582
1.03045551567235
1.10078062987516
0.998094833335029
1.06781013235912
1.03541383809973
1.05552547135686
1.06739918783044
1.09071141620649
1.0740140735481
1.0394386725006
1.06093158842806
1.0887257367112
1.02118878009598
1.09482179388573
1.09040810164228
1.11768077447591
1.10644397468101
1.11726931474104
1.07237791345631
1.14022452140667
1.07758484204788
1.10617354492629
1.02947810336748
1.15941685414224
1.08177097737455
1.1225120287802
1.07132245087032
1.17048449736872
1.12038152230954
1.17734470635294
1.14651246946699
1.2003708398971
1.10672240068874
1.2545129003378
1.21809006186664
1.23787896384524
1.13156550481501
1.26186071443391
1.16287282349024
1.20117318798616
1.11825956341314
1.29129325884277
1.20161380607038
1.19888380689088
1.14511216724045
1.16077023345528
1.21465708229864
1.22861739547494
1.11493064397159
1.345099845653
1.20742487732906
1.23521125906772
1.22345615808456
1.22605630783031
1.27839862033815
1.22581609264334
1.16605544082001
1.32250287445972
1.23670103624557
1.17169053055477
1.15797388848759
1.27317731993661
1.24381061755653
1.37187306691557
1.3399319301123
1.28818442161245
1.26017592609715
1.32179504274919
1.28513418182818
1.42260172263001
1.19441878118448
1.25987111595703
1.27170440854951
1.42880305789706
1.30748777509609
1.26863609197352
1.23376236402664
1.5891468085613
1.38519181610697
1.41822024624343
1.35092208701341
1.42124065276747
1.23113069513776
1.34025278741373
1.30927008358055
1.40861040570749
1.28897777560385
1.35669992788123
1.36930286488748
1.39549038124792
1.23072061547699
1.47375052716505
1.30898622333948
1.21783134342483
1.27870561495253
1.43065302446706
1.29108718856175
1.41092940054808
1.28961676487658
1.5252958000792
1.38670565972432
1.50219345000247
1.34316248115811
1.51116794800545
1.37738621142165
1.53243508549248
1.37366961839948
1.4215313359605
1.30959377003402
1.37978500918557
1.2982738152269
1.41943790188329
1.41604818699381
1.52001621579085
1.37111782338696
1.35684477680974
1.45098645071285
1.46080763452829
1.35869389068973
1.43311273845817
1.29539677840236
1.45233714458699
1.37480144982293
1.55308090964389
1.49863323867877
1.40535022133371
1.48478938061372
1.39670238992821
1.30457011798692
1.39322519028059
1.39062857367746
1.42168964146412
1.35007537939101
1.4465623701324
1.37724558264202
1.3793439257725
1.49729353035026
1.52332618204927
1.52208455255101
1.55088544729129
1.41919373985906
1.530543757109
1.36482650549037
1.53708457437579
1.31521941690883
1.50214837866093
1.39569162161675
1.45389008686638
1.42243119245909
1.47962920332098
1.46862281890567
1.58905130398009
1.4070818514978
1.5124351412186
1.33576785930619
1.42793524399392
1.51862712496323
1.50923877235299
1.36742178917067
1.40490033169619
1.36207002104856
1.45798404789338
1.43240388830972
1.5206055068361
1.50633737962161
1.53711053037176
1.37360606142925
1.55838186576499
1.46718740840766
1.4728672693589
1.48964166477188
1.54494359818611
1.37245701357011
1.34654867272233
1.38130602529028
1.39422657918936
1.38217783431165
1.5506901309871
1.46721358505554
1.46897914662435
1.3550097497865
1.39236797308883
1.41286204157297
1.4611362787093
1.37684640132155
1.49664562480642
1.38871385558701
1.59102784990842
1.43574558600855
1.43543313229309
1.53187538896044
1.45372355717155
1.47436280271745
1.52285894123469
1.55685563931034
1.46674316756111
1.41437215639368
1.46932935130176
1.51354197115974
1.45900759772268
1.37666681810563
1.45290778000244
1.43839210383618
1.37733804605446
1.41036601834283
1.52896381902135
1.48602204324381
1.49341146596741
1.39808939323238
1.4774448157136
1.44590018019029
1.46533225745165
1.55013614045447
1.51201983782914
1.41110515071886
1.52653093279891
1.43706591269573
1.49519137143782
1.438934802389
1.38911261357461
1.39839676635727
1.51538046467847
1.48684031801183
1.49167466306716
1.35511821912583
1.37743176616359
1.34593219334435
1.4404502914237
1.36275735949741
1.48030671646097
1.4652399681037
1.45827788958406
1.36808309910684
1.41449582316559
1.4401900269218
1.38960236387729
1.42010872965718
1.48068087934379
1.41187145829791
1.52008826784532
1.47063289129141
1.39147835582694
1.31956066860516
1.36668001288386
1.38165034050547
1.35465021839209
1.38855535542278
1.35373951840233
1.35066210066358
1.40075807924079
1.34334812527763
1.42681237108264
1.33557010734151
1.31970858728224
1.34734128283155
1.40945200564212
1.34555659780867
1.49655744988194
1.32127675468884
1.43274426504308
1.33818418002755
1.31899670996536
1.28532921777656
1.39058689628484
1.23767371855467
1.43350921375914
1.28892492387935
1.38438379982572
1.30353590733011
1.30810728822299
1.23057117927901
1.33415946354978
1.30808950378025
1.37272228564112
1.29612318651908
1.34257645822682
1.31776984866548
1.22254611508204
1.24442739945419
1.28261737846183
1.2524716735533
1.31720817300939
1.28921812302108
1.29001579427843
1.24986541444947
1.24618219912412
1.14345344251796
1.23613907946979
1.2176659353082
1.29930083018181
1.22530807540153
1.27961501491422
1.1946766423004
1.29934581924311
1.19097035022146
1.29156309122588
1.18295139245257
1.24738109602161
1.22110818834652
1.21819215585189
1.20014242257539
1.21814707522762
1.18881116272171
1.22713857253453
1.14708495507448
1.18454760421156
1.16481736390261
1.13767795970365
1.14083516244332
1.16762998212663
1.17143462427437
1.15197843254181
1.11379306373701
1.19472354724554
1.06795375575124
1.14872754046065
1.100722104995
1.15555224196909
1.07813527118284
1.14167035468081
1.08879365032327
1.08389099893669
1.11396561743147
1.0902558528405
1.07437336023499
1.11172330482211
1.04220165984565
1.05180208167694
1.05827020812437
1.05910505495658
1.07109735536891
1.06765534518765
1.00598040667873
1.11438945991612
1.01543541076888
1.0603443281091
0.999421419091766
1.01973517394398
1.0187014135354
1.0368925457497
0.973261206409008
1.01715096094152
0.983718455183308
0.983515219120339
0.963545389808329
1.01779811969629
0.984539012989121
0.971209405022361
0.959107565441171
0.957813369766022
0.961977820618665
0.943931144135435
0.955257371163407
0.969254267425589
0.931732290644214
0.949559719433796
0.899797576123059
0.908718875323908
0.907096548240047
0.911304732722219
0.904735025029947
0.913894001653768
0.880727840424213
0.881833800068027
0.869281458271317
0.90391140631922
0.895693262028952
0.881634138521974
0.846079943553125
0.881760314115739
0.858600104400049
0.888007370490228
0.838096538748212
0.866837176469543
0.817903796540154
0.841095164516939
0.840488007224976
0.839317886026552
0.817268891787449
0.82873016109411
0.819554656443065
0.843213988078236
0.802275332399218
0.826746928671669
0.784421139894266
0.8048054400074
0.805524337301724
0.813112339415236
0.769142138414812
0.798092374422011
0.769497139904758
0.76137356458232
0.7757452461213
0.759195138338903
0.754928119580392
0.770786663921963
0.749873494994893
0.789882773602571
0.734384201243129
0.745342445116633
0.720597911355777
0.740055133850621
0.724375030453738
0.729278277277321
0.705181056722067
0.735178004027991
0.69398881049278
0.721698751180724
0.696680447993276
0.703808258039908
0.687078873615737
0.704824158351085
0.684489661371653
0.702598007714098
0.684574888882287
0.693845365005219
0.673066162085464
0.674134484280581
0.668033307803388
0.674737813124999
0.663582742629134
0.668095156324881
0.66280379427437
0.657682334208282
0.644978502838905
0.656211130967022
0.645085065090212
0.655541365350258
0.636036963512716
0.639570495615621
0.626194096130474
0.619233353390592
0.623461533711444
0.622773857636154
0.621007183942448
0.600419498921706
0.609566477488598
0.617526430879475
0.606732336223697
0.617375646338319
0.594928121024183
0.59792183541146
0.579543611668067
0.608723479342843
0.592681407375963
0.589107695988473
0.577962860984323
0.585029037422969
0.570481240286482
0.582151811971326
0.579242043895666
0.576381171039029
0.567042161844869
0.574069956273615
0.563134435726025
0.560041484135064
0.565815110888054
0.566369362894863
0.555230795570899
0.552829176841591
0.545035167362356
0.546590962399158
0.535949331367908
0.551713327221051
0.534083527238873
0.535058574752158
0.536314794683012
0.536726869146679
0.52804018934857
0.53694194275792
0.524110661954911
0.52380790037303
0.511935817540591
0.528106459064818
0.526861070347912
0.524648584613908
0.519793856848494
0.521031391399017
0.520297149942723
0.518203381997936
0.507698566127457
0.504726161887763
0.498407479515425
0.510397127831414
0.495665080373414
0.521175592595652
0.509419232552787
0.505640583974364
0.495820130185935
0.504836187718139
0.508483030067595
0.509476292851715
0.494080598879775
0.487989542554042
0.490250386065712
0.50474942015514
0.502740612919646
0.500632595143325
0.492563898759266
0.509451873892633
0.507274086441292
0.50103969835269
0.492956222522373
0.502832378256927
0.501915761240119
0.500895320453447
0.498974031600137
0.516196277034702
0.505384311548656
0.516037149586047
0.513227647321078
0.532309592700935
0.515191873340201
0.512014316469271
0.519061757948694
0.522289055796631
0.508109010688836
0.517932792179537
0.519235554828043
0.531018652853973
0.525198349649148
0.538208988448956
0.513359141738521
0.532019722694254
0.521901778866576
0.539915579746087
0.533488757996855
0.552646878534831
0.541550588340589
0.55675095789306
0.541223671447371
0.545850607449092
0.545890819133847
0.55393904712507
0.548016128233402
0.561544728389751
0.552949474704918
0.568985748354806
0.56029043295899
0.574593387400431
0.560101562182987
0.579417196539902
0.574758743981848
0.59670333278133
0.589322198287517
0.602089195360791
0.61233162002222
0.598655798811666
0.601074730404095
0.611973357044624
0.602320493325468
0.61417834308502
0.635530433383166
0.631172348516769
0.637499592397227
0.645147228857277
0.635247884426679
0.660898040077003
0.646126739560449
0.665388014280314
0.66972837620628
0.669931959918608
0.660407302718878
0.681550249846659
0.658077737098296
0.674710369033364
0.660842234127498
0.678597958009288
0.660167818076461
0.68036887355137
0.676272232880527
0.686861800419398
0.683218353776042
0.672693629687117
0.664461857421267
0.681940985022891
0.671462716388382
0.68556296870375
0.665823984565898
0.680113945430671
0.654599961970129
0.660912921758286
0.66310886779404
0.651389323473399
0.649051495450015
0.658059716878743
0.650096007169407
0.647024804480687
0.641366888265747
0.651824158115394
0.645930494951635
0.638509334719287
0.633902493466677
0.640560236741416
0.639938978860575
0.651377249249895
0.636951411675039
0.637299662806132
0.621299436880696
0.636453353817529
0.630631090052668
0.625211552418445
0.618357646180765
0.639029030164464
0.62543257004455
0.631432917356128
0.617822568391045
0.630357119421793
0.621810655481161
0.629244382185606
0.615707950984693
0.629412249347352
0.610093554820893
0.613640801735141
0.619323885481922
0.611953250865767
0.616488637901878
0.618288109978271
0.605992734549992
0.602677548902061
0.603674074990212
0.605271515618102
0.604009114267623
0.606025711036718
0.585584326523418
0.593545736450255
0.585886492671164
0.585137939780148
0.586629215324216
0.581083757287534
0.581116271538354
0.58370210020463
0.567630184386527
0.571254275572301
0.563165053738807
0.56070991105136
0.562030220334638
0.560289744578007
0.552804998887549
0.54808523290683
0.537273724756109
0.538013719171878
0.536074583152849
0.532835224866162
0.533406313489222
0.528371384088754
0.522664756999696
0.513572239561867
0.513945709846181
0.512788185798594
0.507904257175903
0.502075739963575
0.499708842673475
0.493062969784612
0.496241518259091
0.493916136239484
0.495069116889047
0.499951791680566
0.4863751656294
0.491569782359505
0.483257924774059
0.475350541505465
0.471480256441929
0.471266319863533
0.472408469638985
0.458916804616067
0.465175112849072
0.463148566993605
0.457910338336898
0.462860158104959
0.453449490854739
0.44288322827014
0.455239916051222
0.449575660678566
0.444974028581171
0.448385826446579
0.446238593095671
0.439717885927986
0.441128193506346
0.443685821385412
0.436206169768391
0.426807610523665
0.42683699613084
0.439337203838991
0.425589671807361
0.425847885472793
0.420305943467795
0.416428726329272
0.408182382197688
0.419224479742315
0.416563549950256
0.419186483887603
0.414838372700222
0.408187219316279
0.413505059586363
0.411911038285058
0.403927036242411
0.411866838485313
0.401095216946297
0.401471890384635
0.397151707870142
0.397889956638586
0.391720240505177
0.397734215526286
0.390182925383325
0.389172985027075
0.387780388937262
0.392592773633929
0.389392177835364
0.384625146847532
0.383560367551523
0.380781827089764
0.372868521717537
0.380594511720811
0.380096411945798
0.378712835717932
0.37527118301015
0.376285320151655
0.371171228704801
0.375203510558244
0.374168885874274
0.371208970628077
0.370636287149956
0.372630705431369
0.363081417911401
0.364171237819079
0.36714939308603
0.36740033495099
0.359559397148264
0.369575779679488
0.357516446578567
0.364030990417345
0.362569169910712
0.357255212062144
0.363335271068328
0.360724628437154
0.356844134840756
0.356078062673689
0.355119046112893
0.351271781591798
0.358010187377139
0.357293652119451
0.353529754690624
0.354686784265246
0.353807118778562
0.349023563119246
0.349764805054786
0.352749059991596
0.354138545931471
0.352813704932391
0.347103972908096
0.347329885738821
0.345836651807245
0.347796752519266
0.341375270874651
0.34302748163205
0.338977414890636
0.340944527370673
0.344991419696371
0.340565058850872
0.337050376549084
0.340497425644067
0.340166124188509
0.339101753405668
0.338774739382379
0.335859084849169
0.336402701598134
0.334435156182573
0.334664376634097
0.341614053270027
0.333125267633033
0.336456287393162
0.33326745201655
0.334261894361224
0.329342970262399
0.334397941289203
0.336904119333407
0.33544502194388
0.32648646816235
0.327037770820098
0.323468156100792
0.332087202953369
0.332955492008501
0.326416818166286
0.327901476600532
0.32975500142063
0.326679246547134
0.327141395952361
0.327393792332385
0.324271030352495
0.331130184802649
0.323236124547226
0.323283651711703
0.323553821075514
0.320353295656194
0.323786221567963
0.321298536580613
0.318671558735354
0.321548947266524
0.317475652643165
0.322218006987841
0.318174559436249
0.316441975593547
0.317469347328328
0.317485547891806
0.31862598520079
0.316213661205769
0.316864212148154
0.304432737927142
0.311268365035296
0.314132396859559
0.310008010786164
0.306916287542356
0.313696586275005
0.309767153577976
0.309368041742311
0.30887708813812
0.309226498371487
0.305541016185388
0.309854627454029
0.306618421041177
0.30777999348451
0.304234070528707
0.308591110928787
0.304131803448954
0.302426540714411
0.302890467059968
0.300053682694403
0.30156272588484
0.303515814722982
0.300682675439684
0.301522040963576
0.302983454003328
0.301423709381197
0.299054318046859
0.292462766132566
0.296545530997893
0.295273699918384
0.299150320067626
0.29665822767108
0.290203649564861
0.293607959946526
0.29705031142097
0.295961946503564
0.29562403519742
0.29537297518468
0.290566852751243
0.292524691359375
0.293290489272793
0.287746578537441
0.288088848736237
0.28971780169458
0.283351548846029
0.2835210775449
0.288912790933162
0.284912371600865
0.284675953965007
0.278506782016524
0.283583285966165
0.282627290875023
0.28023743479423
0.280448995248766
0.279798340278033
0.279854781235996
0.277972699646397
0.279362236594004
0.274801986338201
0.278325531527413
0.269960006434864
0.274353516393753
0.275862895102905
0.268938299065702
0.271286431041715
0.269817473587978
0.263320859623506
0.265299197891459
0.267827649469886
0.268154010346432
0.267391732760241
0.260078171337218
0.262193227487358
0.263424186938462
0.258684679092397
0.263138598997104
0.256711565696486
0.253504147032895
0.26104951237862
0.257602020522623
0.260193479546237
0.262959663692523
0.257271756723043
0.254993520883932
0.253674077204539
0.250861767898779
0.252548873484897
0.255052874361393
0.248989552541641
0.247134773197504
0.254148495180518
0.252039194244059
0.244364723174403
0.24457366806712
0.247714059917943
0.244331730155327
0.245421988184694
0.244860432782082
0.246795970340291
0.24158132145607
0.244681827301527
0.241402205511408
0.244132577089748
0.242430484941144
0.244598845665312
0.239109615126045
0.239339213982952
0.243436485712057
0.245527146204468
0.239344132044564
0.241279590051037
0.240781959408616
0.238213383402006
0.238857252536043
0.241275130494491
0.236753139619262
0.239770040995528
0.237820081192198
0.238581625580043
0.236886397407773
0.234604891972805
0.232989638906075
0.233802600749603
0.235793844629626
0.234566338722733
0.231364579992766
0.234690200706498
0.228940391752298
0.232481313688829
0.227439566070586
0.228865917421854
0.228911434183053
0.235593176634784
0.228191096579451
0.229493699882254
0.227978127893242
0.226988539120394
0.231101065941472
0.22639968070801
0.228955310986087
0.226978613735498
0.222998352553265
0.231254455018517
0.224647114403154
0.223103023793278
0.221619659792335
0.227830510330449
0.228210708367993
0.226184486335149
0.222196107568598
0.224346561359122
0.221708782446655
0.22049384293322
0.223479472162446
0.222691274036
0.221043336304678
0.224026472305354
0.220726541746532
0.226360032456147
0.220290405995016
0.219804968940306
0.222732098753411
0.219548893811646
0.215506038757008
0.219652679745083
0.220489274382302
0.219131539302376
0.222887013504234
0.218856890829436
0.215661345145793
0.218654107476805
0.216365591625349
0.215954054064033
0.217347064476695
0.216668475055758
0.214324128641894
0.216784891079478
0.214309715758687
0.217569728653522
0.212303585675463
0.2121491714707
0.213298562085105
0.213179853480538
0.21012339302126
0.209973933936892
0.20959282628316
0.212122152551786
0.210294318665663
0.211694213989362
0.20576759385723
0.21195150386016
0.206686658772203
0.209389104565755
0.208426620571231
0.210113343064243
0.205152721840183
0.206757801293022
0.206818508209223
0.204868846697804
0.206342600984603
0.206910778303418
0.203156634534774
0.204334444484987
0.205988383655897
0.20857884605826
0.203691766027274
0.206576256574217
0.201729484272335
0.204930084444024
0.200902735530972
0.202647615219754
0.2012351359539
0.204395350578561
0.202477655429592
0.203336313902116
0.200530742583414
0.203956333697436
0.20223429483669
0.202811862010632
0.202629711642147
0.20354126658182
0.198550230847456
0.200499110442822
0.202763058321807
0.201011498707863
0.196603975327421
0.204073622337645
0.200181501858455
0.198679227040124
0.195826630346575
0.19810942684916
0.195719167801277
0.197652904889946
0.196753922754465
0.197770875502549
0.194795474417484
0.197886093833048
0.1983191437984
0.20031748470727
0.192341210596687
0.19387643418825
0.194738025595738
0.193470966228414
0.190172141711314
0.192769526501004
0.19132448618491
0.19106607611801
0.190992842898648
0.192868150095466
0.188197838011105
0.189154070044974
0.190499214428321
0.190127747383942
0.186636262284786
0.188504457486758
0.187932200287231
0.189715043455778
0.18434001471875
0.187067005868667
0.186187866403142
0.186534528126091
0.184183334614794
0.186106990470833
0.185156262796144
0.181750511901618
0.181726828868297
0.181066605280472
0.179945017921426
0.182286213681142
0.178432618712602
0.183632843806424
0.18040556755547
0.180474478323871
0.178066195280677
0.183706465396707
0.181957784405678
0.179293980510456
0.177173800620748
0.179374346411245
0.176371921350451
0.180960748043304
0.176029211462851
0.17918215022327
0.175106817528681
0.175468599815914
0.175838509287112
0.175088997732499
0.174540851737167
0.176320804049939
0.170370379801497
0.171838587535571
0.172333543747173
0.173948477561451
0.171974688105704
0.174647845244586
0.170828171814816
0.17041574645773
0.166688214709602
0.170093049951503
0.167642423548665
0.167640898644705
0.164951726527877
0.168938627675558
0.166716981686259
0.167760129848153
0.163496052986913
0.166747498645876
0.161858400655037
0.168330394253145
0.162652038177653
0.16217109608644
0.161286921798643
0.164310046892086
0.16030492204947
0.161440834146572
0.160621557622199
0.160362951983858
0.159469296734831
0.161024205075079
0.158195684973194
0.161644002211782
0.155236002047623
0.160558547931128
0.158392853791739
0.159216794763624
0.159503474976034
0.159037517997005
0.156907266345432
0.157379310473246
0.153149898071081
0.155183326370006
0.154881222117512
0.155912048992815
0.154670036478124
0.153754865556225
0.152597048681591
0.156849155096603
0.151503901308627
0.155128787114164
0.151309272638709
0.156139729144765
0.155678076944025
0.153570638168524
0.15316816810464
0.156620873949804
0.153415806587097
0.158519316167311
0.153740541978787
0.155438283811271
0.153057934136526
0.155866326033099
0.151900197309312
0.156236199873546
0.15096111408908
0.153859248554104
0.147948434620697
0.157593177681987
0.149073598687277
0.153076035791148
0.149648085090946
0.153523090438045
0.14397280892272
0.150736477584108
0.144226979216129
0.146948065612721
0.141084580781345
0.147736195483385
0.142572626380027
0.149915204214732
0.144757382280732
0.144054441414039
0.139984307223901
0.149994840978705
0.13678838641825
0.144222293005138
0.138944553005903
0.14635744329777
0.144447665766109
0.143528810812991
0.140142441317604
0.15429200514561
0.145590881126653
0.151341377553003
0.138556344126361
0.149818966720732
0.137849678438706
0.146173665987925
0.134351846511942
0.142961505078655
0.137110071043607
0.145110326621408
0.141374352682591
0.142128540513714
0.137887273981393
0.143754145428452
0.132379639818842
0.138435609545637
0.136350912611335
0.140092328567654
0.142027148722358
0.14007617466526
0.145217840660429
0.136348691799359
0.14848815656498
0.131201152374584
0.151291247691672
0.12533748019001
0.150360216003149
0.120958699108697
0.155460422143743
0.118914151607143
0.165814681621568
0.120625841003583
0.167527172730755
0.113854165932837
0.170226927752129
0.116816443674004
0.165343784451509
0.123113531480994
0.157954801519782
0.128657443838243
0.149316156759518
0.139402879971543
0.143061037162314
0.143012488981726
0.136279212355901
0.143893208578606
0.135505334359556
0.142543763744263
0.135988218024689
0.14162624537937
0.139712315904765
0.137045544698517
0.141233078344603
0.134446496975423
0.141335571156338
0.136300482314653
0.140097647060408
0.138236490543185
0.138846877560558
0.139070445455164
0.136403132742443
0.135242118260285
0.134640738384384
0.135655896125903
0.135030820753211
0.138736719041906
0.13984349869082
0.135665510448334
0.137977963226439
0.136932798097157
0.135236496883032
0.137589221681472
0.136413799109342
0.134908335441426
0.139160680877616
0.136091743731787
0.135881181842439
0.135297223849946
0.13687130520878
0.13918470665813
0.137522141275369
0.1366022497352
0.136190522282826
0.137997492834565
0.138048912175027
0.138576118563832
0.13931620336467
0.138720758301864
0.137873018218393
0.138653689784269
0.140640454335469
0.13788148776485
0.137363747367662
0.139598310174557
0.137307561995167
0.138088089279566
0.138244677740214
0.13644991222003
0.136352927324326
0.140956820317701
0.139457897397904
0.136808787659604
0.136094662599428
0.139368920077875
0.137237706481901
0.138680001611162
0.139654758612018
0.137675474003024
0.136671898246687
0.141478631927489
0.138931893704848
0.139356047683967
0.13647537281684
0.137625863968037
0.135884627947628
0.140288630889865
0.136519565832741
0.139566241078748
0.137726401922444
0.138636487438603
0.140187209473866
0.140808449989693
0.138862811513489
0.138443526129956
0.138983027540433
0.142491807485927
0.138274805342266
0.141173618859457
0.138209147893862
0.140615093328727
0.140041713652744
0.142914100311782
0.139444873044516
0.140090727588842
0.140638636582624
0.140187024271366
0.13771522856171
0.142374537563874
0.140148562765389
0.142746914623313
0.142431032394612
0.141677325327647
0.138570588305089
0.142897686239955
0.143484312455781
0.144093809023719
0.141423252464508
0.145250079012077
0.144223147264887
0.144187376424861
0.143629809831305
0.143701234621698
0.141310661601419
0.144282113055313
0.141989569344162
0.144834745577489
0.143114400422741
0.146596833930202
0.146840723485634
0.147923088168863
0.143418933096061
0.145120241175002
0.143504395643725
0.144603826601529
0.14373833465364
0.14595589408551
0.145584086918982
0.148270554266746
0.145272978427116
0.146354638979867
0.14540920895568
0.145879356132274
0.144695809006321
0.148958386758877
0.146543957157999
0.148802947586698
0.148996584858275
0.146606709436516
0.146397201735454
0.148177144020701
0.146437562761919
0.148602734933002
0.146860146306943
0.150004434128018
0.148240706619876
0.149976829885436
0.147361568437278
0.147712231341082
0.14831061942989
0.150359366328738
0.148017508147143
0.15111570533933
0.150707532860444
0.150063443985976
0.148686709773222
0.152744638433436
0.151360683721701
0.153737223150756
0.152276624106204
0.153808240740838
0.150282564259592
0.154353858274299
0.152294706266013
0.155975590696317
0.152473988560283
0.155302412601195
0.15458836908684
0.155801557472255
0.153279185247169
0.157203027492874
0.156207802759811
0.156084493706525
0.154795446206404
0.155466645719821
0.152866962833508
0.154950603273401
0.154976868264069
0.156045272433758
0.153369191924148
0.15547845995264
0.151763895920839
0.155686826645729
0.151428720564049
0.153738737105761
0.152652242363754
0.15458768197803
0.151415851262829
0.15377030283504
0.15110539578901
0.153534647641
0.149882195366592
0.154960527685537
0.151971401201168
0.155864118508314
0.152228391176157
0.154033239573081
0.151486072792033
0.150763334933584
0.149084538552893
0.153900954705011
0.150678373703285
0.155516184961969
0.150276867832327
0.152803327348558
0.150487151714738
0.151292893992721
0.148574543205873
0.15290026044192
0.149542420956635
0.152764463072986
0.1509457857391
0.151677038840562
0.151170952216948
0.151334000284892
0.149024181649353
0.150792736541661
0.147911844422558
0.149822141093144
0.148479700934843
0.151541093722117
0.148164210030206
0.1476194390366
0.148962980869765
0.152388116476034
0.147300667869691
0.148797332263883
0.146493744896701
0.149946301891617
0.147118156774231
0.150261563119967
0.145914103217119
0.148781203935078
0.147670495276253
0.150276643437645
0.146068384623758
0.149362962955931
0.146303779087433
0.147243501053492
0.148064907814164
0.149675371016863
0.14570088510515
0.148623332030797
0.144659576913616
0.151043573164961
0.146769715375692
0.149658999012639
0.145130318066405
0.148773328558335
0.147258532779175
0.145643178732899
0.147108989551452
0.148640884334372
0.144436078942207
0.147785762492606
0.145546134005404
0.149343016402439
0.14636533790843
0.14793491218533
0.145580430182532
0.14837201629876
0.143904560858935
0.146992937305353
0.14552892283944
0.147646540400316
0.143912038908606
0.14750910038714
0.147904231489148
0.14739784582693
0.142960802229435
0.14706230694889
0.143397261827196
0.145802971232929
0.14199491684778
0.145170217806856
0.14166697513487
0.146078947878468
0.141690771507766
0.147178180838419
0.143211068919929
0.146068223772345
0.143114435149049
0.141566012482257
0.139301771901697
0.145189115393603
0.14116523134213
0.142667054830992
0.140606645067617
0.142358609163591
0.139207151125812
0.144756647240676
0.139508521729794
0.141938535842115
0.14240278836094
0.141447367150362
0.138039119989592
0.140170182493455
0.136270103905395
0.141876626828551
0.138158433373127
0.140118531722305
0.136831433281746
0.138509046650999
0.134049466526367
0.136708269847684
0.13528132370364
0.136435923274908
0.13045901202873
0.134798188314474
0.134752345355241
0.136402616084341
0.134394749602465
0.136181118363088
0.130573833123912
0.133543506801657
0.129285738083661
0.132371077937964
0.130198870023816
0.132740282981044
0.132700815606362
0.131878227863479
0.125472631087805
0.129441828705658
0.125260735079633
0.130882100950011
0.125528943341553
0.126659563816508
0.121618280240479
0.123904759317308
0.123391267798487
0.126011820585136
0.124061563476551
0.125535108313022
0.123445962788088
0.12480309803932
0.12304187747701
0.124064632555314
0.119895766990977
0.126251036371534
0.121077756867848
0.122918166209401
0.11991852994371
0.122523280285533
0.11740184167842
0.121351267942945
0.125415899954593
0.128861609442746
0.121108085404057
0.119743911183603
0.119842592611154
0.123792180261525
0.119379555380672
0.120895051938248
0.116631738661795
0.11948520499366
0.117904640404091
0.117941137310931
0.117642446982927
0.11971180159826
0.115281994706946
0.120360666964389
0.117322270761033
0.116766978691437
0.114944892480377
0.1181342494436
0.116112932186242
0.115763518704879
0.115780083655292
0.117376071198148
0.117241690267787
0.117573660464685
0.117254201807966
0.123808838394173
0.120244481544761
0.118963229822235
0.114547795393344
0.113953965049413
0.113048538589684
0.115596403194492
0.112772832499133
0.116434357787553
0.112526826100115
0.116055567872703
0.112777989117916
0.118137862369837
0.116832753586275
0.115688751080884
0.111556122800905
0.113453671480365
0.109977422715346
0.114329567863332
0.110986861025528
0.113044705862231
0.110335806066842
0.112583514712942
0.11505860474231
0.114745423583875
0.109518301145874
0.12135022371173
0.124943074291846
0.118116378158861
0.110149336239462
0.11374397190851
0.106572541871937
0.112669290666221
0.109275886194541
0.111330507915405
0.108293769088735
0.111413308483662
0.108948312910651
0.112163504466772
0.111400903050097
0.109551547314416
0.106571838534992
0.11021842793213
0.107128201369594
0.113658028426688
0.106975256808126
0.107723613993607
0.115965267885112
0.125689314389796
0.113551616627899
0.112101462443965
0.106347131016078
0.113095058311209
0.121151617593089
0.117684273334851
0.107862449418269
0.108499045030612
0.104370984936367
0.106011598802225
0.105599487568692
0.107148767550821
0.108303300294989
0.114646342083353
0.108110877662677
0.110323093646116
0.105433549281544
0.107524671450146
0.105432636843735
0.107958193987771
0.104133774505383
0.108009865642898
0.102063175888618
0.104199111115762
0.103557722439085
0.105208460748856
0.101863688481037
0.105104692573549
0.10733738206939
0.112197361784929
0.103729809194857
0.107189864612749
0.105361606738568
0.103720856824983
0.109293926195782
0.119192920963181
0.103881561804747
0.104165616058807
0.101772104250578
0.10530471586924
0.105806459550573
0.104828949132798
0.101849748298731
0.105375624642686
0.100731644751221
0.105580013507658
0.101983286932338
0.104996915281161
0.100949945120569
0.103634812457779
0.0998907757228651
0.103113302385792
0.1001004031681
0.104303697088034
0.102963291931348
0.106646124420935
0.110593859234238
0.125848110419068
0.117887944617455
0.115712991503119
0.105282913105788
0.105751212693694
0.101745061587823
0.10346106223739
0.102717338674591
0.10606733369944
0.0998283532982926
0.103864682030778
0.102317092265551
0.103814235155042
0.0985348898761421
0.100934949551113
0.0988719601135432
0.100880522700418
0.100343441470377
0.102578850786037
0.0962039511258358
0.10223489801987
0.0992271208603318
0.112404277907833
0.106210942332846
0.102599035928924
0.102131459790776
0.131583755472577
0.12162428192947
0.107852226705796
0.106754937290976
0.1038833258191
0.0970552708410509
0.100573642090886
0.100454627856269
0.107178604215048
0.101388431470206
0.0997803792120136
0.0990557576623706
0.100864080286129
0.101265524017423
0.100618442778497
0.105246853557234
0.131064502131397
0.109365738966097
0.105676516706784
0.0978364010414645
0.11392466224273
0.118793610745391
0.106862664857871
0.105668984418607
0.104600310911995
0.0971202132447868
0.102776523448172
0.0982709770591008
0.101782523489876
0.103254800119102
0.105361553891588
0.102540621759511
0.10240833909996
0.0994610247066437
0.106158821781782
0.105427967945077
0.119579713720065
0.112003317106377
0.105872076118305
0.105955751284851
0.108679739239456
0.101844320437547
0.107983703225912
0.101593362441123
0.105411686797045
0.11185711874049
0.119510043159906
0.109996999706355
0.121950167997199
0.111559054721193
0.107122939990402
0.108145199308487
0.115988920024428
0.109926517675141
0.104651458640761
0.120438222169391
0.134047441975204
0.121991174370383
0.126539732951052
0.108596638992998
0.110641815068819
0.103437609728403
0.107073628963036
0.110885706096058
0.125115493114085
0.107459849838758
0.114151996193077
0.103337638673973
0.129827422336025
0.120875313689348
0.11616738247068
0.11295795891358
0.112340089089209
0.11193557053459
0.124982129486596
0.113390125563265
0.118092547358895
0.135843419852588
0.154444340130376
0.134313875063062
0.119729815735646
0.114742222936795
0.15462510036351
0.11826434510746
0.119081112638593
0.112537202765432
0.118328064336821
0.113088517075785
0.126779561980598
0.142287274358467
0.127558745647949
0.116205948296118
0.124445564788465
0.115175987598353
0.142569746952203
0.129581333792189
0.123764976749248
0.118119148734809
0.123685460039064
0.12265149213708
0.171723096456674
0.141098866292002
0.14876614223716
0.151070542945173
0.149018339437784
0.136741599873397
0.140326189127717
0.133177615424316
0.151940330559155
0.150708884345864
0.139196786658453
0.126315499499637
0.155653526156122
0.154145976148895
0.141174972615692
0.139310582023987
0.136956578484269
0.140603172603984
0.190056121183873
0.200843647817617
0.171882324192659
0.149029742468221
0.155091229452751
0.16832020097311
0.152387914065263
0.148146031854618
0.148519899093415
0.147077666426497
0.150197607440153
0.1511398628237
0.164169612927097
0.152883135799407
0.159312011739089
0.152616328313868
0.162729217007645
0.17972616412406
0.221848554892219
0.201284453587115
0.179101074669005
0.204917692982656
0.19573248342389
0.179719927550032
0.176735731022741
0.16994366255298
0.193003735653892
0.181928840421641
0.183083400300671
0.181722949334644
0.211525633446421
0.201224087891236
0.212142355698527
0.212345278863693
0.201498226017487
0.20694442209313
0.213272826544796
0.353519222487946
0.238451143235126
0.229576619644711
0.238718471021646
0.23654603679198
0.299424962509903
0.250119973823275
0.239560321486745
0.241158804373509
0.249242075356444
0.254050642731788
0.271865918054308
0.268842891503603
0.289020814653392
0.277610215046817
0.28287725323679
0.30446019637721
0.382826914661292
0.345091573602155
0.328913883170257
0.309141005998907
0.337613642458392
0.338689509949317
0.330238045747762
0.336663259791347
0.340213699301994
0.346880179891849
0.407659152350284
0.359160834149235
0.374355983314633
0.373204776358687
0.417365476574509
0.370995421991
0.429280292206294
0.4209049468266
0.419406541568294
0.408018830248211
0.421566246221563
0.425941169805314
0.430916241374258
0.455410649642984
0.461247853079715
0.445564547280881
0.461503128863683
0.451332682121178
0.468606096610459
0.464239049988282
0.479575500244816
0.470310163731611
0.549515328738577
0.487409228830915
0.662044283093523
0.516628255567657
0.502260937263221
0.502361621860175
0.509702891548485
0.544305512935877
0.533126642313175
0.548927798507937
0.548795835796972
0.494157977433526
0.528991732182174
0.50976927277522
0.528025284434236
0.505551922905693
0.523199640351004
0.494274820721061
0.550877133629249
0.519717580435401
0.561623146350977
0.582921606463315
0.516402333609748
0.50342115638025
0.507881472663721
0.4978387360789
0.501992105629889
0.485753113185486
0.502985355946499
0.511858712889212
0.475430437251738
0.478199432795195
0.475675889212401
0.503235376907671
0.500087817083657
0.453596044431802
0.464738269361225
0.43726990493279
0.45147602182892
0.439000426263621
0.45067649797367
0.486678238756907
0.429892460640941
0.416482089054791
0.418396965313071
0.40648563630929
0.410968365996018
0.394937343118836
0.404940622413185
0.397764841190031
0.39006108485303
0.394275076091305
0.385000579352424
0.377814271701812
0.378106420231909
0.380564126959579
0.379089248636736
0.37114654679777
0.368514730072665
0.35749279767258
0.35947646939378
0.360656879700158
0.363691256660945
0.350424807096474
0.365814870728548
0.364609166691474
0.354455042145127
0.352169690568981
0.353791948014928
0.345654475397298
0.350823059648321
0.334815603175086
0.34361950273493
0.335313858337178
0.344266651708961
0.336548473013608
0.339059132235767
0.336392458476983
0.344058583762626
0.334855299532726
0.335770183204617
0.328443817991322
0.342219788566826
0.320276145797273
0.403830053911242
0.352829864235126
0.330915606622442
0.328626857996666
0.325004310480405
0.328342997223508
0.320019571975952
0.370343202085526
0.3484092761356
0.32140126723222
0.321575614293845
0.315441836472545
0.332579505642408
0.324822106076014
0.308385977642317
0.321394669496874
0.307022094544044
0.351940129697066
0.394052611629534
0.36162831263994
0.38918904365704
0.326526990143311
0.308958481238523
0.31115670511202
0.352453474879673
0.292468951581757
0.312171357242522
0.287780239562389
0.355932042384762
0.309965741478623
0.291524985886299
0.293382194704766
0.290390289313652
0.318411435510072
0.328248548067871
0.303210701684243
0.313969463686932
0.343465213840707
0.313300578375475
0.345159139941496
0.357340193723466
0.326246643852765
0.286547030187652
0.288239028165186
0.288790137376919
0.278081392574995
0.359845881130525
0.281281584423684
0.301424926897599
0.274476430014972
0.273742667172611
0.274837644006821
0.301302645309449
0.290253999889125
0.280059540009119
0.323851241791379
0.264519839551222
0.290235230709431
0.288570108820019
0.325770716020958
0.328457873645427
0.280150884562515
0.267119122107301
0.308004942983519
0.319157196517758
0.275384636907427
0.293732961468069
0.259195868635446
0.270300048063921
0.287926855498708
0.265983815202317
0.290060755789688
0.292449585336735
0.295261858041522
0.34136726639611
0.334890584691192
0.318727612586028
0.281343674615727
0.263655971552677
0.26601928157493
0.26631014891272
0.273269295036633
0.263322232201404
0.299362187631626
0.278484784453595
0.256447732668228
0.340782127433621
0.276584699888021
0.27742102393946
0.275235608418417
0.277927777522249
0.288441112131535
0.312251931613889
0.329300597512173
0.316118455619025
0.311588755697744
0.331904563158366
0.296020394490505
0.309869620739561
0.296486144674363
0.316267288357664
0.312868037921391
0.340092035438935
0.333619424601401
0.340788634389802
0.338213486720133
0.352824175425615
0.354731264262786
0.400711661467414
0.351070501406522
0.427667596972313
0.391825148174508
0.468373712934594
0.41294122575589
0.406847235134736
0.419702048339352
0.430016982291075
0.432146982429732
0.438874108158737
0.443952741851179
0.509910854258229
0.444977093601445
0.48590012006572
0.466933426844924
0.494133576324034
0.479997028848308
0.547172370742055
0.514579671672455
0.593021081937549
0.569538650755731
0.543737063177876
0.528588820758481
0.505282730730607
0.527496682144059
0.530081551144873
0.520435151140654
0.525387284448289
0.508489662924182
0.555406610757161
0.518600123440673
0.532395716564371
0.52639621878514
0.529262873849489
0.528708970197219
0.530056847482298
0.52387138723747
0.536360122774478
0.538166460322497
0.549487099990456
0.523977471944369
0.638772389122226
0.565191053113446
0.551740138745479
0.564757141500336
0.557430173357263
0.569973273068324
0.568778536370498
0.58090002757548
0.581831368723049
0.573166306770133
0.586802126649667
0.575067941993844
0.591332919718245
0.58664160771972
0.643313754326849
0.582958176894436
0.614328472598127
0.59020844686566
0.630041274847631
0.670678450831211
0.618881460678698
0.646604877077919
0.61922387730577
0.616528666271212
0.61386412330888
0.620042242804571
0.611866983177995
0.623621139954221
0.61735808395522
0.620781302522822
0.617254560820148
0.616881424377149
0.627626392627088
0.609945607766739
0.646318748109178
0.615020773902736
0.611983674266366
0.602296371674356
0.605098336340153
0.594156325569253
0.631732970391421
0.632115993224603
0.60333359969509
0.614952948441705
0.617444802661777
0.61973035930247
0.621492788700887
0.590788193396665
0.603224119016719
0.597974088417145
0.599130272317046
0.598663837902828
0.60902640803339
0.643880544450132
0.613072984445396
0.612298901511672
0.60514195355779
0.620843805460946
0.615937034490453
0.623903608982124
0.629000370256941
0.632456265809526
0.630777271178388
0.644976436518827
0.645901799638353
0.650651261041788
0.669029744578873
0.68892922523951
0.669155085523279
0.658430489467453
0.669736481899719
0.665612961549101
0.666344385221783
0.678509003518878
0.666469958983377
0.673640948514421
0.666435211550987
0.674518817605441
0.662148039901262
0.708551088280119
0.677620670074647
0.682347191870536
0.668486804254313
0.652886364273131
0.669751325132166
0.656949190934896
0.661999353172856
0.65304035036341
0.665393690009311
0.65334757523913
0.656809404048021
0.646857492670068
0.648165444151882
0.648352838221303
0.652077425868357
0.645769645344561
0.65030351279939
0.638582280761825
0.640097825044625
0.637908997719111
0.636336566973031
0.635657909146747
0.63035857079252
0.65327700574923
0.654162936042222
0.659501726517863
0.649532296649683
0.628036497548438
0.643004222145501
0.628930515439022
0.635861018267496
0.626223811996088
0.641625655946151
0.630132621212975
0.630959331941722
0.626375321376413
0.630559690592781
0.614698013938296
0.620878275639773
0.613349669827435
0.61760204571661
0.602926295296451
0.602469441572605
0.594244035259048
0.598701591470141
0.594935989304237
0.597847807698743
0.593087861014438
0.580409761751759
0.583334570664886
0.577545378136843
0.578272490069009
0.576532193362218
0.578301200568387
0.577483796463763
0.566761920139122
0.569007661475612
0.564318417335766
0.563948046025646
0.560943778907169
0.568630223275517
0.563094606967648
0.566051575704874
0.56177792268944
0.556598702410381
0.55910489036706
0.550408447795119
0.549971965312557
0.546928852591093
0.543120997361195
0.539893346660673
0.538765718668366
0.530364096782569
0.528523448428478
0.525812971688953
0.52260105045807
0.517498332607812
0.51209323725604
0.511547830566595
0.504478188409859
0.507956861155401
0.499957000445446
0.500187940873387
0.494850863842978
0.500519296088929
0.497718449217379
0.490907834937602
0.490329387958101
0.496077084377022
0.490735342129795
0.492912546916714
0.493334168707272
0.489658704605004
0.492702265428046
0.490026270711438
0.491819354347683
0.49390858741438
0.492934846728062
0.493636413329764
0.50221608024515
0.49693330033031
0.499006995207427
0.50137486009751
0.498449301399205
0.504627807529137
0.503242249048252
0.502856481949672
0.504665082622719
0.505125442239321
0.506309078735029
0.50865156674365
0.503709648787991
0.505078778526217
0.505619917455929
0.510664000225424
0.503592931381473
0.508473776851816
0.502967072358402
0.506437172004749
0.502834250947165
0.508617168715025
0.5025407804383
0.503508524203091
0.498434013571605
0.502418271727366
0.504840795954583
0.498787347980531
0.496804060847569
0.496934094725215
0.496868674156152
0.495730706975527
0.494967762653262
0.49139922118613
0.492874978820218
0.489710013276441
0.490109861560936
0.4844695639737
0.484320967347109
0.484212332869503
0.48212553929431
0.47675867076467
0.474219050073323
0.472864757245109
0.4676698181197
0.467341091832034
0.462087240133777
0.46408773379957
0.457176395244486
0.451997034590516
0.448180534474494
0.444664645318445
0.438518847673783
0.436862700749487
0.431499007950263
0.426824619705344
0.423331658291619
0.423356776813828
0.418802732762998
0.42129673183024
0.416902172516407
0.418686563854926
0.418349644486962
0.418106165979038
0.418061477463331
0.416240957583705
0.417080377348419
0.416871185125638
0.417700690172444
0.418630318038161
0.419124334275402
0.423123634464043
0.415726219121272
0.417510224100107
0.413637125953113
0.410657329553412
0.405564387184842
0.404566442586798
0.401141876352462
0.392158878622294
0.388471169444583
0.38394842714022
0.375768521041523
0.370202035328029
0.364692972734451
0.359646423965126
0.353992972173093
0.349289634486589
0.34447908614634
0.344973083659198
0.337228591124467
0.336293615583535
0.334627536820802
0.334431076991252
0.336075564143327
0.337640034834937
0.343347263061263
0.348475416722831
0.352730268965745
0.364004569343947
0.365109341009863
0.375673021989031
0.390229190584898
0.400020986757575
0.414889337453773
0.429768130783306
0.446741772550102
0.469147177631926
0.48355607324318
0.506795111909129
0.530834925585356
0.555577055150574
0.584167694950844
0.613196392835653
0.637053860692065
0.670804595156221
0.702002731611764
0.733692392418634
0.762490120475135
0.800285746581069
0.831871675134589
0.858818217862126
0.887275873091323
0.908397905899968
0.94829458219479
0.960932963454818
0.986530486852189
1.00196763410393
1.01037012081555
1.01742397542002
1.03168696863208
1.04080448401301
1.02860409874673
1.03081956765691
1.0130984010409
1.00635417402376
1.00339355960691
1.00466517982198
0.97984575611128
0.976557880820467
0.953696690766814
0.94044955662992
0.938298586763869
0.914311862985311
0.906145585754525
0.90622364758677
0.896875006491289
0.889743900479172
0.893542123284773
0.895490566885406
0.891850053325622
0.886632737742425
0.895245766636403
0.898131367258054
0.908037962566043
0.915993470624287
0.926342255219307
0.926181998024898
0.936584020366013
0.949864423977752
0.949859187238491
0.958953541564445
0.961753906250813
0.974903886164158
0.986956190315288
0.990340079803752
0.988887895426363
1.00772804420657
1.02026963595413
1.0106999636464
1.02573250768533
1.024378164036
1.02392126209458
1.02743160261939
1.03112055130496
1.04140837833754
1.04199319530197
1.0351505417886
1.0476874249322
1.04929396585164
1.0609132998958
1.06598948540678
1.06451953790191
1.06736253132717
1.05841047938202
1.06657463886563
1.06952780506761
1.05972883430104
1.0618414799644
1.06869824795336
1.08238421840656
1.08970141931549
1.09244555779571
1.11502979922013
1.13780436824564
1.13914682723988
1.16481022692039
1.1699179613011
1.21341540532679
1.24987983559106
1.27131438674383
1.32313968316958
1.36070448198757
1.35326896270073
1.43272060496882
1.45042652967407
1.48695906691391
1.50231205938185
1.50074276993932
1.48928519173575
1.60558739945746
1.50445686452716
1.54687313784479
1.5161673644607
1.49847306208155
1.48759080850766
1.48410838757123
1.49406156673296
1.46799522371269
1.45173488515471
1.46706171577175
1.45900660987347
1.46855410284453
1.47961923556075
1.47724490663288
1.5421936597815
1.50211650928815
1.44936213909551
1.55285147606624
1.5621045121057
1.57109568501129
1.5983221708621
1.60451268341217
1.65395026183
1.62798796707188
1.5893231612293
1.70466955064357
1.70027058623031
1.87496118330644
1.68600171798714
1.72236660723121
1.7146926037798
1.7695895676689
1.79914819891392
1.81398141673679
1.7688553027525
1.92627314990929
1.92886609516183
1.97575952416849
1.81848315779808
1.96627918191569
1.94280830126687
2.00898178305573
2.13828648676105
2.6386807951912
2.10251024176591
2.26782779429359
2.20472106010914
2.46759103772645
2.09694928764949
2.1647684674673
2.0703267884567
2.05212252284196
2.25147597672601
2.48272771319979
2.16019522863722
3.02430008385945
2.65818579437275
2.61290346827168
2.21095192163207
2.35893953247266
2.35721137029169
3.17394950348869
2.62292114442437
2.85831102403554
2.36856766425519
2.29680078837277
2.28021635385514
2.68232390661138
2.30719637174376
2.3955529561567
2.24811962801192
2.31476081899417
1.94860339589382
2.04682548224015
2.26487255553554
2.34510015342721
2.0165297606454
2.39920227151027
2.5568874359508
2.22597074883866
1.93716578140898
2.17715694565481
2.11363492437598
2.38670277390318
2.13529456363455
2.00458385762286
2.09704925978437
2.13750741207769
1.82512213210186
2.31754698986234
1.97302227076531
1.91705532384224
1.85036090930991
1.89171481734146
1.86350539069289
1.76892158499426
1.66153544646372
1.68081598384561
1.54272040773038
1.60954481280477
1.563856612971
1.49253989568899
1.41254692734621
1.47463765107938
1.41242001372293
1.34326287149197
1.29528185241162
1.27745794895632
1.22319772023016
1.21343356713534
1.15321919437259
1.1438986558837
1.10961465010823
1.06257695834426
1.04319372933596
1.00267870457977
0.942910329488859
0.933503159099816
0.891344031716428
0.8785759534599
0.847300907108864
0.839022117402774
0.814529686321246
0.788110645500529
0.769759767664022
0.764055860108481
0.744881478065008
0.739172276323134
0.725392008409839
0.716095522531112
0.71320848993267
0.712787593843724
0.709703790014954
0.707475877376536
0.707690678046196
0.717378573526682
0.714900871152113
0.731060872319428
0.738926098195538
0.743140381343879
0.746646483481081
0.758418134244228
0.760868243329075
0.780842981243094
0.789408887259095
0.806244716870559
0.79704007150079
0.811049334679022
0.803817416198422
0.818331548248696
0.816206564260011
0.813590510170977
0.818958051387041
0.829468501564224
0.812452470582594
0.825403000814387
0.831828465799994
0.826509274210016
0.81920602387679
0.818727443791444
0.822255451701051
0.824370688738078
0.819009714882624
0.80980398250773
0.806666007301369
0.809098916837382
0.78343588186833
0.788487179847945
0.779189938637275
0.779221388276511
0.760952858207318
0.764373349367054
0.761830346786237
0.755240039753816
0.749849002613241
0.746617863366761
0.737534016074624
0.730347494290481
0.711595365725041
0.729635415084781
0.726549625637678
0.727436238394703
0.724068804814262
0.732495969077127
0.720674073750544
0.720390482128536
0.737950302232628
0.729859492114268
0.737203040662988
0.750980473029915
0.745154773157578
0.751117525557258
0.765484192195744
0.758753157017239
0.743442546185962
0.745989107347308
0.742428228232794
0.747260532661067
0.725477402371114
0.712645920730153
0.69850339627174
0.713613826069848
0.69039200633734
0.670790605546023
0.692154963218479
0.690775449141701
0.671750973600776
0.666300941594433
0.685362554204946
0.690897945218698
0.677326951449558
0.684121505100567
0.679475258773239
0.684391683784763
0.704317485823608
0.705856169195801
0.697611134452515
0.708767696466386
0.707934031701376
0.717517521746823
0.716805713306964
0.737162948639965
0.748796816202302
0.754095743144155
0.742596463994431
0.765691186045618
0.763309434127735
0.756856717242984
0.74845849977708
0.766186567575611
0.767592027879895
0.780708936005868
0.774439687198368
0.779862722525848
0.776066492897541
0.777238192308742
0.779605866656471
0.778505082505682
0.762277343440668
0.783640929244224
0.763447971404263
0.783118951648259
0.778676517868584
0.789120618158215
0.796751499420675
0.789500101575972
0.787590650329026
0.783725362525108
0.755820168901526
0.776913765050865
0.777444834410605
0.786704271311173
0.783678333581906
0.77851529958785
0.754525728032315
0.749267383875222
0.748949992846324
0.748795380129331
0.74685698233819
0.736130559481084
0.719338940706367
0.730531460404569
0.710463819907014
0.723216678147758
0.719760005496684
0.720667608226755
0.716025872530457
0.726837866834234
0.714687697735366
0.709346321737112
0.724208514613999
0.712358541793961
0.707968079083426
0.720282879077682
0.696730880495226
0.727845296363456
0.741375375903488
0.710312182427569
0.736842372523606
0.764214520563881
0.734654075830775
0.753385475769894
0.724558885017111
0.739465702405852
0.760175414239125
0.734689314750245
0.734884125536621
0.756322210019383
0.7636490315927
0.795153744354244
0.785618938870076
0.770755071229559
0.763979827533252
0.807237105609348
0.802270223692556
0.829746341519822
0.82972229014383
0.832944455289666
0.817858795466716
0.827580023542293
0.886317585213073
0.872834042521567
0.865257875069614
0.8804744640772
0.831162474142622
0.877539120554117
0.916000824114946
0.922686210699862
0.943276541986753
0.953240718041969
0.942847617433264
0.938169626861099
0.935779918539394
0.945632318153042
0.926211150675563
0.955031730493837
0.934829088345568
0.9999713560718
0.987079748940194
0.983469021195424
1.01998337717613
1.02669704347868
1.01330199940188
1.01497342462635
1.0395055677165
1.04066679660774
0.983477328173413
1.01100879150066
1.03390280808268
0.984989925016068
1.12177866167625
1.11665760780389
1.03497842276051
1.15052540295085
1.0908463190714
1.10113288256726
1.08209014297981
0.983225602547959
0.961756476153132
1.03702710931305
1.02436406954052
1.19775429264665
1.14087349116938
1.00994516501142
1.07891739959816
1.03538069558395
1.00141384165749
1.0967826817538
1.02077887085707
1.05552924250465
0.999619623959997
0.924657116777123
0.99841022674657
1.02416034824951
0.990883367935518
1.02699325048142
1.02217604493046
0.961821498002532
0.961237860863296
1.03161554364961
1.04944767153607
1.09986324380368
1.0772667898517
0.960726864848196
1.13636462860736
1.13306299775204
1.05053830451993
1.09790786433992
1.11998378696851
1.11399810618966
1.02901554850485
1.08921216493893
1.20999587675334
1.05347264443107
1.12854351528127
1.25733749280799
0.983385368598159
1.03822059484593
1.13839175718617
1.16172601565186
1.05669914182898
0.949251808157054
1.17629468313988
1.12716028892364
1.05527892591737
1.19379519727807
1.14079672026799
1.46407363463637
1.43452683346557
1.04751591453365
1.2842013534524
1.4180932806647
1.09616846980974
1.15270891683887
1.57542472453997
1.20341621817227
1.36652884484156
1.47597076966169
1.44306028173862
1.32188106154244
1.09295067701178
1.12549107610361
1.17265449091154
1.04810477777259
1.27604987760986
1.16521934033448
1.14383952460948
1.29557676724256
0.992550215224937
1.05492872315595
1.18088102423852
1.14815276798514
1.26087814714305
1.2137536586423
1.21617940396762
1.17461227963558
1.05872882935153
1.15479995478011
1.43568963438579
1.34354098879796
1.09771591651349
1.1795122914343
2.09249783453116
1.19276220873801
1.21584324057003
1.07463600688327
5
5
1.01202035637818
1.12224234460177
5
5
1.3727724700495
1.13032303621746
5
1.16365655108664
0.830211442677682
1.16778698263223
5
1.93055051182142
1.16110589813502
5
5
5
5
1.25494837403808
1.21071168261754
0.959607684118566
0.727750440606378
0.975914444718065
1.37894817361284
5
1.90795285168887
0.984363466379649
0.60083512057319
