3596
4000.36533379555
650.420452594757
1
2
2
0.0317738740252803
0.0382158418898111
0.0415586564154689
0.0473690386979422
0.0426331167247703
0.0438523216094202
0.0345793470906368
0.0447234667364032
0.0284410205418172
0.0427562050956622
0.038542610194501
0.0433465026477122
0.0293259509587385
0.0383257829317051
0.0327517401869484
0.0433865052505604
0.0294507697071226
0.041960734893779
0.0394899862999462
0.0457757926251406
0.0323103522445867
0.0452770831840507
0.03375774982708
0.033507954340573
0.0351688439243466
0.0488851521111594
0.0302354626917578
0.0444790521872043
0.0360813901078891
0.0497732824061218
0.0321091113133914
0.0451811129373273
0.0393863843875014
0.0400139528155295
0.0298989931193644
0.0393838963637889
0.0306174921950724
0.036466066681139
0.0273455831613857
0.0454946039603932
0.0390116910642863
0.044591174516227
0.0311018971229865
0.0439102458726779
0.0313490024310275
0.0410013083664718
0.0314691916747269
0.040708755616772
0.0338603481568635
0.0416891178414597
0.0374999902572083
0.0378572271258032
0.034811939797982
0.0446951532456992
0.0325886701226449
0.0459570377936601
0.0311987735286312
0.0376775946003469
0.0328420753514189
0.0434268489171203
0.0338015036841339
0.0476494327314274
0.0265766191635485
0.039558674785875
0.0304265073341904
0.0453503631818636
0.0271770918560778
0.0403283818837461
0.0329601101444435
0.0500174178637835
0.0299417962530604
0.0427915540097966
0.034155725946925
0.0347849123555684
0.0381459887028511
0.0421254667928339
0.0321645761031444
0.042975226009145
0.0226441202078475
0.0495568239802386
0.0339420843921446
0.0416525860588795
0.0336785430734834
0.0351018103949849
0.0306956606633536
0.0427569792067997
0.028190015094171
0.0434105711065114
0.0385847078270566
0.0428615379790466
0.0302633283883535
0.0442111092626986
0.0300451671544168
0.0345836283599718
0.0287320036306484
0.0390818572595158
0.0255666647868398
0.0446743460767771
0.0269796918506816
0.0331280445970824
0.0325936801687632
0.0364401403233776
0.0612915838723936
0.0248656018823268
0.0474111711646261
0.0451280197928053
0.0244114991520065
0.0641011859455874
0.0242488361964811
0.0427486023004282
0.027390625730128
0.0413111554903247
0.0239374326874702
0.0454798685404824
0.0153644815589041
0.0420239188603642
0.0415575295867919
0.0380672517618797
0.0287234667093278
0.0397559180322229
0.023368468728089
0.0413166751695225
0.0460519912351073
0.030818762979794
0.0427729343773394
0.0359476664059679
0.0161277715287238
0.0403769327063065
0.0397905389644336
0.0347914263007429
0.029546916299182
0.0322638868450394
0.0312708426148347
0.0271211477710555
0.0467992315561445
0.0368031363828832
0.0340551206428727
0.0236277374994966
0.0181403679847416
0.0553528834571732
0.0325449188679931
0.0438474987906205
0.0240935893000541
0.0321607113132866
0.0412231517925815
0.0416945134350925
0.0240918340506122
0.0384019480552427
0.0350368183281678
0.0338458177746216
0.0343342786399854
0.0315718167285662
0.0340724307781909
0.0511272160523333
0.00481008346651344
0.0391290494120491
0.0477812678720346
0.0183123958325912
0.0577865942497941
0.0194249026533771
0.0348692454342184
0.0323520346191876
0.036607740306427
0.0346515135557304
0.0319302177298487
0.035021704358975
0.0333329424844505
0.0535464363979797
0.0308263913726941
0.0320826527699623
0.0246760605141999
0.0384946341232802
0.0159388511588247
0.0606279349804645
0.0293762674399014
0.0254648243371149
0.0390545345300575
0.0418754144196506
0.0289323372506778
0.0283280145424678
0.0437890050942684
0.0347704039183559
0.0305429301339205
0.0328879895670645
0.0286152462462269
0.0382529219708342
0.0328056954813577
0.0318530308969628
0.0348145004062444
0.02419847121386
0.0387225998000409
0.0427787457108474
0.0475281532411289
0.0322785421450484
0.0376399508711407
0.00868298057257169
0.0344472777580077
0.0504521545432252
0.0318435988254087
0.0375531531602571
0.0238755219963182
0.0313839329465391
0.0345080278020669
0.0367489584088992
0.0315848781108311
0.0200016031192504
0.0477279287075519
0.0338794089416798
0.0344168686423604
0.033061007351271
0.030861081007135
0.0199628328141607
0.0383865192894045
0.0466660213849319
0.031483688462283
0.0424594665053512
0.0279737790444976
0.0413809819597318
0.0399404204286235
0.0354483771162672
0.0327157992110934
0.0384283297903655
0.0328819680946753
0.0363198763111183
0.0316475139167655
0.044819564678099
0.0341606338414385
0.0382952268204461
0.0350336574120484
0.0335900276489698
0.0313567546382163
0.0351368650032291
0.0290916185045253
0.0400242760151791
0.0278489682366187
0.0399348737951414
0.0452748498801366
0.0347478082289975
0.0326133739804549
0.0316869470747101
0.0344173361321365
0.034248196194447
0.0338729729425003
0.032636119975613
0.0344443087364937
0.0247378193812464
0.051661896381334
0.0350298019779613
0.0429504931759011
0.0255391943004114
0.0374531335167437
0.045935657240577
0.0356242277985834
0.0362416449930217
0.0321931892923272
0.0362563633032603
0.0234880140213417
0.0553905293161602
0.0397902698200909
0.0353745555014787
0.0400543248481795
0.0473165373733268
0.028917693564767
0.0408970550807217
0.00653762099392549
0.0642827629504025
0.0413618463647859
0.0244525608333232
0.0579999951599106
0.0414860556130599
0.0271249711838338
0.0395870903171222
-0.00289857175412405
0.0897740376415558
0.050072383000467
0.0401529703766984
0.0252459925725481
0.0512017917050886
0.0281422294131625
0.0414040335179734
0.0376625629217391
0.0448827289987945
0.0426356955567528
0.0235222721987755
0.0647672004473239
0.0243173465109345
0.0449609702091249
0.0566734678182135
0.0363368055116869
0.0393092472372347
0.0374157808436676
0.0352292431285464
0.0325223744359165
0.04801295343938
0.0316052889563741
0.0444471909688415
0.0251646304790428
0.0563094062597025
0.0398023241549899
0.0456147942807289
0.0340685814594802
0.0526697287174593
0.0335811537757007
0.0511148058779197
0.0406124741642884
0.0515101502494739
0.0378504122592338
0.0333649484786716
0.050670481313731
0.0502329325644894
0.0288942534904992
0.0593924992277399
0.0359557381910064
0.0464998629013603
0.0375380512154583
0.0454913430315773
0.033485365629656
0.046350926770745
0.0342492176636358
0.0573776017637071
0.0458546678835687
0.0481484612644707
0.0414546257636865
0.0482453730778842
0.047120602408748
0.0514877021979029
0.0495657595081056
0.0543343029214338
0.0435137091045253
0.0477602823459387
0.0454582395753395
0.064970544150663
0.0335045141146552
0.067849147668065
0.0599355615912825
0.0522058230715249
0.0576393604130704
0.051890980550404
0.0563068640779846
0.055477741779645
0.0523217381928774
0.0542723536581904
0.0502396848433717
0.0585229504570394
0.0554183361340445
0.0588278275562315
0.0523946005369784
0.0761318980350499
0.0858759964026085
0.0645658871166392
0.0617940548387283
0.0588513699826644
0.0688654065690427
0.0848019053592566
0.0714063231794919
0.0916529219855074
0.0641064656956644
0.0825278589733444
0.0658711674540695
0.0792733504507504
0.0691229805984578
0.0842596215573607
0.070690399653277
0.0853641983499634
0.076185029403937
0.0899923014955829
0.0831254731640987
0.0855733080403053
0.0884266853663061
0.0959197853739001
0.0848835514081459
0.100454463570978
0.0832505350429046
0.107085186844363
0.0919404129074859
0.112844866967954
0.109517077854564
0.097821094984411
0.119513519879578
0.099863608437425
0.110981707386706
0.106298148440671
0.109847736177393
0.114820524179249
0.117170850792023
0.12128933169456
0.119175682735819
0.119703069911326
0.122681808797927
0.119993985143521
0.126081055833764
0.127409909775693
0.141622131829903
0.132210717670071
0.136327359043349
0.13110384819504
0.137972551647573
0.151720736407031
0.149550833104543
0.15068966984275
0.137406209478338
0.148614109970137
0.145518643277459
0.160714135603229
0.149169184789429
0.169551255722443
0.149602877970503
0.183263260176472
0.164552978049615
0.172633715907184
0.181799230347971
0.162805478596456
0.169552623271277
0.186883779756227
0.184783075843116
0.196381255927637
0.175837445896849
0.189592652755599
0.196560459668411
0.208001845017918
0.185083297975968
0.209901469492663
0.184110872342812
0.203345732522058
0.194882397443988
0.214481665158371
0.207216600585899
0.22434072450901
0.215712453796591
0.223803727725182
0.218523505425352
0.228012280762198
0.219497223206325
0.241329285248461
0.237155634792159
0.241164716067603
0.236822547711939
0.232615734954598
0.247073433391602
0.245079220412459
0.250537191170914
0.26537368546612
0.237050220899367
0.273754191707243
0.242840998651983
0.258120283500681
0.260065515067594
0.279754019165547
0.263331701195516
0.280003768754479
0.279085631344417
0.28361058010889
0.284432851951219
0.308602451320151
0.289275708713979
0.308738790591007
0.294169923438055
0.300126349408796
0.301721016434443
0.321385382366578
0.309594932625996
0.312598583818229
0.321730150451348
0.337459765818286
0.314567508492226
0.345299728662474
0.316048169661805
0.327664488338009
0.319663781428428
0.342157316787478
0.328722227419929
0.360561542531555
0.348930738048551
0.353861811124759
0.345877033583047
0.374749477654869
0.362365175233575
0.379814482509266
0.367887211675931
0.40174181792436
0.37705016487844
0.389203659266529
0.385463470700709
0.386288752461709
0.392892886446396
0.41347875354082
0.380118551529322
0.419153137190413
0.401881255959922
0.408385060663099
0.417190148104356
0.429488469952479
0.431101597197395
0.434746109776822
0.412542522421055
0.435981478881075
0.430408044216752
0.444403001020624
0.431156388621498
0.449987170720974
0.443887968303285
0.46255471285877
0.459163912766754
0.466903995529001
0.460228398682406
0.484246608613628
0.474658812377108
0.506055638873428
0.484395253188987
0.498190473271757
0.489189095697652
0.496175927860111
0.491049232774559
0.52142102357788
0.498675396970248
0.518172010555413
0.48025853549925
0.515303927680475
0.515951451525333
0.532554909550685
0.514112703463224
0.539083203377001
0.525686872534237
0.548113503210909
0.536685687952662
0.543118951128164
0.53473259282936
0.553363019874281
0.546082262553997
0.558178118337187
0.557424537381359
0.573272374928124
0.546532111598067
0.577459231637279
0.559762670125596
0.596937444173134
0.588366220152457
0.592212392321755
0.574460712749198
0.590977257049636
0.581065441761239
0.606171151428159
0.588726777674443
0.608576799832608
0.58988596271668
0.629944520849813
0.636982447810375
0.640016084198014
0.631905572480719
0.641433722859141
0.618380639826233
0.641094811231687
0.639953553617517
0.648499388575106
0.635433018838366
0.676939216472024
0.621709320359053
0.65727990783679
0.691369463251509
0.671569604960414
0.645175225151564
0.703992623432391
0.6788925501188
0.720766223854607
0.667554511771274
0.665574869695597
0.692988810636301
0.694616850316886
0.657133229998854
0.716900443989461
0.707693060465678
0.718481431002552
0.709044610915572
0.748138967108862
0.723876574990791
0.749287849496283
0.718470742433498
0.735348020344668
0.729799665248422
0.754084487856851
0.744469090575454
0.762406200024211
0.746562505595015
0.784820048493127
0.76489465383817
0.777184268032449
0.750804494889904
0.79117342464205
0.756800150021712
0.781625060290187
0.754105924128228
0.822122492332139
0.794867069282556
0.815729071897367
0.784207040178634
0.769785968086487
0.766801684165842
0.81533487608759
0.805520753652051
0.818578600697047
0.76800706660111
0.787808724110488
0.789040580749297
0.851479688878887
0.834999832848263
0.845346937437469
0.839467020746923
0.842229243717036
0.803415296888933
0.848043059368364
0.838695780611204
0.874329801806379
0.848275670783441
0.88387216685974
0.841945445199997
0.860388417791788
0.869403282383555
0.858315464292507
0.847441929083771
0.880794718446602
0.883977889792829
0.910988274826982
0.884662473738158
0.897304624412636
0.867450225395865
0.881031348463991
0.848125239724347
0.91081643101309
0.873577575858838
0.893832582060233
0.901420051988742
0.934537382271066
0.900015632235423
0.91670815964684
0.89662069278698
0.921523014236238
0.9166088870292
0.940033064813999
0.922850229664932
0.918941114841861
0.882494165312182
0.946894097919826
0.967315339255759
0.970172849857422
0.938876601958327
0.941168336620312
0.937855376751728
0.952893026607674
0.943559993771303
0.933227264784467
0.885075586802764
0.958086185863395
0.969241542278994
0.988264753919068
0.966485089981771
0.995618902010952
0.956825145006604
0.973756036520933
0.969513473203371
0.985022870578648
0.944144556236695
1.02593885251879
1.01866326834771
1.00329239671185
0.977043756621288
1.03390815630476
0.975961859036221
1.00241813009239
0.974184402494557
1.02973239932141
1.00627695801918
0.959215450020959
0.965956491786286
0.981952383537399
0.959699351687142
1.01144139955224
0.961492014309976
1.02080317304302
1.01397788508758
1.07081469651214
1.05660055241468
1.06051164451068
1.01015095992321
0.994743037606926
0.981860073133121
1.00767332121663
1.00870582091163
1.0445783136683
1.04168404299197
1.05962700232067
1.05274912121022
1.00490706097846
1.00735153371595
1.06035025412042
0.993869434150429
1.01865429150658
1.03588166403846
1.04974194962979
1.04994239420224
1.08947114931941
1.0348633186389
1.05907981750539
1.03801777284852
1.03360665297443
1.0272360392618
1.04224268179778
1.03383147527569
1.07827442046337
1.0798064856728
1.05016697546339
0.98919869754699
1.06196363727877
1.05381627753919
1.0606250273388
1.00626903793116
1.04942851456559
1.01034237056449
1.0262048746956
1.05075909908646
1.06504683475387
1.03489603424678
1.0488288143632
1.02502700131575
1.02939147936047
1.02831081781607
1.08245268468682
1.04081171989795
1.09973733224638
1.06955726143804
1.05454216620291
1.06520279981285
1.06359816613245
1.03098711768376
1.07959733140631
1.06478528711817
1.07262470444664
1.01645317567219
1.03408439882167
1.03458700944851
1.02842076065474
1.03830550618149
1.07729371615338
1.02982346495696
1.05885660193964
1.05807306534066
1.02128126141758
1.04055679377196
1.04826803861482
1.0520914162018
1.0853271436259
1.05436516370822
1.10336723755145
0.99499144262524
1.04215268625305
1.0658138181152
1.06122396573075
1.02901378108861
1.04802023676333
1.04556190183896
1.05199756917476
1.0310231522737
1.03924889859219
1.02896799847899
1.0051378191587
0.988226472416801
1.06658166704857
1.05493742800275
1.05468054565591
1.03181195618161
1.01680812333874
1.04222953051857
1.0814395959127
1.01533857222789
1.05375899593075
1.04742444089735
1.01592574542642
0.989558891977926
1.04116071757413
1.02451317774901
1.06732015798471
1.02501549320905
1.03385288708717
1.01346561182677
0.978896260763043
1.01233451517082
1.0641413414963
1.04503047501291
1.04194164566982
1.02546331194183
1.06776501156409
1.0351111949187
1.03785946983207
1.01547788385498
1.01815202509423
1.02196736577031
1.03346670104877
1.00492999450261
1.01316455885173
1.02543898589799
1.02589865664456
0.998072792415227
1.01643103274358
0.978355463976022
1.00991410637754
1.01905782185172
1.00164197761622
0.989877415782379
1.0026497887581
0.984747417598708
0.983772917736401
0.97276364172731
1.01393644005359
1.02169051355836
0.985961812035876
0.98966898816994
0.993358369707826
0.942373369617662
0.990794379200902
0.979770190812634
0.985573439310074
0.95304615281736
0.963300107435836
1.01121756901456
1.00569721146606
0.951041698183155
1.02054169850625
0.979232798567628
0.977862076668555
0.983531373837
0.942090727493851
0.94870105474405
0.979235510047259
0.977347086475546
0.989020565987352
0.953293728947529
0.96768946953122
0.936210869278344
0.925400122112865
0.929508967878153
0.991048699821949
0.921422401093135
0.923021853134579
0.926586252912265
0.905001465665713
0.912577325683874
0.926552228650591
0.887067380169091
0.937677610791588
0.934077336835752
0.907537368987567
0.907196183621473
0.902193204315282
0.922843479559529
0.921897526992914
0.885499271406815
0.881076411939326
0.88511005940036
0.925843880375537
0.894542552195518
0.876209279544708
0.886060389224933
0.882337463219125
0.856661454241897
0.888445008421676
0.869060697190183
0.857277861171398
0.859486935408707
0.87433996995769
0.86123779779632
0.879397944417614
0.871624986007873
0.874928356180787
0.844471451088192
0.845807819436054
0.839217150642138
0.827416616808915
0.831774161769331
0.834620885499362
0.830386807884512
0.844411295363091
0.801160528212425
0.805255586059199
0.822583227810095
0.796651297548791
0.793157966471105
0.814141527976991
0.788486253064215
0.796941797379695
0.790299396998081
0.804899801262053
0.817617308675905
0.807423140770964
0.785063077877824
0.790685816830921
0.774418649700842
0.78113335580284
0.76603503775698
0.771714848332857
0.761518278219691
0.773954975049978
0.758101282178195
0.756433295542545
0.739807748691118
0.735972386266159
0.737312203683116
0.74489814355134
0.732993005255532
0.745665895118694
0.716852267656004
0.718953834083148
0.724158801248393
0.729986837050301
0.720348572303783
0.720165861432578
0.714865968087277
0.707116537364053
0.687595936762204
0.696060470073608
0.691458493794801
0.704531773061978
0.69264141541331
0.679923124954463
0.678649025601798
0.66907562896277
0.66635270227843
0.677328283233474
0.654358100012819
0.663716237331024
0.656525246420975
0.654677014748487
0.658020673238696
0.6617313607647
0.644241215109503
0.649802001380967
0.64261885928882
0.642527436073792
0.64227590628416
0.642990620243334
0.629451184469718
0.629248547080862
0.618879807033288
0.614565224938344
0.619798243134586
0.622884272367949
0.597289352141996
0.60970496608678
0.599791940880018
0.594517063582902
0.592894146244001
0.592883530364561
0.589723383596057
0.594144771919924
0.575994372177362
0.580962437911917
0.576683510629368
0.568910782698909
0.574054379856563
0.592523005150533
0.565452664937868
0.561269845631792
0.563726468345319
0.558757185257162
0.550570100563181
0.558627818014302
0.551221643848543
0.557236965873159
0.551482997014799
0.548266404880181
0.541437501130992
0.543174644201355
0.535688866833387
0.529142994440854
0.524360092234045
0.526469385178884
0.5137027723125
0.526495625807886
0.524832337787916
0.517917149546028
0.511075214985808
0.501771033068869
0.500274869053747
0.499640397817813
0.49129206495941
0.490945634555028
0.486923164510128
0.493838128998522
0.483435496186558
0.486208148833459
0.476787150670513
0.484998686382968
0.481332901291961
0.479244994512627
0.466377755284986
0.470885853390057
0.473278062149275
0.473357598967677
0.459769954698369
0.4614994500837
0.449125150999353
0.448971204006559
0.457322578575618
0.456614934010107
0.44345472289733
0.454784550121694
0.451032584978244
0.438858892109877
0.437916209991642
0.439950157860723
0.429148565778843
0.430282278443774
0.428054201116235
0.434060323008451
0.422432623005353
0.426604463524263
0.427111677800836
0.41532808909075
0.405644757026588
0.412539378318823
0.405072247524505
0.41124620671429
0.409064109521958
0.404109563465987
0.393132318066329
0.398360492091352
0.395712674033341
0.396123700428884
0.387550347270214
0.389856282009064
0.385762541996972
0.389827327769496
0.387723032312383
0.379346852952125
0.375101712359132
0.376923524838678
0.37778308715406
0.380162923743223
0.372424868309892
0.376611906933493
0.370974026485126
0.370701825788808
0.365348361690399
0.36548353340969
0.357319267643573
0.357516678519345
0.352706990241747
0.354537671750187
0.346492081124704
0.352623961571676
0.346092462938174
0.344936472043485
0.345425394154671
0.348901774878192
0.340230374435341
0.336775564509415
0.333981514896265
0.33459618586234
0.332053840132396
0.33070764488719
0.324885586044028
0.329549976454902
0.326464765426862
0.329172199420914
0.323232691648262
0.325329088986961
0.325750201673345
0.322146188901798
0.320602103370864
0.321420390993189
0.317261214461045
0.321194529102515
0.319926702961879
0.31997484930455
0.311430997452709
0.310784560151354
0.307874736951447
0.312221592615275
0.31175119604775
0.311781131927947
0.308909212299765
0.305341763536803
0.308924458869581
0.316520807045955
0.304816610128277
0.310211806828388
0.303221918791878
0.309626616220084
0.309530953422997
0.313393390649743
0.307465129491139
0.310585128084001
0.305276565813201
0.309596249871132
0.306555091684891
0.310284576473705
0.308537131457085
0.315151524441994
0.317346263510594
0.314870101372576
0.308337194649055
0.317521690868911
0.318692289574857
0.322063000272946
0.323631272861892
0.31977615593077
0.318392233628751
0.320879128932508
0.327660137721573
0.333222463223495
0.327362662203671
0.331778010899621
0.327647825172567
0.333649233494856
0.332275378437899
0.331130576008095
0.330157753951464
0.334238993191752
0.335070528104129
0.34111812986794
0.336915431500903
0.342625524291723
0.337804036653441
0.346560287190925
0.349791603074257
0.345098737684574
0.351072102265763
0.358561578433188
0.353573128492312
0.359297142590679
0.36406930361324
0.366640276715942
0.366148520094393
0.371366058228992
0.367708164907465
0.377020910814792
0.378175114779804
0.389740878786728
0.384519481845752
0.384271287356331
0.387439012088126
0.394265058001998
0.397317242443151
0.398142022991984
0.391159205546469
0.397187691149853
0.396578869093409
0.395928449183427
0.390986557335666
0.39700520438177
0.398936575401714
0.402875287290729
0.401540953384455
0.406878682340449
0.403607169254034
0.407792695220817
0.398270370050563
0.402486941825558
0.402107415200815
0.400737976180845
0.402151372787433
0.399098324058312
0.393491912700267
0.391208225507297
0.394169318136726
0.404644074176407
0.39221753263465
0.397308316738856
0.393352036741709
0.389611042716621
0.388765767728801
0.398919635073271
0.393986915839922
0.396627708794287
0.390771626342998
0.389013260514395
0.390475461190956
0.393968212088097
0.393217551458677
0.395917531737247
0.387287659230183
0.390208058934378
0.392252486723401
0.396832489229191
0.392312122155171
0.390768120960997
0.393151608744006
0.392275356684874
0.396924260158385
0.398865694918064
0.39537357523865
0.400016048348395
0.391039721297751
0.39623693500211
0.393033069021809
0.393736604069117
0.389081683970867
0.389506225283162
0.383619219737707
0.392564194553069
0.392511219565371
0.388266838294625
0.379095516727672
0.383776750578314
0.383194473351161
0.383609662229305
0.382759633477527
0.385660697269914
0.381003534462109
0.381363105557794
0.373845285510887
0.37653201047636
0.373251120993464
0.371898956490203
0.370782054922794
0.36687689244857
0.366262563437656
0.366705876000928
0.35569617578876
0.357060809273152
0.353159840875634
0.351598890194114
0.346956063064694
0.350298432539354
0.342682561941004
0.338736697730614
0.339416566093042
0.342121505052346
0.335229072026487
0.336041504676356
0.331758469505686
0.325229764080252
0.323789210910775
0.326419035595822
0.3148799288402
0.314643630028073
0.313447941079999
0.311847453135311
0.307433268418797
0.308834354116396
0.305640112780674
0.30489740284836
0.300121624054439
0.298213411861707
0.296824781199199
0.297246921232231
0.288679770724478
0.294041320136932
0.28782883349734
0.284847252580047
0.277756067037536
0.277741454799578
0.279991806007857
0.282740927421267
0.272303353932842
0.273434113204859
0.275371901194738
0.277030579583917
0.268768624139872
0.270266959434468
0.267974093587725
0.265186251929635
0.263122712018091
0.264136554530416
0.260687062489147
0.262452284767076
0.258151974960851
0.25551690297788
0.253687546403309
0.256827094992407
0.25095718886737
0.250224249094135
0.251777137426272
0.249018905544363
0.245735789399117
0.245832842722607
0.242694629833747
0.246251632157728
0.244434222165533
0.243441333917775
0.241289108221011
0.240947014388452
0.239338405147799
0.236877050680455
0.238192169498105
0.238480987166848
0.235921281421558
0.233335261010684
0.234325531655992
0.237350877532097
0.232239202534879
0.233229531132462
0.227304162141504
0.229443761526811
0.22841901574423
0.231795774113894
0.223058766264223
0.222289222089798
0.221421948035127
0.222392546417298
0.222215798054955
0.220460676363383
0.217555865359946
0.221585828411901
0.219143596202648
0.217788231109603
0.214115940641287
0.21715120778574
0.21416628950671
0.216202121161549
0.218498819454367
0.21700533804406
0.214881147436576
0.211483801693825
0.212095208690845
0.21342514377116
0.209857682917703
0.209981826705711
0.205332969273274
0.209437015847736
0.205913106158175
0.206423379132031
0.20441229291199
0.205758845635048
0.206065640477926
0.203365637424702
0.199066640820956
0.201853906489022
0.200390759932166
0.202692824654131
0.200647670124572
0.201976925686582
0.197319243636267
0.199481358955498
0.199547958163159
0.198117769298771
0.196450079643519
0.196512007027262
0.193271822119266
0.195874569161571
0.192026548856245
0.193905748890273
0.196007368629547
0.193679945259075
0.190959729920409
0.193493579932144
0.191608682053876
0.193885444160458
0.188882978291859
0.193898454461366
0.189948251809086
0.19087403263436
0.191823961319871
0.190285027740462
0.188062134083596
0.189044547278337
0.189631650094074
0.192409732468664
0.190741624700573
0.188606326945583
0.187151381040689
0.184796785253354
0.181609779986087
0.18519842402383
0.181953654227366
0.183427650303147
0.186346138639351
0.188612474251375
0.182934075651032
0.185378137537961
0.185121536929405
0.181621765208775
0.182224016356828
0.18613408238857
0.179917731950243
0.179998816152058
0.180605591477212
0.181015555805619
0.179564395180635
0.180476929962759
0.177543280862519
0.177108491889597
0.174120627810542
0.180551737218271
0.177461959078428
0.17542150548438
0.173852777142033
0.175824711774286
0.172276365216671
0.175617693643833
0.175144622775093
0.172485670600813
0.169117959512787
0.170983204544172
0.170840868369146
0.170637790446909
0.171125349011444
0.172407168925229
0.164625212404979
0.17009783770941
0.171268322601962
0.169292189577596
0.170255859417269
0.168192578500646
0.168380462621806
0.167381385282715
0.163792740441042
0.168353647642459
0.163782682719607
0.163481525923374
0.16498532133725
0.1635278906365
0.161159771266588
0.165402138059927
0.16137382248775
0.165090778512063
0.161781324355325
0.161597657558129
0.158404420809338
0.161370642698799
0.158402046290559
0.158179827647663
0.156029060562572
0.156809529229899
0.156404446491379
0.155095985899914
0.154961634511846
0.158956012617898
0.153340966504389
0.154647530683642
0.152207499705447
0.15424137863363
0.150396281494895
0.148476399165284
0.149661890447783
0.149957216256467
0.145999528163499
0.150987377511021
0.146185431241455
0.147806298123594
0.146432603842741
0.149030128549448
0.143450470415578
0.144371596341028
0.144959557476708
0.142511073159783
0.142758112135702
0.140668263848545
0.137920695226159
0.143413212021519
0.140341174595508
0.137153614834625
0.135276542919557
0.138387680172602
0.133284163585881
0.136589821940282
0.133809236757342
0.135119970476212
0.132688622754967
0.134932601883432
0.13266125956296
0.134164519039131
0.131103831680689
0.129878635722929
0.129839932883497
0.12951984693865
0.129447554726152
0.128744872371732
0.125845332541162
0.13157013901072
0.124844790252405
0.125910500317397
0.125020816867734
0.127093755363587
0.125284524556401
0.125169281264805
0.122956603768548
0.123932562725259
0.123820687532924
0.122196511610985
0.11846969454333
0.124168757391223
0.118970612084899
0.120241212833512
0.119337428626508
0.119612581374433
0.117863327811289
0.119402105404219
0.115869065403757
0.117208754754917
0.115286859150246
0.115807593078993
0.114292267064707
0.117486737031559
0.114766204635041
0.115202989722619
0.111587460955918
0.112766467570069
0.110460548364731
0.112372962217442
0.110484000101703
0.113295720588192
0.111094786665679
0.113517117860269
0.110691528227449
0.112665324029866
0.109387759987124
0.110674302399585
0.108653977240432
0.110378331236376
0.106848550012302
0.110771168527319
0.108235968993487
0.107586144144282
0.10588052477812
0.109588330598566
0.105679386986393
0.107813319725895
0.104954847096464
0.106021873547345
0.104786853314592
0.104622521133986
0.103824189476788
0.107972665112582
0.104116509425792
0.104312652842265
0.104793807982866
0.10432608948204
0.101479403137884
0.101066980228352
0.102335096383546
0.103506165526015
0.100621544755544
0.10441859228485
0.101024660112649
0.102854032756024
0.100444851901149
0.101084895075628
0.0998099213986669
0.100100254635216
0.100577397359583
0.100920492928676
0.101868056951212
0.101624913793302
0.101283820302937
0.100477782096467
0.0992448430928904
0.100065293102829
0.0985581506057522
0.100777903582505
0.0971920745963062
0.0992297164133004
0.099810913688323
0.0975101960538649
0.0963329427749811
0.0973562557759776
0.098229995530405
0.0994579154401149
0.0974158740273052
0.0998385912300833
0.0954625675281112
0.0956372754851142
0.0990818958968066
0.0954565167048861
0.0954997124223457
0.0960626202565693
0.0935322830725421
0.0952727431937516
0.0932449213318698
0.0943649222755392
0.089295098273384
0.0939905480943023
0.0933773405518392
0.0927971701098083
0.0918417703411528
0.0948258822613964
0.0910129148841013
0.0924529489488218
0.0921056883420848
0.0932418587399075
0.0906210138303712
0.0922914706552445
0.0888457271547341
0.0938253681752428
0.0933205921836101
0.0939211948584655
0.0883380708045514
0.0907553749219421
0.0878210381067433
0.0902816037928147
0.0898114999145894
0.0886318611622462
0.0894426335971069
0.0915011164930703
0.0900085591296162
0.0885901950271523
0.0857994489786804
0.09289564053134
0.0893636582063158
0.0896498232458304
0.0886330268594692
0.0866877051434274
0.0859922150779751
0.0877078152574821
0.0846650594680883
0.0882583561376766
0.0874063971891872
0.0875326144579001
0.0865201459442641
0.0853011479306401
0.085174722250342
0.0854016424199066
0.084216489410335
0.0873564013763157
0.0842393351250148
0.0871597644743655
0.0851028781043266
0.0873357705150227
0.0840122384199724
0.0828842457876967
0.083158488378738
0.0862640018656824
0.0830892899679377
0.0850210067329888
0.0842406121039317
0.0843631588649377
0.0804468311331004
0.0824801450430445
0.0800585900025406
0.0827063495212121
0.0780953364319865
0.081164515807636
0.0794956079651518
0.0803350197496781
0.0797347761496406
0.0810815280721119
0.0775807503615073
0.0785939980626467
0.0809642020533074
0.0792918913603263
0.0784194222137621
0.0804912960432795
0.0789928579317009
0.0772186836933654
0.0742859187672493
0.078128973437261
0.07740983139766
0.0778473584769378
0.0748878968128509
0.0773089951765248
0.0766908056526224
0.0779411468509954
0.0750549972442064
0.0755128384945685
0.0744746503944223
0.0752619456522047
0.0732431623777374
0.074752519535352
0.0733203120211194
0.0727260325874834
0.0721710273735903
0.073805701952974
0.0744968608877279
0.0722769508040703
0.0721292276530957
0.0722855205694774
0.0717888423790264
0.0717779788081536
0.069038519320491
0.0714055089816755
0.0702830455485812
0.070836317403712
0.0698321663801448
0.0709401694838978
0.0680917400588119
0.0686576532686202
0.067909448738999
0.0690566851491472
0.0704419827857518
0.0730443573244724
0.0676755568939324
0.0680933264413077
0.068180558609641
0.0671985146275523
0.0664831007153864
0.0679941743783791
0.0666650020094753
0.0678642832001052
0.0651033463144668
0.0680329206266303
0.0660187387838193
0.0648381518692728
0.0632000133384604
0.0666002223055625
0.0651729971840207
0.0660825367883803
0.0645835928065995
0.0679389236401619
0.0656415384538924
0.065408871102756
0.0626604053604992
0.0673326590154837
0.0644414910412492
0.0626481925237612
0.0622258660676806
0.0630465500170453
0.0620841050680373
0.0637634952994871
0.0633036646722735
0.0645933474829117
0.0604807140808996
0.0618079951472367
0.0635402173748333
0.0626002680297172
0.0603047740998311
0.0617447696466493
0.0611671068981735
0.0632780800973503
0.0611927068768251
0.0588435753972435
0.0602510060774238
0.0621863755697363
0.0619109795770573
0.0604792676345012
0.0622837139639737
0.0625918552710537
0.0593861737795358
0.0610680475640819
0.0590954494663152
0.0607763817421843
0.0595141580792633
0.0605155518743514
0.0596656174173106
0.0570580442795977
0.0584993837497269
0.0612316693129919
0.0581308112240322
0.0600360291562768
0.0593530602169925
0.0601002432592681
0.0584689623638705
0.0585022212100565
0.0574160764738474
0.058259797203043
0.0560906052647515
0.0593906809961583
0.0578753211277912
0.0615307021965361
0.0559301273622422
0.0562439646024015
0.0564946381478361
0.0571527131221839
0.0524677048839035
0.0582971478421546
0.062733180132907
0.0632714822819386
0.0517450219108772
0.0499693604510615
0.0605173203201863
0.0598148869455743
0.0534826310378359
0.058999304930019
0.0577162462274937
0.0554828576838508
0.053883166192462
0.0554720630647988
0.0555743076251976
0.0564162133466384
0.0567752355996956
0.056717166396321
0.0544818559450702
0.0584995973805301
0.0576783829689031
0.0588192773098921
0.0535580491454208
0.0575577026882758
0.0532846875471053
0.0558122243808371
0.0557213518033882
0.0538854730106601
0.0543483039055631
0.0549611851038855
0.0593520873041626
0.0525114438571979
0.0569147099350843
0.0571632057851188
0.0574215464118141
0.0528073548065108
0.0553888579130816
0.0470317417042775
0.0556185842189099
0.0500575637602325
0.0615419906360149
0.051334650027367
0.0619784420271697
0.0443904679211526
0.0637197990190183
0.042926832343487
0.0643391720597459
0.040757435573725
0.0625417291979465
0.0400931488893871
0.0700072865457738
0.0462110407424403
0.069352022428114
0.0369828424678737
0.0682194705548096
0.044957795507238
0.0655254191725182
0.0494909908949964
0.0605965583385885
0.0514478768209228
0.0551219335550214
0.0574125056190814
0.050403341862618
0.0584745151339234
0.0504733867118145
0.0578021324817418
0.051212677653285
0.0571811297350369
0.0533503439292856
0.0558444516637583
0.053482826867977
0.052536484572789
0.0558102398467452
0.0524122037551649
0.0551942246218459
0.0541142391278164
0.054567694372249
0.0568124536484672
0.0527016876116821
0.0543452270267527
0.0542377917704544
0.054424772439479
0.0532700552889697
0.0546098887173372
0.0529894506480258
0.0555627911003234
0.0575425558619549
0.0549342492960814
0.0533794548086846
0.055580349727013
0.0540491221340253
0.0540593299074847
0.0536171499751614
0.0555351365311321
0.0554337183748996
0.0550047503670551
0.0532512859276265
0.0528698430021649
0.0524770171332352
0.0540872539300911
0.0529021350292884
0.0527284001014797
0.0545037430595176
0.0551175059525053
0.055265575902624
0.0570350545410269
0.0541251180959727
0.0561458052285862
0.0567047431748154
0.0570148933109988
0.056456739732025
0.0544465459425923
0.0541089373626411
0.0573614491650237
0.0549644715970189
0.055686453830064
0.0557055590816833
0.0541618181174493
0.0551632723787526
0.0575708707797931
0.0564916970329159
0.0556143811759897
0.0556766287774495
0.0568154252813586
0.0555509512543275
0.0578072097164605
0.0559821153738348
0.0561466209182585
0.0555063529191801
0.0585053672366167
0.0566724725114049
0.0571824236708912
0.0545588722736217
0.0569171542026641
0.0563928354391681
0.0560705234531987
0.0553570791854197
0.0584507640132755
0.055506954771179
0.0561435506697256
0.0576974946887501
0.0581694828447634
0.0570046016429132
0.0580759844007268
0.0550041448854571
0.0574731093640389
0.0551944755338932
0.0576712540935248
0.0553654681865173
0.0562528905139272
0.0566975181884435
0.0592685418606178
0.0558124608777282
0.0576614959407247
0.0570892586331776
0.0557044072413028
0.0552358560913839
0.0603501679396544
0.0586600251829389
0.0612669987627556
0.0591625156418435
0.0574083833228536
0.0566759540485928
0.0593211150987396
0.0603182869534653
0.0600706863303411
0.0581438482504301
0.0605401259894278
0.0588224992316043
0.0581407975218532
0.0596302565431869
0.0585073501532169
0.057123532181269
0.0588741417633312
0.0595944110624701
0.0588433906854351
0.0583181772319003
0.0602372387257072
0.0609575272989726
0.0619937326126258
0.0600192605562409
0.0602832673099567
0.0589627738171848
0.0604561665265996
0.0591953400740823
0.0618220306473134
0.060424178902182
0.0619714629910599
0.0616704145140554
0.0597453367461539
0.0596667749019489
0.0609627524171212
0.0612209116325978
0.0615467338202604
0.0621252915620576
0.0617053982824671
0.0611047587744117
0.0613158154326535
0.0606054103751818
0.0616995380024827
0.0613806638254543
0.0617137404977958
0.061450827842507
0.063155464307498
0.0619317922600316
0.0620957521808478
0.0620466809259995
0.0611352573422338
0.0614449840488902
0.0632111381910271
0.0610326273462853
0.0629514169060159
0.0617484865821944
0.0612817454530756
0.0630723106678422
0.0638262962871747
0.0644932792624443
0.0633989826641343
0.0635942059693793
0.0643643660649344
0.0638944213242627
0.0652997166835147
0.0627483020700401
0.0656533734613132
0.0645382560509779
0.0668083011748927
0.0659995488546266
0.0656040259870628
0.0637169481468097
0.0653618205577294
0.064970097724126
0.0640043604413618
0.0646329535531954
0.0648973194584299
0.0645833868562345
0.0653289368154496
0.0634139314370493
0.0669048614743546
0.0666829404619326
0.0659494290709647
0.063165504155642
0.0638221539950782
0.0633899822753388
0.0627298042859363
0.062651539291219
0.0660551899482718
0.0631839846168789
0.0622982290264118
0.0638083227119215
0.0643184429616938
0.0608687637557681
0.0640967136725591
0.0617570208673419
0.0633233657245222
0.0638389062275396
0.0640921310879811
0.0616757398852306
0.0623781194491885
0.0595975185351989
0.0648973410282053
0.0624216383040491
0.0644100453519074
0.0616710075691942
0.0618767925882161
0.0610784839407369
0.0623355455594232
0.0607831831151928
0.063298848243732
0.0623217620760669
0.0628645581054588
0.063911029984622
0.0625643511542977
0.0606412792199313
0.0612722704929918
0.0600197873666345
0.0596001489121629
0.0593332676567534
0.060794870160889
0.060481352835961
0.0625087021639642
0.0612104121778668
0.0610507388057435
0.0621634508255736
0.0605695965787542
0.0587776193989356
0.0610623259080577
0.0592564277637716
0.0606969900076245
0.0602883018816788
0.0611625066062462
0.0603801986619987
0.0606174893915914
0.0606604408650946
0.0611573562636214
0.0578316215505498
0.0607195304500302
0.0606029611795624
0.058118590978156
0.0599252699446391
0.0602128446972836
0.058776541040823
0.0599111179163463
0.059442949100034
0.0619959781288505
0.0598314845682382
0.0594293238136723
0.0585302034518568
0.0601987444059684
0.0585389270433289
0.0580479585089701
0.0583049053318909
0.0592284911792325
0.0582873278646339
0.0591892248615925
0.0601079131810986
0.0573070743892194
0.0561658870985807
0.0586146184336018
0.0587976591155741
0.060709990294077
0.0589488493788158
0.0576949165572002
0.05746805176497
0.0582318569527643
0.0566813909113427
0.0595711450718988
0.0595377821972433
0.057486313492977
0.0564930877432344
0.0589790907878171
0.0579208431944574
0.0579560175283311
0.0562978703004447
0.0566032681869732
0.0565410100708979
0.0584688114456136
0.0552645933663061
0.0582494428611061
0.0570818633621415
0.0586542437991628
0.0576751269113209
0.0559750336170505
0.0538395294878506
0.0559961986887344
0.0575711538097941
0.0559576409771951
0.0549788789255297
0.0553594357026523
0.0549721243940799
0.0567693314733069
0.0526447063547635
0.0553665788388319
0.0565131794167291
0.0557989649453361
0.0556285441836278
0.0541330329229587
0.0538753675344901
0.0540256381143107
0.0530103009566083
0.054873787469067
0.0523868937637902
0.0540343214951163
0.0537628410303846
0.0526047701418648
0.0547260637550941
0.0539987580600326
0.0503040562616268
0.0529306685390159
0.0525125859681708
0.0520101826127406
0.0522101708309085
0.0517716340793276
0.0512259984870816
0.05327640571725
0.0519743336196475
0.0515995939551588
0.0515748372693633
0.0535774334421959
0.0519504343169556
0.0526822969267908
0.0493029279025853
0.0501668697111562
0.0486940922458877
0.0515455547798827
0.0478882810134292
0.0501866064411256
0.0493674872804218
0.048681169990725
0.0491838857653342
0.048491236675538
0.0478197466339199
0.0497244497380758
0.049080272364625
0.0486820535548558
0.0485583636365417
0.050244674739154
0.047995748922771
0.0496178784456297
0.0464548194421635
0.0481407737396189
0.0457393665356925
0.0472680761318727
0.0432291529780066
0.0483999580917073
0.0463349852355978
0.048102402165191
0.0485764085751849
0.0474477908864849
0.0466013062129589
0.0490860353601651
0.0472950899625117
0.0458561107833229
0.046391374842734
0.0456943601929004
0.0475089186000534
0.0463668168693927
0.0472300633688614
0.0470909511722607
0.0472965136656219
0.0466181376161024
0.0460267891394933
0.044902415027324
0.044264937363871
0.0473221029690446
0.0445732032063869
0.0441818191778109
0.0446937605624737
0.0460233388079307
0.0484187787467603
0.0459992704427576
0.0433806775077392
0.0458361280387876
0.0469426840133735
0.0456540391236406
0.0452030159297975
0.0436668222405214
0.0445512664799015
0.0444574068320947
0.0442051545894279
0.0465421686550372
0.0438043707914316
0.0436818991429132
0.0439511156907425
0.04438443498856
0.0451209193646422
0.0417668534780625
0.0431668001650589
0.0446529892140045
0.0420358914894005
0.0446824610612359
0.0443183239850374
0.043034733022094
0.042627083866154
0.0416160169563526
0.0452668540976463
0.0425854366561975
0.0422581501352917
0.0414683430421105
0.0437487999913525
0.0450184319186336
0.0424941959770859
0.044086768537888
0.0387373533595729
0.0430222154518858
0.0427250383417039
0.0418542835721342
0.0386441973492975
0.0419909613790224
0.0451868521649401
0.0445340521364037
0.0427126516337373
0.0429358915485605
0.0405292545893203
0.0423334078410268
0.0406092618632277
0.0431517824966209
0.0401396707545223
0.0415993186525421
0.0416577513342257
0.0459246793272121
0.045089017719026
0.0417971804306614
0.0404618946706866
0.042421356208073
0.0402342713205651
0.0474554480608238
0.0394981674715219
0.0429209198329358
0.0396754731225593
0.0428648104877085
0.0404118973040668
0.040850409153021
0.0388226375381246
0.0445099625538948
0.0414088639306601
0.0417255470207904
0.0421022506518487
0.0396420045834179
0.0407037569581071
0.0420590093003907
0.0403660361974842
0.0409377098742177
0.0399250826705359
0.0412787353939218
0.0417279849588767
0.0417827766939659
0.039906755215953
0.040478901664043
0.0382891069665286
0.0428686996936458
0.0398519041332198
0.0403319571981713
0.0409724021171243
0.0420002718918364
0.041689888474375
0.0445851769831952
0.0443814892576954
0.04046541354304
0.0418374099593088
0.0392768693973393
0.0414168552479576
0.0391894114795703
0.0406219751540968
0.0419832707230674
0.039620448255935
0.0399586791496587
0.0415256571591995
0.0401426106715813
0.0422886399518431
0.0401616394950693
0.0410932571341656
0.041731251400176
0.0401796401601331
0.0429431079251777
0.0400166081034299
0.0404049042976086
0.0383955075290959
0.0456923304060728
0.0402939745073924
0.0444099539640434
0.0414493563486076
0.0402669498485182
0.0411060092219318
0.0422628340499322
0.0419594203975452
0.0404444313099816
0.0406897392671996
0.0423752752730415
0.0410917991422261
0.0423409327666688
0.0425902051122865
0.0415260292844895
0.0420894925412882
0.0393066610399594
0.0409770184920613
0.0407856108270275
0.0398872695470131
0.0387286092946446
0.0428362999070678
0.0424272186621136
0.0441761367242216
0.0382336085104806
0.0417918517607273
0.038196894388792
0.0508440171650425
0.041874854124239
0.0432632204821084
0.0438225690016341
0.039783008609669
0.0416279680082207
0.0429158403385115
0.0444721013291539
0.044327238539185
0.0420188017748791
0.0415731969221692
0.0390120428356843
0.0406999549462985
0.0419875618058396
0.0424455373051116
0.0479288447442179
0.0467845234541003
0.0419902031214843
0.0439238787206062
0.0420990831730296
0.0477416280927877
0.0459767549472314
0.0415720553402508
0.0464563748703569
0.0431688688873116
0.0438321953552448
0.0402421677628497
0.0430579012989112
0.0433154284463136
0.0453623629972266
0.0445731516507063
0.0427476217611437
0.0438321180549404
0.043177937926911
0.0455262185528301
0.0445414907796177
0.0446652448166027
0.0482266655002147
0.0435573389191982
0.0455575310379105
0.0442640297349303
0.0475657966951603
0.0433743802754207
0.0458160326225799
0.044419491422872
0.0485870695402886
0.0469761486639499
0.0470974678632519
0.0480175603607545
0.0484897227142257
0.0434331491570577
0.0497137407790039
0.0427090816431974
0.0502719917460883
0.0423481779672093
0.0553590641346202
0.0514001128555207
0.0506173633070314
0.0512409608868794
0.0464930380965999
0.048956485395665
0.0475653125509588
0.0524595785209449
0.0423761212255389
0.0537169899779117
0.0447140362800717
0.0531117329990695
0.0457617003574936
0.0539084420533157
0.0490531680931557
0.0512918904651993
0.0497092530509974
0.0478954886690105
0.0450943269782014
0.0530265723099488
0.0470968354690256
0.0515237064438405
0.0605620401204621
0.0513351125215759
0.0536629738553859
0.0510619533783285
0.0566508420020763
0.0560208153755542
0.0503245469258686
0.0556073098928454
0.0494434705138756
0.0537061659337689
0.0516350584296102
0.0590559428556387
0.0591341521159808
0.0522835386631489
0.0554090608203686
0.0558588235995719
0.0541779636209665
0.0621768450944136
0.0550240345363369
0.0579149541366624
0.0526722534202221
0.0588593194294483
0.0510809190785819
0.0703084353014661
0.0569907995426043
0.0658080147157483
0.0628567228257255
0.0629579564293712
0.0640339770479027
0.0634663186436828
0.0659480066328448
0.0664052728117306
0.0649689092687757
0.0632848813278768
0.0616417133884872
0.0743664370795529
0.0704617296555185
0.0643198164176394
0.0711617666291746
0.0660159341751359
0.0760577540193651
0.0869533332166137
0.0807706509206711
0.0745630652476713
0.0764905992974446
0.0762205383219949
0.0813648307469534
0.0777718575543165
0.0830492216535469
0.0792132042033797
0.0805230451197743
0.0821870125440798
0.0824680994838425
0.0871136568278698
0.0826612944336605
0.0865279839087427
0.0851840849532978
0.0866072247458533
0.0986857758276755
0.096374013813741
0.0974241326148439
0.0891026053849169
0.103805893631748
0.0977516074321846
0.0999906968657003
0.096649152255031
0.101482273508756
0.101463115455503
0.103005105556429
0.101835911454463
0.105153563280246
0.109989948738497
0.111463166445454
0.118445347700032
0.116203689911973
0.110400052200937
0.119310109068117
0.121601624854267
0.146147122792323
0.117395927093473
0.137405882477097
0.113203155050886
0.155051625648359
0.145779061939504
0.140538329943249
0.145902217870708
0.152419908757089
0.15001876713724
0.157950692006569
0.15780162309641
0.166238031144461
0.167079400859799
0.175477727078705
0.169009075610873
0.201327103777534
0.192881521521566
0.199356330884498
0.194871567978539
0.205635780168667
0.209146010877057
0.213186796668074
0.209129793392151
0.221080999515202
0.214954218437626
0.244654175183118
0.241437030402828
0.238431601667397
0.249268223555156
0.245284494243958
0.261856306518651
0.244769757100482
0.28407302871888
0.26652185969117
0.276951880972694
0.275698957249368
0.283429682203965
0.287775854336997
0.288504914513076
0.304018256675741
0.29922822112387
0.30392053509516
0.30961149024833
0.313418597798112
0.314490032912228
0.31467734511563
0.319191863417097
0.326641539761087
0.3425423119
0.334817367080312
0.344422476352102
0.325188861074586
0.333486580547738
0.329405157294596
0.338224336038641
0.348913157220947
0.342709184060374
0.349780535890507
0.340169300298371
0.341283611542462
0.343753399707057
0.336380546845742
0.343530143165762
0.339900208411513
0.341345110684886
0.337265953625124
0.348430079759674
0.345372600569047
0.361090156966494
0.342467745345671
0.344595540986467
0.337706094475456
0.337821334351725
0.335230314144088
0.332953635545604
0.329060540028132
0.334104064020745
0.327110969030877
0.315164872704862
0.324642778252117
0.318686067028171
0.329758244904178
0.315616182716372
0.317877549627647
0.3103837935357
0.302368887315437
0.308018658888256
0.292020069292914
0.315264550009479
0.300566086836325
0.2962713675191
0.29506445383385
0.288205738104175
0.289941715048429
0.280873753619598
0.284932092169805
0.283404244689921
0.280112833973999
0.284162433304096
0.279925571928836
0.27141879861532
0.274966349867718
0.274114311132499
0.275011963595242
0.268830063509337
0.267339721062049
0.26851358812849
0.268270094767031
0.264422856143116
0.265611584205503
0.264540984450145
0.264047301787359
0.263451945633836
0.267643666785298
0.258260417938729
0.263385217486564
0.258688276904842
0.256890502190356
0.257068560817866
0.258313622245887
0.253013495025764
0.254047210832233
0.249836035972363
0.253648530445591
0.251588467955246
0.249577967848779
0.244208905187899
0.247371741837679
0.242693704274276
0.245505732784746
0.241978922056011
0.244321792465322
0.250864837206981
0.236701585960935
0.239344313475517
0.236300998327396
0.233194963323832
0.234051983668845
0.236126202568705
0.241296384731362
0.228859421387162
0.228014212649705
0.222502775892608
0.223305147897244
0.22611194555409
0.221193047759741
0.213245587879083
0.217658098829621
0.189990176376382
0.237608826040836
0.211359682470909
0.235521785883286
0.207089732838426
0.201844304910075
0.199652415193263
0.211788325213511
0.199487352269116
0.19617771614318
0.202756226521195
0.193458426232291
0.196993553974427
0.192925554199281
0.18814808578885
0.185979894876626
0.186807499513268
0.186100105541254
0.18439785143854
0.177591867332739
0.186419161154074
0.191360893274047
0.179058674977256
0.193325622704538
0.187634027833421
0.176015823503375
0.17366214557457
0.171230465839643
0.171677191875309
0.177859100855974
0.176331921185177
0.167560684858038
0.168480003923573
0.1598419330759
0.164897610730133
0.16718185640877
0.163140809850144
0.164654121898393
0.164287448221971
0.164404832658337
0.151407223119372
0.163349761791374
0.155689771876983
0.169692698933019
0.154361254444894
0.158432088127759
0.152650694788903
0.167701180163779
0.158177697072916
0.154904212972236
0.153213271143962
0.149298057407341
0.150965361525955
0.153795805031792
0.143817485615262
0.153039530996033
0.146313751265055
0.154586489946555
0.158675725250406
0.158320285517352
0.156670791143696
0.151186841955966
0.150565579237424
0.152863920936825
0.148345536790462
0.154113321265488
0.145319862641665
0.161774469248004
0.150430543430733
0.162801261913464
0.165517948312963
0.158541398166563
0.160301085292784
0.166533834862214
0.165139156900016
0.173325500637122
0.168488041683751
0.176291398431162
0.170685902536139
0.178720363699244
0.180282291158535
0.181390453620658
0.182479698535272
0.184989287362095
0.188529352790129
0.195613695963332
0.202151860836458
0.202344282230483
0.202624438235487
0.208072278446332
0.211112864488325
0.2200035255367
0.222633403207199
0.220069422682331
0.247224780521058
0.236024583284911
0.245237247175994
0.240241818694599
0.246217787128598
0.252921320539005
0.252395014639025
0.257918345672002
0.2673818032228
0.274838387981109
0.271003365452602
0.274748899365035
0.280064722814321
0.276844587335065
0.284159804659919
0.278323360945236
0.298104917221353
0.291984535796854
0.307663145652955
0.294204877322962
0.301342300981407
0.294921480574331
0.294690603380808
0.300140014642882
0.299454117508218
0.301879026161638
0.303071156888834
0.311032899474865
0.306590537630098
0.301160216365232
0.314599290474436
0.311486484207192
0.315072639540644
0.317782546495534
0.318552136111941
0.316507848938705
0.315850047557901
0.318999345429616
0.321327416667434
0.332680159376736
0.346213138344335
0.323969150530111
0.337202152532059
0.335204889372127
0.338779201208657
0.337393762014506
0.344171954247523
0.344993104109977
0.348256628389536
0.348222517506605
0.350870395216434
0.354058603895154
0.358742859604007
0.35668555069209
0.366906569747431
0.355618872870276
0.360383043985261
0.36038520476572
0.386110017440717
0.371136709226986
0.370470261093393
0.37691039316166
0.368983420072017
0.37128328075847
0.369250265681143
0.370955282627888
0.372116253152237
0.376505540807963
0.373954489943309
0.373610724147778
0.366972406414761
0.372818620697144
0.37112639426294
0.37371255174866
0.372818287316731
0.372606287548031
0.369779868400792
0.363075057892014
0.370218869027101
0.370724845713935
0.375057894544838
0.362402226157622
0.366924840355407
0.36362503507287
0.369246505491814
0.371655149988933
0.365736872955579
0.364204723293513
0.371235268015186
0.366935744379794
0.368290051210898
0.362641142727659
0.374068121995368
0.373990067861666
0.374685536335013
0.375770923810549
0.378856558601381
0.379942352563122
0.383329584530631
0.38744573303379
0.385853049000031
0.391054006117781
0.389850950016665
0.394961898371813
0.392966190649824
0.39343099538249
0.392836367363278
0.396460668489038
0.394670160460275
0.39035574705095
0.390530273997398
0.387761192465101
0.387244893775315
0.388843137314519
0.380301800156064
0.382710852360898
0.376699339344465
0.373328911287592
0.37431040052382
0.371005939095366
0.363388105898206
0.365188508851745
0.358870053214184
0.359668518490696
0.356309868464217
0.353435610798207
0.353370676890028
0.355348785176871
0.34881456623453
0.345776385547279
0.347748825160654
0.34419447323291
0.346057346996018
0.341932085445619
0.341319586449201
0.341239803144479
0.34023721106379
0.340100436463729
0.340861897000105
0.340334821389177
0.338294934346441
0.340071175170091
0.341491116350966
0.343565637872039
0.340184803755032
0.337079007676295
0.340195731566778
0.33942269200642
0.335590916191736
0.337555624835607
0.337156722252231
0.336835759857271
0.335623787222831
0.333397923076145
0.332652307861782
0.334690229978964
0.333238975555293
0.335160842324036
0.331110304658925
0.331677735161391
0.332768935582797
0.329998803932395
0.328872482918303
0.327193622084269
0.329472830303239
0.330121784448736
0.327935642232017
0.327802911893332
0.331230323305066
0.324870665377149
0.326556916910693
0.328506587876381
0.326235716842589
0.328898223194334
0.326089559303035
0.322567600909022
0.323474147264059
0.321549467575194
0.322668217260923
0.324141062708641
0.322583199876073
0.317742436375648
0.317927021519326
0.319200608239437
0.318361557386202
0.312620731140391
0.311652841955154
0.305247438220517
0.302500411657664
0.300381664399921
0.303832990632053
0.298163138153293
0.293942863243286
0.295371215434614
0.29400573936133
0.28956606583374
0.287961877471911
0.285022548156557
0.287468730363705
0.281919557233038
0.283332973718989
0.282745740108011
0.28451899628039
0.280161626421496
0.283611889430752
0.282034620122743
0.282272028573985
0.280698756185355
0.280004614626823
0.281231649338949
0.281545996038283
0.283289732313517
0.283203730557806
0.284972548516821
0.283605398836001
0.28424127278581
0.288437861363876
0.287122112155469
0.289291376263793
0.292007182656027
0.294613487080004
0.290731120181394
0.293683948436031
0.297569721958138
0.293876283763006
0.295724155154831
0.296555051809313
0.298094893460562
0.298236864011655
0.297887653345696
0.298797888871116
0.301561095597614
0.299675887250918
0.299133812272055
0.295455301391096
0.299260139675433
0.293946143119495
0.295812146703399
0.296874817568324
0.293148653483152
0.291524101722532
0.292284801083577
0.291757765402578
0.289880161628593
0.289413937502169
0.288140626482548
0.28800839817235
0.286995103963364
0.287296393671397
0.284479546892838
0.283045148875817
0.279140620813215
0.281797400219478
0.280152055383109
0.277773858781467
0.277263220595918
0.278454653711177
0.275900882118434
0.278361774875486
0.274968813707952
0.273922184243274
0.273719803173541
0.271188874346555
0.272169868965911
0.270816748511452
0.269654369149709
0.267732656316686
0.267449248375604
0.267624299527494
0.267386799610723
0.265810125865671
0.267028281745854
0.262255673232856
0.25959668254077
0.258721068272213
0.257652909199071
0.255103680193207
0.256282434617
0.250784836559444
0.249253134843293
0.252290367369256
0.248291021440875
0.246675930895142
0.246140214518492
0.244152117553913
0.242595528370526
0.244141626135687
0.241397364345564
0.242236585266076
0.2411512520704
0.240544430339537
0.241211320599964
0.239611973097033
0.239803171772423
0.239706364164625
0.235998126978923
0.236091529244348
0.232876660062382
0.231257243169113
0.227873844519335
0.225323348990163
0.223343680418333
0.220559863956141
0.216338964345469
0.213806996081033
0.212252788893823
0.209859068442183
0.212113595912062
0.21183961449089
0.212937742362549
0.214213162054543
0.216500159985975
0.219816971469225
0.224640110822002
0.231643804258443
0.236521719872501
0.24486757127347
0.253967285506358
0.264436595890205
0.272488660489898
0.283394717261336
0.293823911167188
0.304545317773546
0.317297020499682
0.328053762305203
0.339407511754906
0.349755105165454
0.363971817492234
0.377496440755543
0.384527194794777
0.399916029884176
0.413495171629986
0.421733218116714
0.435429670496154
0.445955235874334
0.458403046331629
0.467537228232894
0.47666032192231
0.48544725070641
0.495214311039554
0.500810207280868
0.506393363340137
0.51612816965889
0.519827491061189
0.524862018389921
0.530195200963641
0.53118186947502
0.529748305042028
0.527109268996997
0.531338290928255
0.531333948323186
0.531762140982924
0.52813581096954
0.52806623391737
0.528489976047594
0.5250457665319
0.529609935440805
0.527143741321796
0.524348874688088
0.527538817550071
0.527864137330453
0.528994644680387
0.532852009256887
0.535607256987835
0.539831873390216
0.541639287375412
0.550058763270479
0.554728081697921
0.555357770884272
0.564597651902606
0.570786084272321
0.576981196050853
0.586029707170682
0.594927210936804
0.60057260763981
0.612895896110852
0.622013205670536
0.631986176048405
0.637540626625797
0.641725519685138
0.646176290658601
0.653597577526455
0.656937998819081
0.655070670619149
0.656163625314145
0.655711656757486
0.655466861386965
0.655564205898206
0.65583789785799
0.653618218930997
0.649090376522309
0.645728338264704
0.646284044577357
0.643142765028703
0.647685002191333
0.653494597765887
0.657062733545139
0.668690231153797
0.675822241076054
0.685415180615652
0.693094526053921
0.702492139953065
0.710682605845387
0.725034118896542
0.729025985159608
0.74640755257543
0.756706302016205
0.762950901939062
0.769317817714055
0.797923811694814
0.809941829146337
0.813976872967617
0.818658474272072
0.83773995418902
0.850706546729127
0.863725571798775
0.879528319299155
0.900172026063593
0.908016641985627
0.938460332174378
0.949416052284733
0.979103481178666
0.99208920237742
0.998754634575576
1.01766545327091
1.02865896461574
1.04794481197848
1.05849127768906
1.06775017743111
1.08079160610805
1.10177697288893
1.08603180983092
1.08855726786266
1.10441766036416
1.09278532837807
1.09171542872122
1.10011954862182
1.10010063425464
1.06607145888851
1.06966345484825
1.07478028945824
1.06356441292007
1.06732001888958
1.06954478082815
1.07525146000088
1.07545821589484
1.06901735944233
1.07635469269419
1.08435578438465
1.10561942754187
1.08293072733063
1.1046324979677
1.11473421546541
1.12630710929157
1.11931125493517
1.14979602190565
1.15522163013266
1.16572421979534
1.21990553996928
1.19035655305978
1.2103715456167
1.21887115376656
1.24380862945911
1.23143527972564
1.27068695882845
1.25686184796127
1.2464395910307
1.30163358701796
1.2916115093513
1.29070625313456
1.3005587612368
1.3429214054967
1.31594956507252
1.31869180032744
1.3311805753421
1.31566797302738
1.37401544369956
1.33524666361337
1.32963370690056
1.36643704990232
1.35663357725324
1.36041220060515
1.37683270564956
1.35688283307165
1.35208284763402
1.37044489998551
1.31494721033286
1.3314168833165
1.30955496574392
1.29254595592586
1.24747412865709
1.26252013329529
1.23011500273029
1.17017493113735
1.15101158334942
1.12384098663581
1.055127319947
1.04201485006229
1.02287180314929
0.965498277078692
0.922067577774642
0.897684852090798
0.85663208217123
0.849217072473116
0.824335607930782
0.808744050105769
0.800725760051193
0.790795929684324
0.775409305635316
0.773113831111855
0.765487010001253
0.76701892996778
0.746238931115322
0.73377713961598
0.72409135225953
0.718439985756442
0.71545817571717
0.697863915839822
0.677271434239725
0.663226284491782
0.640038512698706
0.625258937044455
0.605363415326185
0.593151353356478
0.571298476709356
0.55078486576332
0.529014855398619
0.516445447194735
0.488533333234779
0.470099002430982
0.451711666469261
0.429577875186421
0.406382694016592
0.388393742738292
0.370625792319086
0.356915995558203
0.339849581082604
0.324586344524922
0.313491434224177
0.301799928994967
0.292254283839027
0.282841890334428
0.273991609544367
0.264340443061343
0.257469376337657
0.251445023457767
0.245950677819594
0.247632662207904
0.243020659630307
0.240927405634725
0.231262479805263
0.233140805870895
0.230785070720291
0.229938460691678
0.225867744887023
0.230375480698226
0.228514983677173
0.232204067290595
0.232567199596488
0.234454581031599
0.23781865999828
0.235411005189654
0.239110159153831
0.246703360926831
0.242682620284911
0.248093504093311
0.247993605218534
0.249173176115174
0.245886477640708
0.24391497347617
0.242683441723401
0.241183955708047
0.239694162542294
0.23704050832574
0.236845529110436
0.239180887513058
0.233832981260976
0.237708385013937
0.233801809988307
0.237927757882386
0.236561527030433
0.239636478829467
0.240743763647729
0.247189928377836
0.241631865696809
0.243479539186212
0.243421275076311
0.249658575708357
0.249507731633268
0.250821394176602
0.25776009607237
0.256889124681891
0.257595399603852
0.260090029766681
0.25961634676281
0.257873520795865
0.257737020650739
0.263659573700598
0.257145806670129
0.260423209879879
0.259378163470812
0.262207470244039
0.263625366016841
0.258784515058685
0.260040139564031
0.270800912634685
0.266491676798366
0.269658250535503
0.270478199241047
0.275330475064054
0.278951017845188
0.288287006928926
0.286967608515669
0.297061018969341
0.299374579629283
0.312257639293065
0.320272511702977
0.332112982530865
0.331243661575637
0.33825528679276
0.341961729175527
0.352253700204966
0.347005351793256
0.344771182318597
0.346885306338849
0.340153658950479
0.339196949425163
0.335268262797288
0.324581292963399
0.323462940993842
0.323667984361919
0.318404268189228
0.311559729673633
0.318915845266577
0.30848435670973
0.314092670416838
0.309334358323458
0.316444948101138
0.319681944277361
0.321935069064329
0.3179541568171
0.314764627974889
0.315456295796817
0.313126460955878
0.317424518789059
0.317227937594394
0.298999764449567
0.301417911318396
0.301994174618522
0.30316859856624
0.297510558845471
0.303391377292591
0.294672620705138
0.29277725485089
0.290420634726936
0.293886496269792
0.287339280309029
0.291309765656629
0.299211095454936
0.29712068157916
0.293660367002213
0.29867032563934
0.281881085322324
0.285696192764061
0.287966267198323
0.285515834721848
0.283220665277802
0.288299421764402
0.282166758275955
0.282623015989516
0.281529827041196
0.280901179555284
0.275696124015375
0.286244908387015
0.284949905827416
0.285186349108237
0.277683575053201
0.284471653566299
0.275752941265961
0.28397982278395
0.276676877724029
0.274460471283307
0.286005708065987
0.283013710678492
0.280624748587614
0.281449583152379
0.278458145189972
0.281225047467739
0.27477149344468
0.277681169352636
0.273053406458369
0.268048396940723
0.27525934785577
0.287667684455791
0.267740658816783
0.277415100821795
0.270761660609817
0.275281518433347
0.279955753600478
0.283350483755736
0.290041637755452
0.284780492214038
0.281840862826128
0.288460256319838
0.296652594641959
0.298712166573895
0.29470169644178
0.309753842721743
0.300608775820231
0.301794416703131
0.306319012375978
0.312638864458665
0.301249768398372
0.308628153343248
0.309035658729151
0.320739446989061
0.313378369819483
0.318593734184105
0.32289338915478
0.329058899787274
0.334068114916266
0.336059214134002
0.336853857424463
0.344533883621061
0.360271233096521
0.369130097915911
0.371211753921233
0.378342050837533
0.387988933240306
0.380500388804488
0.386041354676524
0.421755740011205
0.427748656056619
0.435830525937466
0.432714887227303
0.445468052148541
0.455795275871277
0.468800760802886
0.466058811158251
0.475909520102644
0.475103522546028
0.458138948999435
0.476292094281522
0.470258985767369
0.448039517586043
0.462206980698096
0.448769043131688
0.470316923854108
0.458877112093665
0.457295046983505
0.446495585400437
0.472003215036184
0.437951030979726
0.488726418849257
0.448077008166239
0.460282447094129
0.432963370341825
0.453731102111422
0.463383698285191
0.444225483409177
0.449190309133049
0.445547076400917
0.412707324167869
0.453044462731368
0.447598599380778
0.449410951943306
0.426576620245664
0.425443051354552
0.427134202367848
0.434834915790879
0.439902975376662
0.44869886268173
0.406164086173892
0.437869662852771
0.414597116484596
0.414590435601513
0.421052353947699
0.442414498274784
0.418699298873772
0.442741101123666
0.402842869817829
0.461685745868994
0.400511074792178
0.453312535553115
0.448051765366904
0.469028888847469
0.434742659217634
0.437047557555926
0.406347449832405
0.473842530603394
0.425022323937256
0.462843003486723
0.432362819112942
0.435713229353118
0.409959406606774
0.467297323271731
0.485564382063494
0.465182388807367
0.457620155662013
0.461023613083754
0.4706782854311
0.465449392851852
0.465918728137024
0.484582295317728
0.514845172999308
0.555772794901329
0.40434170032121
0.510440147060046
0.504516776451664
0.516243781089345
0.479095282697332
0.539134264405905
0.539345157551457
0.568057752681659
0.490065792639028
0.493140399005519
0.509138963277429
0.585809424929262
0.492333581013461
0.574167479397682
0.500064828720561
0.577690044235541
0.61461335885924
0.60635988907386
0.60044505686674
0.609815154371951
0.538176770263876
0.651387180252352
0.561305773348951
0.619677114922004
0.495187099335445
0.630002607163403
0.508567876559069
0.599501135284626
0.512224109442044
0.550529712009166
0.560087389989932
0.534306562792486
0.554701055251812
0.64840028514315
0.553164392582123
0.666729672907717
0.585205269325346
0.59141002627166
0.573700731567553
0.603168750327954
0.511580147785727
0.478980151837343
0.589142122070209
0.477944384241193
0.512413202723809
0.598543730474684
0.523516106955259
0.512220987845184
0.65247487499661
0.748274585614516
0.69887940114838
0.612003769196284
0.575891887362851
0.479743724683763
0.507149368666019
0.503398450181734
0.458002166947406
0.54883089843472
0.322105921725948
1.00933330400561
0.447823356622342
0.696349301490418
0.478642373872304
0.67082483052055
0.557510431342825
0.654139678685689
0.562019349937645
0.980070694342941
0.725880858125436
0.578156925879532
0.535461912325475
0.363919032054053
0.458075741732493
0.398279309421243
0.996122728071891
0.800366463679289
0.389148942346781
0.984026063097012
