3596
4000.36533379555
650.420452594757
1
2
2
0.0685068146385743
0.0841267226891227
0.0745188180261095
0.0816883530722049
0.0834836664111632
0.0790495909096381
0.0674278061884097
0.0800734441160125
0.0651479701335758
0.0830214923827512
0.0742505957999468
0.0857053789422868
0.0696444969132938
0.0781201533971869
0.0710614278142543
0.0759225486512455
0.0694628857831329
0.0834663706204154
0.0737841957409088
0.0803861137702153
0.0691634713546274
0.0861422952601161
0.0760820622719211
0.0735473568669092
0.0741196417758159
0.0891434443517796
0.0722775335014198
0.0787772898993337
0.07767528093482
0.0874067815766713
0.0674920257461536
0.0829092341927741
0.0770119129981475
0.0837772813886341
0.0606339281344926
0.0756307221437604
0.071434328902976
0.0804548286429757
0.0653440198719014
0.0854879462308207
0.0839879911277809
0.0826198881093323
0.0706732025255362
0.0886614478621482
0.0755523321556081
0.0796549970083742
0.0708650039050546
0.0775393698680868
0.0686560097263898
0.084952076903982
0.0741011047082954
0.0826123210643615
0.0773574309715815
0.0901819889085674
0.0756162206235624
0.0958519668892267
0.0689381174669591
0.0768143660253646
0.0727194386624465
0.0852520973117725
0.085910579087909
0.100631057343032
0.076468109311956
0.089908297364929
0.0702972710118811
0.0890544569291255
0.0663096481504594
0.084344996606361
0.0662471419769469
0.0872273796357133
0.0655359265214088
0.0980882521795486
0.0839795155388828
0.0780988184175563
0.0836863106368702
0.0826018219994602
0.0685743106632875
0.0788019773059113
0.0572067161655234
0.0962578219111159
0.0814612597539392
0.0862341974249472
0.0737324955209397
0.0677558972934181
0.0675175513638882
0.0946618430430115
0.060385265382038
0.090734923048598
0.0943691319385987
0.0883228326177857
0.067251135582153
0.0805935870629532
0.0630109281478395
0.0813871611599105
0.068536992159782
0.0776856736185255
0.0661995446108152
0.0852785076098621
0.0659034651223897
0.0811929341963945
0.0857776951535724
0.0871209250943806
0.11748883559659
0.0747871352397729
0.127981365134699
0.0924110976660016
0.075524257378474
0.139622298770444
0.0759695168536886
0.0805761027568317
0.0623779377098952
0.0843905647718299
0.0678903563634417
0.0900389156078083
0.0539369421831174
0.100489911784176
0.0997403845391105
0.0837460667907822
0.0662887198350293
0.0775124310438398
0.0609721641219559
0.110812762753379
0.106578456255683
0.0728238274781371
0.0869725086097477
0.0844209439993658
0.0614515721331283
0.11763785797463
0.0956771096564034
0.0707207200233363
0.0713782372436554
0.0686268214068134
0.0651086263213267
0.0742859770046266
0.121419929221838
0.0842874596795542
0.0777319913632202
0.0811335701984276
0.0949438290760464
0.136987661062774
0.0840241870906982
0.0817822768737262
0.0613123069035736
0.0815963118473129
0.113821625565331
0.0886605922151863
0.0574444839801787
0.10006035466227
0.0864555142684873
0.0658449565518664
0.0676226204117583
0.0682971383712164
0.0903046990934176
0.0942313176777615
0.0534013809177793
0.126532280351643
0.13401563597981
0.0984848112043119
0.139157547742901
0.0721225286258754
0.091712404735915
0.0689937280306597
0.0754098409856686
0.0633837981570979
0.066500770308631
0.0704981084349377
0.0824406731598325
0.104458968393562
0.0640664657364928
0.087783384093695
0.0997232775614884
0.100999635439137
0.0649864480401526
0.144521302585502
0.084402549116018
0.0705005640139767
0.111525885816355
0.0904884389127438
0.0686448421827004
0.0776473297366499
0.0947784923833808
0.0743307186979254
0.0697327367953818
0.0730340262983661
0.0770192658194696
0.0872279572364938
0.0747121817561537
0.0712830016572854
0.0741862927071616
0.0643096631062063
0.0887943336904675
0.122879102445936
0.111669012430203
0.0817470465450251
0.0775390733451858
0.0391973428684385
0.108987874193463
0.111242575187389
0.0654953329950959
0.0774727560973706
0.0605251585569814
0.065570589975145
0.0644010316953696
0.0679897400204202
0.0634995277742456
0.0555386235330581
0.117171434118815
0.0914037757100341
0.0716248135074009
0.0674200081234477
0.0771716068975936
0.0741165172731033
0.116147166088467
0.100953481236214
0.0657549489564483
0.0817504743897619
0.0677315633948756
0.100748251268884
0.083447109025088
0.0660393034086366
0.064746786568705
0.0753123097999668
0.0681126300259385
0.0704634727074977
0.0658044227374766
0.07441575702048
0.0733534014696081
0.0775514481662103
0.0690965412623904
0.0693579402145673
0.0718499267484702
0.0725972646179122
0.0637521503663907
0.0727055318986812
0.0625832405274284
0.0886620670160483
0.101085414221909
0.0769673536708956
0.0702836012968512
0.0593748606694355
0.0679060323946644
0.0703651001438309
0.0649303260099558
0.0595758811833137
0.0669556778520213
0.0660003684231845
0.105223168943737
0.0753955974874788
0.0738865925164967
0.0596300339605509
0.0887675497486618
0.0945169595061253
0.0735015842071811
0.0716364665985254
0.0640795311880307
0.0702322880494152
0.0722452744076957
0.110219413160549
0.0772904396178619
0.0805498337584154
0.0910351649687973
0.0843934482738919
0.0661042286942062
0.0836255124959827
0.0598291674700428
0.147210190331148
0.0980342076604004
0.0930008697407778
0.141128097010689
0.0958058075588689
0.0830452019910845
0.0853755766891084
0.0508711911007419
0.187127524468285
0.106541363514776
0.0810255587042022
0.0803597973053419
0.0972087391311014
0.0686330389334323
0.0827400915462995
0.0818836361950136
0.102217900656876
0.130554516740523
0.138048920526378
0.143947788755543
0.0767882593389844
0.111232805980432
0.109109814009535
0.0714448533291308
0.0789904299499323
0.0771522522816641
0.0801508769855234
0.0906260175100904
0.104347583674038
0.0843079306330612
0.0898223601562566
0.0779364931341183
0.119920045538378
0.0818812485557809
0.0860344835254496
0.0836551161254816
0.0972794089806315
0.0746340955081776
0.0843626142601109
0.0751239289558801
0.0995403963315654
0.0764481398929019
0.0886514016755278
0.133456190220377
0.103397834151653
0.0837894630963896
0.120346266096129
0.0827736132513185
0.0809801895080939
0.0767857915591967
0.0864904027381613
0.0712348574668059
0.0759560462959823
0.0794879148924828
0.119119538985474
0.0874013092147971
0.0831328468826752
0.0814735601267619
0.0821056203605667
0.0812522351942323
0.084276922844828
0.0862188676662838
0.0833817253984397
0.0781323274537812
0.0868813067013114
0.101609069985949
0.115709853821792
0.0797407657430554
0.133988371947393
0.120525207050315
0.0854039989020062
0.086449988819318
0.0867010260578216
0.0878961049553986
0.0821483552548378
0.0885387338717019
0.095695691520228
0.093271589227964
0.106713190056734
0.0967069862808342
0.0986801829659678
0.108993904251614
0.166343643003008
0.161074057418722
0.113423193874978
0.102185797518035
0.0893040103647448
0.133861072234332
0.143837413386987
0.118344395749531
0.142355119694925
0.101393503520689
0.111527325247889
0.0919316027896889
0.101685716103904
0.0966747129805569
0.110506767202059
0.0977612920057056
0.106975161605014
0.105400999911699
0.114523373858226
0.107488350236924
0.117163057980292
0.146530261711423
0.132470806360483
0.11783177448435
0.129245741484339
0.109304595115373
0.153696024632289
0.163914734606301
0.176203105190075
0.172170744097846
0.154371452030859
0.171800476860422
0.139999956533971
0.136103017537919
0.126395870491926
0.134465061247398
0.144919224083502
0.137936802453072
0.133382789587444
0.137393491943304
0.142782678418921
0.139560406142234
0.138528347366368
0.144518577504916
0.153184658836787
0.17709161689421
0.157702901042817
0.158822624419236
0.161986684471614
0.182557498996093
0.231336466059178
0.200086099171845
0.179905043327179
0.170361996624251
0.172666202884104
0.16502049282805
0.178493027338672
0.171583403676525
0.190387752866781
0.181377290704557
0.23078854978354
0.209909808964777
0.212153681718966
0.207688976851448
0.192511837303172
0.222097415420795
0.214832416621548
0.213624231533488
0.235042033202998
0.207905733827641
0.203766020978125
0.235811713141423
0.23660216075461
0.22615537622572
0.255657036653478
0.202736820485541
0.220416559900085
0.227645879248371
0.22962898144265
0.226492837725797
0.250701149362338
0.245953574224071
0.252233702008116
0.244914167869804
0.244905056323506
0.252842106224258
0.270656921920698
0.263056199353978
0.270605508746221
0.271796486184831
0.258210978794788
0.262864829192351
0.25300148159016
0.281421526267097
0.315730628051048
0.299749526618233
0.309087386151928
0.2762907018061
0.287445040055116
0.288191266932035
0.296532223359056
0.295735444760301
0.295951623423495
0.306992910238614
0.305188060716541
0.299336470267565
0.32915062417209
0.315901938525224
0.336598891897563
0.333191439959791
0.330061901620139
0.329592432477977
0.338041064398291
0.339309589908157
0.336540815723474
0.384239079919844
0.405079715797375
0.387077106053381
0.40486924416232
0.356337590104179
0.362881270227887
0.373757907112634
0.370611204725512
0.372124536052482
0.393315289054084
0.385471324079589
0.401882862164368
0.391114517982549
0.395836665895666
0.393960996687845
0.414572270776068
0.418193258725662
0.416357237526497
0.440068530669841
0.443193485682924
0.408508680273878
0.422380222414707
0.453853865561342
0.45268191628079
0.433855581678146
0.460771418065993
0.450606936887522
0.461188591916003
0.464170262339887
0.456789799029044
0.481932063566915
0.462678489043028
0.456347261541913
0.481195589303895
0.473133626816348
0.485156470118123
0.491696205807488
0.498180357631597
0.507324391588921
0.523817363651589
0.512735528370881
0.509721584141526
0.522185902231666
0.527228691586176
0.530648024171696
0.543229435334722
0.53431867476617
0.536755080221471
0.553538403829102
0.555112852370248
0.560493921000802
0.576484279188951
0.570874389254519
0.574785177913426
0.565003512618945
0.593713860658677
0.566180675991339
0.572455580071858
0.585234982271048
0.581250554679151
0.600203656817482
0.620874067448876
0.621588786235533
0.628823047288041
0.622791728449637
0.626763003053864
0.630645265571546
0.616625300363076
0.628518971372797
0.651133507565052
0.636093773822944
0.631462458321867
0.659079790065269
0.682561296884893
0.687511865630125
0.690953684740148
0.678230126842935
0.665531907804462
0.667353051732857
0.708111044838653
0.699247236014132
0.691817805861065
0.702973368571485
0.692453835278806
0.68267793039557
0.684647706799923
0.707559184869351
0.728687123017144
0.710911113776269
0.726689513170242
0.745349749695025
0.725132423080311
0.745274760015746
0.747434851297591
0.765059360323818
0.758035482631894
0.757339947099166
0.763140449171904
0.795321902625129
0.804920128291471
0.794824246952216
0.792050280229065
0.781626965800986
0.782489087472107
0.831803818567717
0.8107222293241
0.793442272331337
0.79556587936406
0.807362892492233
0.834955489740701
0.860205088554651
0.837744324227357
0.85545492386372
0.886111570007233
0.866955720904056
0.831143313968995
0.829573989943864
0.860848634625397
0.89992494848587
0.870827063223281
0.890073472955742
0.896968916967346
0.887792104994745
0.870025467457335
0.923445233932644
0.952358456927968
0.932553821017938
0.887280989842895
0.92671499094673
0.927690878503509
0.904011179154893
0.941713472210923
0.958369672703287
0.890968954851
0.929682692437724
0.928701034424625
0.935503880591803
0.924161292907041
0.929459606853574
0.939390427687472
0.97646888813538
0.964488164598879
0.968648356919824
0.951456236812273
1.00082341847179
1.00345110274677
1.03214978501577
0.99454655023597
0.999033532355539
1.05410318596403
1.06571975466778
1.00751077992374
0.995368180510819
1.01221947847809
1.09575457444728
1.01348712317127
1.0583072953486
1.02612306235495
1.03555108566385
1.05690713367972
1.08313752153147
1.07764530593278
1.03762646037066
1.02223424415149
1.05945518699237
1.01123490759434
1.03043217078849
1.04466632418942
1.07684070811397
1.08812723717004
1.07311315793836
1.02855789827167
1.12684192853974
1.15771323447264
1.08984431923258
1.09420886195288
1.12470837507923
1.02562643594543
1.10648163946743
1.105944304409
1.15551970052029
1.10003333292243
1.11891043858842
1.08834227826217
1.17804636065049
1.18201795787946
1.13995041365976
1.14563018396149
1.11647388503751
1.08164944744403
1.166243987365
1.13143039129441
1.15779442269019
1.1220108404717
1.18401957311351
1.15783152438604
1.19680675938207
1.15456323585269
1.21759566161827
1.15204356817298
1.23957818801478
1.2073502122116
1.17206012621116
1.12555871340115
1.1557542777962
1.1653221476091
1.17261964807479
1.18022948779804
1.20388682993298
1.17210444195322
1.28326832322618
1.16201400641733
1.16358118154806
1.21623848749815
1.21947687029993
1.22369530694529
1.24012876731722
1.19246141001825
1.2864447003998
1.19793193004502
1.28523443576209
1.27026474545516
1.27466592592105
1.24866639663086
1.17727749315704
1.16565074551922
1.26493300477971
1.19649085822171
1.16654757376243
1.23022770144337
1.25993167357005
1.23458357407873
1.15669939032032
1.22013299532148
1.34725060051306
1.24267732089746
1.25539782211494
1.22832001189884
1.26050256895341
1.18450702420688
1.19560548983784
1.20246317643857
1.23866493766084
1.26754677247672
1.25512186441938
1.18498698684609
1.31245765152706
1.20646948362106
1.32911117749007
1.20282170226106
1.29499695235474
1.27840363601915
1.23152128133728
1.28557542602022
1.25387716001797
1.18211339723489
1.22350235891043
1.26504976247449
1.26249133739886
1.2494652374243
1.29050644670713
1.24788571174105
1.24285862105801
1.25742420471605
1.35730592550634
1.23342062187184
1.1909457696309
1.21578237123565
1.31123810753442
1.33567813771212
1.25921453795925
1.18025297636144
1.24560458623633
1.16902386917244
1.3254022261571
1.27726887616041
1.24138277980891
1.21956769246808
1.21043230924603
1.23108482803371
1.25832511766092
1.14949387617738
1.23139434846587
1.21239099931613
1.25171465714027
1.20198187518819
1.28391327469202
1.26420154578296
1.18194125105511
1.19577678517747
1.18420915673586
1.19398052744891
1.3062892516111
1.22895109548081
1.23662640865551
1.19433175764937
1.21720011057843
1.22941353978126
1.32261443634493
1.21010034178541
1.35814640022245
1.22188723814317
1.20881448241133
1.24515738286764
1.25134415271894
1.19555214289607
1.22335410819154
1.19228127025888
1.25394592242917
1.20211451087572
1.20064272956733
1.23235596944545
1.24717843424337
1.16142569715844
1.24744141894287
1.15950083119162
1.19373076020762
1.22008089678166
1.18624910707256
1.22650584106083
1.21284885179851
1.16557032932761
1.15536740138787
1.20778809343697
1.33029479514108
1.19857138464351
1.21856752934762
1.13047832373525
1.19175167043982
1.15015950670058
1.17162766853236
1.17788604079663
1.23490024444169
1.16041184324535
1.22269035947792
1.162305429224
1.18125709999239
1.15773105045925
1.21965240308345
1.14726443280903
1.1060782298478
1.10058043251104
1.14714541347953
1.10122645806427
1.16227532644192
1.09508745159773
1.13976435087783
1.14354530162296
1.18879678290355
1.14598874022909
1.18204008455679
1.14108784517042
1.13533011637308
1.05546858067315
1.1381511694859
1.15374642864715
1.11145440422636
1.04815922597793
1.11689098882183
1.11228986296989
1.14162731158768
1.06761095168108
1.13506844912657
1.08716826482209
1.08769691561831
1.06501658594391
1.10437173975284
1.07272783007297
1.14874709501281
1.08443812314431
1.08215600541749
1.02649984517196
1.05461866457116
0.989180758657383
1.09902355134893
1.05620714490176
1.07885730163814
1.05418130001947
1.05314001221995
1.03078108008337
1.10763709251997
1.05370554458891
1.07016348997335
1.00782520631052
1.0405269152413
1.03113830087814
0.988704283681135
0.997209454050699
1.0126178669987
1.00598720727357
1.01571544796758
0.981066454062032
1.00279357067798
0.980909410079274
0.982278738331547
0.979434245353264
0.951978205198711
1.0150229929668
1.00180923058322
0.975442874025547
0.974427813927284
0.945179338810281
0.975006288958928
0.974875520154252
0.994025806470576
0.966897290437814
0.924369412318454
0.957702326889441
0.976437466137028
0.905190083374758
0.934504316918392
0.915756100280574
0.933955488043076
0.913475579343064
0.915855278163201
0.896915612563407
0.959434696041595
0.875461680077559
0.907732605607905
0.883161088371673
0.90518291550046
0.873392134430089
0.908970678327805
0.860269752156811
0.89282586422829
0.883332589186843
0.874179632563687
0.844431595395003
0.881011275435677
0.863664527192973
0.862960870668856
0.848587638107891
0.847247048627338
0.839044398061841
0.853711880066904
0.844202773766259
0.835497392715726
0.822503468876789
0.828551868551141
0.807059059876932
0.806434070039626
0.784520646724324
0.797035180869686
0.782204969191381
0.815079573571254
0.804906904004939
0.797396494239203
0.761544080076595
0.787525599294892
0.761976551569832
0.765450361904284
0.754535373184833
0.776769559095889
0.748479907337835
0.775329281187145
0.755007970950559
0.748206344123309
0.748603626472561
0.748072690445233
0.720603083255208
0.731407181879376
0.720934491484156
0.734234299474787
0.715836713632748
0.716237211493669
0.695635898503662
0.722396236787015
0.701661066253468
0.71518594531202
0.699212995912072
0.692811413539866
0.687393370072321
0.6969907449424
0.677610000098975
0.687362478974856
0.691001645959479
0.678125074554998
0.659501603837952
0.692808635497639
0.651707500536583
0.654762729277145
0.651767135058772
0.666114187635844
0.656966344911963
0.653045135809452
0.638241338320835
0.64802258816764
0.642151928012077
0.645638070896328
0.631956919861654
0.628787673542551
0.61614457041485
0.641530481345511
0.613866138447988
0.605816068594624
0.604861968877761
0.606171610992543
0.605955666659119
0.60326965933869
0.576241970977645
0.589473072831449
0.58135399292617
0.59751465585384
0.582764960567679
0.575737392326595
0.579478987086181
0.582750496141878
0.572199138907328
0.564885935271642
0.561728935636276
0.56762709471044
0.55454222253904
0.558168814382127
0.551655806751011
0.55552122738691
0.550139752320126
0.538262861339659
0.538074788656481
0.533502101722764
0.525849398110628
0.528170342052452
0.517799847889145
0.536808262091563
0.519397265316823
0.530245665675419
0.523719907909994
0.524773441649472
0.522441392293432
0.519687040907653
0.504397951231268
0.514084918071012
0.504893502939392
0.503455453830955
0.505507078056998
0.499729981383323
0.490894334627968
0.48996170795597
0.482032325043996
0.492511568070982
0.477396282495617
0.472150682319263
0.477075454225285
0.477859930779046
0.482388103836308
0.46825626443184
0.458845867758619
0.47067288192954
0.461715165832023
0.464362706446948
0.457661127100674
0.460055192985565
0.454219126209682
0.461595036974924
0.441944607986315
0.458455012629721
0.43944154939324
0.442926568866856
0.43474704323106
0.441337958789719
0.43373632554281
0.434388512530235
0.42968770910872
0.433559478685024
0.426426381707123
0.432623008511178
0.418321319253173
0.42285434252904
0.422186551052348
0.420028452312842
0.405461795672774
0.415729955677736
0.408049024503815
0.408027307936363
0.396996971996999
0.41345374413071
0.394016169859794
0.40874957428798
0.409146122510984
0.399273039632407
0.397570382574568
0.393246479108298
0.392791454430639
0.397883716884642
0.378443232747684
0.388500304453433
0.386083097668304
0.381997841886638
0.372818446526214
0.380980481353549
0.37162264429142
0.368771944198998
0.372488325956802
0.36827289362838
0.368179233370248
0.36860336748087
0.36565045452136
0.371531313523907
0.364602869669114
0.36647986769973
0.363761508467787
0.365418844962671
0.363215943855194
0.35768466625369
0.358024865659357
0.360774909154341
0.36072772684346
0.351579671831465
0.358828664662499
0.355679105098845
0.35303697132439
0.351042118159147
0.349346774653871
0.352576317574814
0.351890403974286
0.35941292229093
0.350542000113673
0.348518511306523
0.350208006192707
0.361332613015549
0.353649601231204
0.353178918222152
0.34789831087044
0.353953397015226
0.356334625809317
0.359467082160589
0.357821336301962
0.361712671344449
0.355102069052904
0.356145012543402
0.362365624436998
0.368424759672474
0.366659088233333
0.366961230805635
0.368017925794914
0.370261350164622
0.368722039800763
0.375900803980012
0.371328602484751
0.380570251499239
0.383106898941103
0.385657566147692
0.376889738985694
0.379212363497854
0.383309923576405
0.38730316384399
0.393289991795607
0.392868889280182
0.389909339472089
0.387859780608159
0.390995880779889
0.398873592176937
0.385082583420861
0.400898027111023
0.394912285623965
0.401977441685986
0.402177749809084
0.416631162990207
0.402399708331334
0.413627564373603
0.410588395770646
0.42536115949963
0.412120607066979
0.420078854883069
0.428199746643657
0.423740656051069
0.43083290888815
0.448012066033678
0.437228374190968
0.447571930171143
0.442431706128482
0.448456965084677
0.452043724562685
0.463503501378989
0.458343501719292
0.457961776264638
0.464278340767013
0.469650868303559
0.467605804366551
0.485974673281211
0.476956148110158
0.480088529109667
0.472299069740532
0.477409650634561
0.474933735582113
0.480070490317314
0.476352693548585
0.492030443116232
0.485567478045295
0.481424815332997
0.489836729520552
0.493545172318813
0.492040859770925
0.483857134109102
0.491208661520015
0.488450540338261
0.483434668465272
0.483948183190222
0.480958888903134
0.488519415821386
0.478784561561389
0.477679619474376
0.488961841761755
0.477674829467643
0.47738307758651
0.479296790473816
0.478975966970502
0.469406317598865
0.466984767668608
0.48115085408164
0.474655116020962
0.471821505784825
0.47201652954321
0.474004014055023
0.473620556973396
0.475747368828902
0.471919519859624
0.465862052723982
0.470348356128039
0.482141273734989
0.463461498157491
0.47054851516967
0.475150583105551
0.472416043530176
0.472049101194516
0.466595221413462
0.475870957875061
0.47452873141947
0.46467635452389
0.473239650706039
0.473178475801649
0.471956587398017
0.473516945806782
0.471714785993973
0.467531307106433
0.461558070096157
0.466233682933361
0.470937051124653
0.461314578904889
0.468065983746129
0.466380829228899
0.469657904251054
0.458366137539536
0.464109173071636
0.451640431223955
0.458063228294694
0.453936290161143
0.450494087676623
0.458166680080165
0.448267969985233
0.452531719841061
0.442218731107489
0.436129827273832
0.446010322473797
0.430484332953133
0.435372075152964
0.433212989554375
0.424987659150037
0.42703155771734
0.420764881567204
0.415253123094184
0.412724120167269
0.401847379263215
0.408181877803493
0.404244111100085
0.398721102019128
0.398383962648583
0.393006766429868
0.397311581448412
0.387017542215474
0.383944146317249
0.378143283452558
0.374808530853384
0.371747716316303
0.372974588746233
0.364129212605884
0.358837067804014
0.364036076801006
0.363359063418183
0.361541710572807
0.354781403614815
0.354662114180767
0.354877171877693
0.353930342790593
0.342506283963435
0.340305263877784
0.331976558921773
0.336900232908329
0.332699370435357
0.330411886585315
0.330408790912383
0.328324094027101
0.321640992450882
0.330810259555553
0.324862937379682
0.323095624600342
0.316496732345532
0.318893441366003
0.316018171526519
0.318550539648103
0.313286569987688
0.310869156514301
0.305824419376657
0.313993382381433
0.305167982254869
0.308390229589863
0.301381120679579
0.299919562415591
0.294834563285036
0.295997151999296
0.295370691953267
0.294473084862102
0.294909213971458
0.288184713536653
0.285627823558612
0.290751180108928
0.284798309256171
0.28799168890098
0.282582219889781
0.287501835513277
0.275259527938693
0.279907810056887
0.276438358843213
0.280199277928704
0.272799913664875
0.276101610452776
0.275748424290055
0.268755483184926
0.267454335379335
0.269520055516595
0.266708005373928
0.266045503762362
0.26693118913018
0.266578395801327
0.260739153112355
0.263172910788539
0.261066907786406
0.263639001647937
0.257837566224095
0.261115054104391
0.252452609600766
0.251429665471046
0.253700781302682
0.252531466130622
0.254480110500336
0.254431186602509
0.248412510463535
0.250572191038715
0.248392303173474
0.250343932558341
0.244316888644706
0.24767419069979
0.249386728338173
0.247157275297627
0.24522155339258
0.245231893579411
0.240117678600424
0.240856992524597
0.23958013063692
0.239995021680711
0.243458771116585
0.240987897655045
0.239351968609519
0.238572285783161
0.233480621445308
0.237996198331591
0.238027526733817
0.236376241129404
0.23335649035062
0.233948945477246
0.23411743720921
0.232242287372401
0.231415361618824
0.230470882988203
0.232321686200612
0.233523802090443
0.226508816168725
0.224730509935885
0.227797960455316
0.231011363022183
0.223606211428966
0.224039958145579
0.225254468715972
0.225463584219967
0.224229549963507
0.223995324722789
0.227709958480802
0.220757107473396
0.220679604514492
0.225382092560887
0.224339077549189
0.222666880711301
0.219562877596305
0.221751142462319
0.223141796289149
0.224599896317002
0.225456799747148
0.222570356664354
0.214987286526314
0.22032916201839
0.218728858977092
0.216904610214671
0.218220166296555
0.217520974100741
0.214217604584228
0.215147584497801
0.218452254364805
0.214673080399517
0.21565914266215
0.215820058480322
0.217625618846153
0.215783647723504
0.216445455893145
0.207753141668227
0.213187321141602
0.213363583503335
0.212529224251073
0.21053726528979
0.211398651288734
0.206266073711372
0.211622150977642
0.208040108472856
0.205226388473096
0.210423613716798
0.208033674311087
0.206540537068906
0.207648554534065
0.208454868803883
0.206187111287476
0.2017349672851
0.207845428172161
0.203745993177319
0.197986474488426
0.200356113113781
0.202590103925357
0.199447917896581
0.200508292199385
0.20070587626463
0.199887775018925
0.202669350412289
0.202317430323862
0.197247307344183
0.196995709441434
0.194736738594214
0.20051470582373
0.194306707244676
0.194517263376793
0.194887858375064
0.193359741033003
0.195030545528026
0.196505292920398
0.190492770505351
0.189204475747961
0.190032036068227
0.188630273734779
0.190264364639654
0.189541904706884
0.190894155686923
0.187630502913484
0.189324532308467
0.188148886810113
0.184659295959019
0.189101986441134
0.185835976222128
0.186725344489492
0.186577469694589
0.183756043325079
0.184669976404338
0.184759172488745
0.182698235072293
0.179451778485434
0.17635894552284
0.176494246942486
0.17717162879829
0.181116781870584
0.176970161805216
0.178058822597942
0.176567411910728
0.17229042203798
0.173575282094928
0.174674760480253
0.175921575733318
0.173894104409102
0.170785897351771
0.172085579785646
0.167009908709559
0.167924947110558
0.167100606157529
0.163650014518424
0.16241725614368
0.170524899221512
0.165275356332478
0.165431362271734
0.166268384243918
0.161054616003398
0.161260571250995
0.165749007840837
0.161139760741901
0.162656084242164
0.158674969216403
0.156605251054372
0.158013917646822
0.157418191737172
0.153619705726632
0.157743963158241
0.155901312166326
0.154667985465554
0.152849508045969
0.155070786734339
0.152243469584663
0.154357719999524
0.152252400022224
0.150475431706797
0.148909939217917
0.151895563430716
0.152715714750858
0.147353499265997
0.146057802706361
0.149328047850128
0.149284582595946
0.14495199874589
0.145327977528251
0.147925385256143
0.14283904419374
0.143462320436974
0.143737018403512
0.144291628572666
0.141651238020324
0.140747921551222
0.137541085458761
0.142007127020668
0.140126102318096
0.14277946674225
0.137090425016112
0.13842942315063
0.138325008012422
0.138768054747155
0.137260026857554
0.140902067285534
0.139292888231479
0.134873290697899
0.132196965411224
0.136845502899204
0.132264168062966
0.136315815791805
0.133748072902607
0.134980808663213
0.132022058366124
0.132292968186897
0.132569653401457
0.132092422738742
0.131989818620968
0.136011687684874
0.131162664633021
0.131543930963473
0.128734246075811
0.128312024264259
0.127123577032496
0.127643801011885
0.128751696436802
0.129681329334366
0.129359369133748
0.129830217963969
0.128541307901042
0.128750233208898
0.12608222250113
0.123472988933217
0.12777222741042
0.127748650352353
0.125686691368363
0.125104698541263
0.125712760969324
0.125271922401012
0.123453643552417
0.125279056927899
0.123190590184382
0.123591053341369
0.124351412932542
0.123623165770484
0.122341826319979
0.121171321649691
0.123562287644511
0.122193746037223
0.122734715466215
0.119865456951982
0.12032246014202
0.12259852968893
0.121601046122814
0.125373165452701
0.124214690516712
0.122529081478662
0.120721184712527
0.120006315775099
0.117799626351388
0.119719059158741
0.119082841036172
0.119830850009676
0.121112727937695
0.118825051934902
0.121299296517478
0.118124917326622
0.117976688025276
0.118732197629959
0.114109098861059
0.119230845546956
0.116985309769696
0.118320540474679
0.1161198155509
0.116213466901923
0.115505534819594
0.11770012948444
0.11539835589293
0.117619563513148
0.113037772945769
0.116936683949053
0.111605963176118
0.116422153604791
0.112093614851335
0.116202497885944
0.110959890195946
0.116671047076815
0.109426176362816
0.112364952022944
0.108726210425978
0.111650330854984
0.11204198499969
0.10991814722206
0.109902271869005
0.108556729436802
0.109486339421354
0.109881143387641
0.110684804496038
0.109060875527871
0.107704169588224
0.110143880353274
0.111092980112972
0.109257225009228
0.109693711003371
0.108205741045175
0.107514218182811
0.110870024021742
0.108109025886383
0.109271555856832
0.105504532177033
0.104703067857733
0.106176859016232
0.107836824729483
0.106782226460215
0.106684883748635
0.104532155727094
0.109775890795212
0.105587888699625
0.107150866652365
0.106167724362827
0.10732221634258
0.104024247186083
0.10517375822503
0.103555444280463
0.107264624056711
0.100962198665662
0.103780151158061
0.101812568805304
0.103939668238538
0.101478888344991
0.103552485432378
0.101891391175991
0.101811639596143
0.0993304161240763
0.10107482393493
0.101899612030035
0.102478064378632
0.0986263922263056
0.101755347318299
0.0985343530676341
0.0963074546518064
0.0979597935710328
0.0992653861825088
0.0982372104465328
0.101009032421359
0.0979009090554416
0.0956421702027224
0.0917491586104077
0.0972822996701259
0.0947512896770207
0.0978973197926882
0.0952295156818273
0.0957202918523774
0.0945466661053004
0.0954943010864789
0.0927124164691345
0.0944444157583373
0.0930081015582007
0.0941363038051163
0.0923840298712797
0.0932739853021309
0.0921761927100353
0.092158636759438
0.0885411874119398
0.093288872319056
0.0894145879170889
0.0888364309689954
0.0902019262834429
0.0909005188047424
0.0879181165029903
0.0899235255511849
0.0894076186666829
0.0918775337318939
0.0871307057601759
0.0897459789543723
0.088683842648405
0.0923451576845634
0.0869052570164763
0.0891056909186145
0.0875881288513345
0.0878760843525686
0.0856584318316233
0.089163924011984
0.0850326412638077
0.0863986380961784
0.0833545003269752
0.0857797921664393
0.0830033708030363
0.0851887228599508
0.082866819020303
0.0865766501420425
0.0812468316379741
0.0862928408364374
0.0828652567318034
0.0820174779427537
0.0796305457917499
0.0835977408364751
0.0825144823078212
0.0819982516071512
0.0792547671055716
0.0852467377221552
0.0797984593846704
0.0812921159041292
0.0809822114792715
0.0839675552266627
0.079869344294758
0.0795278195607554
0.0788050287055393
0.0804000031954421
0.0783444570064792
0.0807961471800055
0.0785714324109126
0.078768653222844
0.0739693434968507
0.0789470124487132
0.076431565013614
0.0784114120097658
0.0767471157073547
0.0773039387692227
0.0762808267403725
0.0784276440663841
0.0752354146557641
0.0782047897875255
0.073941482263847
0.0771001639176745
0.0754269907227852
0.077283798918847
0.0742840770411985
0.0769731443216078
0.0753712253675844
0.0770632642147531
0.0731229250642129
0.0752823107445881
0.0726695710577297
0.076376582807848
0.0756909228461493
0.0778932877061831
0.07206369271722
0.0769412087974425
0.0744515321205977
0.0790323212692405
0.0753372639879954
0.0779948733232469
0.0727272382358156
0.0790172127691129
0.0738140742578773
0.0774501172388739
0.0743892555461783
0.078026807570924
0.0748951879417675
0.0800019938026643
0.0705444685064561
0.0765532865315513
0.0703572146139898
0.0717617420780545
0.0649149315082361
0.0718265709108559
0.0674868674778049
0.0742863941302408
0.0630810092488521
0.0693068069045501
0.0705144265315145
0.0758012119522831
0.0653380178569254
0.0721665862292502
0.0605001111761157
0.0704464686816102
0.0632235512620836
0.0703966453954272
0.0648117262223271
0.0767639359326388
0.0658168326140326
0.0722724167699029
0.0652144004445328
0.0784265343368577
0.067629510208652
0.0780122590018622
0.0619268874543343
0.0761602900354337
0.0629628736750352
0.0773281727114497
0.0606988367949506
0.0723172534511637
0.0615567847282126
0.0766315859273237
0.0647876074921209
0.0708669727246122
0.0572241755735024
0.0750425314275561
0.0601293103950248
0.0690758804898754
0.0578165904805179
0.0658444636691208
0.0621751465032988
0.0690985562819062
0.0697726028491591
0.0689436807324544
0.0721045460056656
0.0614046170007901
0.0751877892562566
0.0553432063306709
0.0814000185407219
0.0532486733364353
0.0815963052342168
0.0467168441661192
0.0951722383122308
0.0452604693864642
0.0986163537871742
0.0369212069572952
0.102607303125682
0.0391837947546452
0.098742977853556
0.0445091622413602
0.0899123627785727
0.0482879738194076
0.0840269658975711
0.0612433872768018
0.075020805011586
0.0675936507921607
0.0661750018053653
0.0721374410110781
0.0657077657751782
0.0717410727174111
0.0664833751492858
0.0707547453974679
0.0680808363364631
0.0638620946904615
0.071203676059658
0.0608626942303757
0.0722671701723034
0.0623970768047738
0.0681490829617711
0.0662007871351785
0.0680112191487847
0.065576754437005
0.0648756092687852
0.0634074908847909
0.0639256453715139
0.0646638001311801
0.0687215928726842
0.0651930747192431
0.0681913906833078
0.0636908980947799
0.0667707750815085
0.0653028070694721
0.0670439484598175
0.0645527071531005
0.066018139098973
0.0630805474028964
0.0656955187021717
0.0652650311441863
0.0650523759038958
0.0633277765000743
0.0644965434918045
0.0641592468147536
0.0667657790905891
0.0631316724232275
0.0644552350302509
0.0656620310972559
0.0654464817265659
0.0643295084714343
0.065865790209048
0.0646593754470027
0.0678289914625937
0.0662638924338767
0.0689117795031702
0.0650920551082695
0.0661332393594029
0.0652393165424251
0.0645158988722411
0.0633997658868754
0.0650397941849161
0.0654515980454685
0.0657980801435399
0.065736286456594
0.0668032816667614
0.0660112319880933
0.0632410058897641
0.0637142561526605
0.0645792498138205
0.0646570238568082
0.0640118130095492
0.0627357682163855
0.063913694594801
0.0662530339099869
0.0652582213065597
0.0644908127270609
0.0640099037330897
0.0675992204192214
0.0654273214360666
0.0650099747868632
0.0639435366022791
0.066261240846402
0.0647388969673465
0.0644746298330033
0.0655121043048088
0.0656011886740981
0.0646593287352019
0.0650680381895276
0.0648676252671574
0.065565246536628
0.0640158330442657
0.0659442337976789
0.0652993350977524
0.0650634207301927
0.0625333757265346
0.0655793896632484
0.0647349478059158
0.0659353404669074
0.0657005315433292
0.0651469607727328
0.0642180117508011
0.0674327159433639
0.0656550756643548
0.065857196829428
0.0643530825805508
0.0672464626794236
0.06670752077865
0.0662558911116704
0.0669827738362842
0.0673358657538456
0.0665528486591092
0.0674854860068952
0.0659348819389403
0.0663782374699578
0.0662939504292072
0.0670854642734075
0.0673377834819299
0.0672296098117262
0.0646073447736703
0.0675239188193417
0.0678261457510184
0.0685273753571491
0.0694343771750976
0.0700631283022624
0.0674042683935901
0.0677841870050586
0.067374402081153
0.0671018271054365
0.0654608023345718
0.0684353247885226
0.0657159789647815
0.069582531897561
0.0684939522478505
0.0675236137597556
0.0673072881630294
0.0681201068153195
0.0676198842848551
0.0679428600455733
0.0686751751729632
0.0697072360544651
0.0678009477059751
0.0645286288884967
0.0663130591755469
0.0679545085669838
0.067682727421036
0.0690051876929427
0.0679921631965111
0.0704406077017511
0.0677859094899646
0.0695984106765158
0.0696629145399567
0.0681551052128805
0.0673616426004742
0.0717781954187808
0.0691091398609032
0.068940043400829
0.0681483291441008
0.0693276638579643
0.0686601626917806
0.0696415915747574
0.0688757965797647
0.0711917517499855
0.0709530727861011
0.0728582124420018
0.0711257936877281
0.0715164598133643
0.0688569837548576
0.0719862427226812
0.0720772977567815
0.0738350103339578
0.0695885652052809
0.0709402793825574
0.0699149999265769
0.0729645417012501
0.0716145861774704
0.0713783343175542
0.0704413221106033
0.0711437703590712
0.0694114363492687
0.0700918622666379
0.070389938061169
0.0704819268284399
0.0705002385457061
0.0735609059208188
0.0700299229105184
0.0713687618988958
0.0682848767832089
0.0719712606871739
0.0691010271003588
0.0712965937564981
0.0704906640701198
0.0700732238562791
0.0677532361330389
0.07036118439248
0.067172997835832
0.0706266026344989
0.0682091491671239
0.0709460934540606
0.0693748837685119
0.0700000234133158
0.0681681804741021
0.0671986888304731
0.064158804135968
0.0704126827671737
0.0644468545811562
0.0693787355677475
0.0685084640924806
0.0692209033993743
0.067322000453828
0.0672360904648526
0.0645914523074417
0.0670109895139182
0.0658441331043476
0.0684041832259683
0.0677064917616681
0.0692440763952242
0.0696445687990087
0.0681075938161778
0.0647163911754518
0.0677226386238007
0.0649385731241642
0.0658944713010885
0.0667169802795467
0.0680804178995562
0.0664387302450353
0.065007496367153
0.0652940393658192
0.0678602442855913
0.0629748912364717
0.0662204944152561
0.065206268254754
0.0658657207146458
0.0655275931353503
0.0690257971083682
0.0664269146800476
0.0675257679195153
0.0656152402504861
0.0663234415513596
0.0656448898551235
0.0677755703273424
0.0648920133965736
0.06410906047873
0.0651189508060896
0.0676935735364059
0.0643236731105016
0.0657230429740032
0.0651212359973677
0.0668148528541386
0.0633190745823652
0.0675048411303967
0.0642815743483471
0.0659467005164213
0.0656121950640634
0.0660203624861985
0.0644009864427194
0.0672834361625347
0.0646276606489491
0.0669770369979514
0.0642995802903219
0.0643993133253094
0.0632015070365474
0.0658202138662984
0.0650687636298961
0.0673032782602278
0.0656416563565527
0.0656116683490823
0.0643778213860352
0.0653048127815132
0.0634419170488783
0.0674451898023139
0.0668818397558804
0.0672152579596735
0.0638081284778732
0.06535458144494
0.0639505793625893
0.0666237567519472
0.0621397325851125
0.0629851070154304
0.0617029227076178
0.0651262054988452
0.0627052111275786
0.0651009849854761
0.063269679109272
0.0666545831413362
0.0635159669508076
0.0634952142707404
0.0622193531241549
0.0649815109950307
0.0620725229062736
0.0649004490340986
0.0624794487778338
0.0627530363013477
0.0610091526426179
0.0644068283344344
0.0600208447275254
0.0624842493019443
0.0637681839901517
0.0633155271069917
0.0620187547408416
0.0626829147439867
0.0588292681076703
0.0616638606067917
0.0600790909145655
0.0632138166532373
0.0597495254889924
0.0620676819052228
0.0603652880564615
0.0605433972836739
0.0597484773223777
0.0614488763722164
0.056846220940338
0.0606320508844059
0.0597294651411265
0.0603581134884505
0.0599174446387052
0.0620799217277106
0.0580545232494274
0.0597912834105859
0.0570182113733074
0.0601886069129617
0.0598568321960366
0.0624747132389331
0.0616083807059694
0.0617170141201876
0.054795213759869
0.0601050564467929
0.0552027022458919
0.0603522462596429
0.0568647730284768
0.0578780385334209
0.0557093594186848
0.0570461007432436
0.0559324708846666
0.0575462357837871
0.0556107906749847
0.0571501398522763
0.0537914896659431
0.0577041775742301
0.0539691637428538
0.0562371887958961
0.0526706254589075
0.0564917019055474
0.0526218975418671
0.0555535495333953
0.051733354654519
0.0556668672037452
0.0502229816528892
0.0570695029008958
0.0593292715378065
0.0648823401453736
0.0563677933658738
0.053706013153123
0.0551357149266649
0.0598972301969027
0.0555740019315757
0.0542580173008489
0.0531902551359125
0.0523549953402271
0.0538701431706392
0.0551997323795067
0.0535004577140432
0.0549904457836835
0.0526432303676751
0.0530547463245559
0.052977251495092
0.0541431837288251
0.0510972077965901
0.0541072816573243
0.0512567927003276
0.0539487849067487
0.050437650660253
0.0526823213027946
0.0547938082522797
0.0532179412782768
0.0531895999157101
0.0622808928399051
0.0583448068369717
0.0542328042094019
0.0513735767452409
0.0510258751431375
0.048563379079996
0.0525972185430607
0.0535989851678277
0.0525406022958066
0.051250229314758
0.0532458639126548
0.0496255023504449
0.0522794769722958
0.053274098518458
0.0525926458332448
0.048793050109689
0.0518816287055976
0.0484181828313326
0.0501967935398938
0.0479917680333962
0.0513470981352532
0.0501540703165128
0.0503625616036211
0.0524980755437765
0.0530111975843929
0.0505789179281807
0.058631711036279
0.0633668601008178
0.0582025695994155
0.0496795966441147
0.0526460518443405
0.0458548240253586
0.0520031502236826
0.0470765185333835
0.0504808712640043
0.0469793197338646
0.0515158099365247
0.0497789248541669
0.0508641185064779
0.0492705577480911
0.0502577586739213
0.0469164693717559
0.0506793132744934
0.046957462416032
0.0513022085884082
0.0471942379295465
0.04859774720704
0.0528974835884362
0.0662793375392597
0.0560056092717885
0.0519756493751866
0.0490384946262166
0.0537132418310881
0.059134435727264
0.0606964583040098
0.044125666171867
0.0527590943787265
0.047624903351813
0.0494835165572269
0.0462249609206478
0.0480064879983114
0.0483974000693002
0.0578721759648661
0.0516469504181186
0.0553250376974077
0.0498451358894172
0.0479178698156816
0.0464155401244455
0.050488430764047
0.0458825436323067
0.0487244892645502
0.045932637629266
0.0488840771855415
0.0469083321795348
0.0480334677811919
0.0465672715093499
0.0492223361729972
0.0508143957567456
0.0565828091069175
0.0479280353495145
0.0508106315351747
0.0489639462800179
0.0488255817178
0.0550585813329577
0.0640144349744465
0.0515026047325651
0.04816446778674
0.0475189835932722
0.0492997811302476
0.0508354034612111
0.0490128035142025
0.0473416032969919
0.0489025672138693
0.0460228602182129
0.0490605615225567
0.0472604789809225
0.048178740028421
0.0474034793637907
0.0485457395378645
0.0453787357267991
0.0497844562599336
0.0471601796049837
0.0508387499088228
0.0482582444720937
0.0539267695137586
0.0575324054516819
0.0741881734754796
0.0619795424134265
0.0617627947223733
0.0518488981227157
0.0512236238488746
0.0489132222261657
0.0509448144355988
0.0478650188140831
0.0524111502444298
0.0477462253427602
0.0517846998996448
0.049448228520056
0.0495738668020189
0.0472405164018435
0.0485498357512507
0.0469026391787712
0.0464824493020603
0.0457792357455133
0.0483323686392192
0.0464157002829153
0.0462203687988098
0.0487947735136072
0.0597746821930343
0.0554998819406564
0.0517111573061309
0.054578215124464
0.0736603847856784
0.0734888557362678
0.0550596619096708
0.0547073899262473
0.0532042109406633
0.0463242388766435
0.0495643237868843
0.0505622957589858
0.0562378998657471
0.0501926255636135
0.0504336694902447
0.0489786245210833
0.0519454946611705
0.0500411031215276
0.0507551925027226
0.0588543728861478
0.084286522836449
0.0628140082105097
0.0522782990231363
0.0481744276077334
0.0643956813435775
0.0706333236328126
0.0578439335017818
0.0514456865351989
0.0547603987549973
0.0471739896183376
0.051100383508684
0.046016556366901
0.0526610448702378
0.0540137729005075
0.0542089280648787
0.0483276813626337
0.0518718832313166
0.0474546649462208
0.0521908882557496
0.0543417282146228
0.0645743295690107
0.0584756954269316
0.0550438367213206
0.0538072024081083
0.0569305735513508
0.0522020728456832
0.0581760799820667
0.051017592692098
0.0532513906113772
0.0635788157822867
0.0702317798142418
0.0600073755681408
0.0726721769283575
0.061862416337426
0.0555344984985472
0.0543462746492473
0.0679028668005335
0.0572739285881942
0.056682548066706
0.0678820939161037
0.084091959556554
0.0765713015239069
0.0706852601451273
0.0579917325517065
0.0569341929713326
0.0546712051490008
0.0539017411662111
0.0592966720379126
0.0693233179026321
0.0602130819359417
0.0561854089149669
0.0544808969656989
0.0701095294138891
0.0679248522429896
0.0639632074143533
0.0593531155958107
0.0573440467704515
0.0616953953846322
0.0703693615958765
0.0611813058192376
0.0618936124719219
0.0804405553080105
0.102515497293482
0.0810367485646962
0.0654497773747734
0.0599147746392257
0.0920225420266755
0.0665155522326858
0.0626508041570837
0.0590975078752243
0.0611821288653761
0.0580217194169419
0.0724781197458941
0.085132196524093
0.0715994003852568
0.0618004815824537
0.0697284444251804
0.0626949201421601
0.0804700682919896
0.0721563205530271
0.0658915584031856
0.0627651947905752
0.0645249837655522
0.0674213526960173
0.111759500864103
0.0835921076288632
0.0888171414358643
0.0933980870042267
0.0934480700712413
0.0801519404459823
0.0806176956700413
0.0712451880220216
0.0931915530248911
0.0912118574926138
0.076580326527216
0.0665749672762737
0.0913243695497278
0.0950494628115726
0.0812788337417163
0.0761701384741039
0.0777288405652602
0.0783824868882613
0.125459007771915
0.138552838870228
0.11281641981529
0.0829799837519937
0.0930987066405662
0.10657487118795
0.091247276996662
0.0836653397016427
0.0870290903633844
0.0824353544941718
0.0835142389644339
0.0849685538323385
0.0998247457545308
0.091439571735678
0.0912015771810235
0.0862643642941536
0.0954164570823857
0.113794949489053
0.153527725938
0.13024209022032
0.116846693828624
0.135803138246512
0.130706128057838
0.111654545459034
0.104048468957084
0.100927806457721
0.115169192754354
0.106683407965218
0.107021005580834
0.107061382634561
0.138601901088286
0.125135172450092
0.134871501937692
0.130215986842431
0.121515865545776
0.123381913777714
0.141116910846381
0.250577546088586
0.157423216706856
0.14171356156773
0.152569909298089
0.155829430621537
0.21122605813161
0.154898863184791
0.147579930828039
0.147943371299598
0.151601981088599
0.155859858543299
0.170137029596305
0.171850424545592
0.186181166486025
0.175259305116629
0.184778832397586
0.197200523884791
0.276131100954744
0.24262526190212
0.223876425565656
0.205177563760421
0.231942340737636
0.227577685227496
0.220249088341122
0.220231736916932
0.229456742155436
0.246538921627434
0.28487983046128
0.247469303949093
0.250072306450968
0.264325601294797
0.287367708428712
0.259683883918741
0.309733397982271
0.306779472088584
0.295437841407496
0.279889999971115
0.295924429527616
0.293327930368428
0.303277912034745
0.336604005284264
0.328328271383915
0.315212903371592
0.321237899307888
0.315805911879929
0.330473471653701
0.326758919669747
0.332912663688255
0.328421828152813
0.382012093135681
0.368205842633961
0.540499669401059
0.371687597550214
0.348228502829754
0.349556272195528
0.351362946087248
0.387459549932805
0.383115870521087
0.405968004192067
0.382967242124776
0.345460467343348
0.359713969436658
0.34766956842089
0.356665417879555
0.344550151296352
0.36598280208666
0.347528469391897
0.38292085082285
0.361409684064003
0.408871522474539
0.421265822554328
0.367456992893358
0.34995148617143
0.355764501031611
0.340205798947466
0.348980378596112
0.335968173084427
0.35533564137682
0.362136413851801
0.340112443172284
0.334211712835345
0.329614361031242
0.354784192449541
0.366915828267265
0.329412397141605
0.33843337929713
0.320181770849805
0.324694278177272
0.318710563570737
0.342468827788016
0.364494911597433
0.325418253560663
0.314141943315369
0.316516470244342
0.311231118289217
0.313305804204113
0.297839720981122
0.313918437768557
0.298075811552127
0.301141483029061
0.310612499775469
0.298774042785837
0.299320812555735
0.294908681673134
0.30174444216708
0.299083255195237
0.294043956547054
0.295326531764468
0.289471794682299
0.296303908228417
0.294504393663646
0.292770200762023
0.289960788969849
0.299523459796183
0.291644715011477
0.28924130281904
0.288811717511275
0.28884005301348
0.283265801662448
0.287833682505184
0.278372917793056
0.28352072808783
0.282987762335611
0.286417954530114
0.277084592685801
0.278416254708423
0.275520672395195
0.28041377648606
0.267853217531917
0.281589633394142
0.272134117270009
0.283587627138064
0.273730572781341
0.347888438711462
0.294499961979717
0.273748172900622
0.269545328384
0.266416910759011
0.266026838666674
0.260626200430056
0.299013192435436
0.284735501528454
0.257613377021424
0.260160273018646
0.24884111140381
0.271697055455143
0.259330785191812
0.240098442221498
0.246962742885343
0.240571407281914
0.27903404388528
0.326066615027378
0.311722882004784
0.336298249272402
0.252339875912451
0.236204901021382
0.242514721471842
0.270800788392905
0.223023905761458
0.236945190925508
0.215460336621972
0.283825434646087
0.237024146267507
0.221043608562514
0.214124557181908
0.21641259515886
0.244737533053855
0.248652798624189
0.22985044730825
0.242821372731669
0.257023525116517
0.242018280041738
0.275955297863281
0.284134313143678
0.241964027670876
0.206591178791856
0.208806315501034
0.205736723387629
0.207669408091195
0.275355245782489
0.206060634390818
0.219653105457895
0.190376416905897
0.189209870483252
0.19182023650579
0.218761633916941
0.207768414021206
0.203367772166933
0.235850538035734
0.18302017830916
0.205349285123289
0.211351211939097
0.23211541932284
0.246373323547914
0.191763606981543
0.1842702584653
0.221123742538351
0.228937055357907
0.191385367563541
0.2007274893761
0.168829751529356
0.186505002861216
0.196842876908707
0.17770656685826
0.205787418668311
0.206314276284995
0.208752713143071
0.256976262184344
0.259445948475297
0.231119519139031
0.185424674582515
0.168634939166509
0.172785024759684
0.175858907879792
0.178830626942067
0.169134747672471
0.213376930777798
0.189230884645234
0.172289046458516
0.234004135253944
0.187686502515125
0.181049431341284
0.180422973668311
0.182859172526442
0.191166476912576
0.217321476820458
0.237603388782358
0.212675796475653
0.216125109431686
0.233947009059257
0.198964233847824
0.206502419136487
0.196403091762903
0.209756990941132
0.206961208821268
0.234695601508413
0.219554949842386
0.231985399255582
0.229236265897427
0.239437935723742
0.26160010801632
0.284418226518069
0.240161845800558
0.303779313749124
0.270772201407347
0.344702766807307
0.280650128011999
0.27894521091636
0.281324943628692
0.28480928690702
0.288317124603895
0.295069930373861
0.305661619312712
0.342653138142589
0.299992366493343
0.319227662066317
0.30888302348482
0.320886572948938
0.314557452642701
0.375975014789985
0.346366305825614
0.408432040133935
0.390990492437256
0.360716110926075
0.349939608689948
0.333885486799347
0.355768570611455
0.344620539556867
0.335754730452457
0.342015500030438
0.343222493571905
0.372317455036435
0.343800576676243
0.353070807023762
0.349396037904116
0.356161725639293
0.355294411292152
0.365840295159637
0.358321819025648
0.363415826975288
0.360879603533596
0.37055950782809
0.359248535211345
0.464379799269863
0.385352750402421
0.388670285855278
0.382532822488903
0.39112952236437
0.388588711415109
0.398026441276219
0.412780332853167
0.410546513849421
0.395488183224962
0.404831240329948
0.397627581133335
0.414228053486943
0.416738265387719
0.445709407319457
0.408663128831427
0.431253168248695
0.40755893897171
0.464441549575076
0.462469641920334
0.446392809436551
0.460921502843063
0.432969878172247
0.432593534334524
0.434499602471372
0.427380511932893
0.437789868730562
0.439229230444371
0.438312081691897
0.433093615558061
0.434267322888948
0.433612668045324
0.43471356741416
0.429268687252525
0.461367081951753
0.432161857132461
0.437424039661217
0.427482773144846
0.434030685539835
0.425067825809524
0.467739756095125
0.448737013641326
0.435990776203063
0.440983142249381
0.451043858605984
0.454436488398552
0.444023316636921
0.421323049751033
0.440181952872584
0.427467802906741
0.43400764446133
0.42546769663157
0.441567544427732
0.474164168553573
0.449001707722536
0.440333823014918
0.441674696482565
0.444577716742216
0.446496756124346
0.448793195148539
0.44690780633326
0.458393415480702
0.45072411670034
0.458680902920932
0.455006839206027
0.458025451956924
0.477065126690125
0.475675647200894
0.468774038856944
0.455691609598506
0.45753193157878
0.452871546052013
0.447618496110337
0.454476189216933
0.445943428606315
0.437340972163919
0.434704777026073
0.432581604241881
0.424712922776367
0.468980269286016
0.432245858996063
0.438748332693534
0.422583816085222
0.410895872919554
0.414979356421744
0.410708447438938
0.405354294589031
0.40144402158301
0.412340743348561
0.394902353347876
0.398900745800157
0.395864585456272
0.392525909643465
0.390911497484401
0.390253132949937
0.387622236784135
0.396927959728183
0.386491528575872
0.391144941535287
0.389530865638102
0.384386060953533
0.390229138603026
0.381870050218429
0.401424685091173
0.407180275345318
0.407292031602536
0.396872761543465
0.388826661005384
0.393591339215445
0.383469566239503
0.389614571621802
0.380212980358854
0.386181314637875
0.379611076854392
0.384244854267103
0.377003063374582
0.382843487370109
0.376651759722313
0.381580558598431
0.375903650369759
0.380492975184354
0.377235606509162
0.383085487086724
0.372414313191584
0.381845772865693
0.375496285344148
0.393290736164573
0.37878417032562
0.377503357569906
0.379596830268183
0.370662480779137
0.377536338788304
0.374989408914477
0.376957578029103
0.375977187770702
0.376370158989936
0.3756057981246
0.371166087070873
0.373495945641796
0.371070641153128
0.373237859586808
0.368025853688061
0.369304727873095
0.367213802977001
0.358858381099167
0.35931706621672
0.359259579613477
0.353853140779901
0.353312106451924
0.343973073360753
0.348494813073289
0.342160965484993
0.339692587313954
0.333889229409046
0.338096616360922
0.332004025477452
0.331421717435189
0.326830432014303
0.326683765439707
0.326300868225162
0.327621758559833
0.323903726644244
0.321065122867265
0.319348065575049
0.318476033064166
0.319071073952398
0.317391195750421
0.317101813292346
0.317741187406938
0.315432270581443
0.31748129558444
0.318374869312636
0.319669230085878
0.321197274479727
0.320516022793285
0.319058264314464
0.325445507836325
0.32756357211201
0.329530858978382
0.330090166388996
0.328246572457223
0.328236555640922
0.33100279412548
0.332251465717279
0.336858013583694
0.332705629272553
0.336559880734306
0.335649880708466
0.335375534740482
0.340991837970897
0.340766121584696
0.334812301180527
0.340841962817681
0.33924882812453
0.340211515466545
0.337411401338662
0.339290945032545
0.336448047459912
0.339017976632085
0.331681392728917
0.336875745447701
0.331416541356518
0.332439670896414
0.330011267505124
0.332501755092428
0.326433258954569
0.328644894564747
0.325006121528853
0.326661437382991
0.325675715360845
0.321774270713078
0.322810358112763
0.320731412644921
0.317509654331973
0.320331596017839
0.317053394959051
0.315778396364282
0.312977451102107
0.313597903980014
0.314915829386399
0.313093978569405
0.307965433720359
0.31274364834638
0.309563116297789
0.311647208910738
0.306857556449347
0.306906162451475
0.307109163120685
0.306950502747014
0.302502416747939
0.304402324764491
0.299518973821427
0.3005804023926
0.29942542340099
0.297350877150721
0.294687368790144
0.293678933444262
0.291847881058552
0.289532408448874
0.289060834612019
0.285978364091044
0.282717723795312
0.28393550461902
0.280165238451961
0.279888091623613
0.274504205018604
0.274422721532097
0.27571888325218
0.273827206539045
0.273300292728119
0.274422859792259
0.270417668707269
0.27207228376856
0.271947407231137
0.271700908103607
0.269917162993764
0.268764828576527
0.269056688707902
0.265593358032781
0.262107692893727
0.260528079916354
0.258474079644183
0.254979435510292
0.249379043399815
0.248899032384989
0.244899685538875
0.243014725145756
0.240226569393245
0.242573842900774
0.23987364522617
0.241873972677252
0.243608306190852
0.247307280482192
0.251622565153837
0.256548319276003
0.262373553605082
0.272073782914883
0.280817693810832
0.290118274384848
0.301098448188182
0.313254473526633
0.325258192105119
0.34020219992815
0.354130132031568
0.365172079530525
0.382481324863292
0.391396431372258
0.405902687597775
0.423453376869618
0.433479548873447
0.446344127097185
0.461707425468422
0.473086149897894
0.488493660435616
0.499793803624368
0.516262072045811
0.527446308692554
0.536732483995663
0.549862330056233
0.553126590910957
0.566166254624096
0.579418306237458
0.58502493303023
0.588199011659337
0.598490831247511
0.602372442655846
0.605854958360773
0.606686349859974
0.60761598272282
0.612073210679948
0.612184648476932
0.610648944558443
0.615734031002504
0.611764966679957
0.610268756618391
0.609757502431044
0.612102328567354
0.612227939176794
0.611672290172869
0.612220268748902
0.61522880175479
0.61769606991228
0.622184525945199
0.623048200781481
0.627914560975354
0.633287606677148
0.634748383339044
0.640389519752244
0.64807848305504
0.651942096380717
0.662331072073584
0.659813625465494
0.668659149562245
0.682058541821424
0.694243019846932
0.703885870258943
0.717466413322116
0.7268046698482
0.734907467966184
0.740945446791251
0.750690553043663
0.751838281016865
0.765684646030412
0.766987677259938
0.774053341700597
0.774698861395688
0.778743579688457
0.766931213626704
0.767005556933221
0.764378810423842
0.771637260187163
0.766459497957455
0.763838579103099
0.764159565789266
0.757659557896181
0.760361537963661
0.783494622493568
0.775022211501508
0.785481827828173
0.797367385201696
0.812934893976474
0.823242222376596
0.828816688980554
0.844875680052471
0.857353470541547
0.862593887326949
0.884089675661055
0.906049464853559
0.920136794970794
0.91978428210073
0.934371880619743
0.957804140490276
0.956697470055695
0.978911439101324
0.999043083766114
1.00619705078838
1.02802101956516
1.04563319831382
1.06582276973896
1.06820931810702
1.10499567531715
1.11893026322841
1.14039276608467
1.19032329978729
1.19040008420406
1.21998887368975
1.19962941292487
1.2429178195416
1.28170022937817
1.27213160126852
1.29635154073022
1.31366094996964
1.33670403840912
1.32904013126056
1.34574973791956
1.33041157521851
1.33107469574646
1.31265636798289
1.31586106205127
1.32148441316828
1.33921970439935
1.30621797500419
1.30359218934274
1.326558780234
1.31206354784585
1.28489619905183
1.32317272281631
1.32892897524372
1.32846383475048
1.31437431879171
1.31923828309467
1.38697571483929
1.38063822630685
1.37222556481909
1.38125910009451
1.35895893778556
1.37723682734044
1.41681704051662
1.42620464394697
1.39151754053824
1.42131999869617
1.44546740140702
1.44164016705147
1.48870961805229
1.48130815576422
1.51463889649841
1.46979073244046
1.47740549810532
1.48214963547253
1.50570589846883
1.53680522925697
1.50542861777801
1.57903761921499
1.61442977994883
1.59602876036653
1.52675403115026
1.5849776738829
1.54004132403987
1.51889032145823
1.57363513802662
1.54099369253913
1.50950824300871
1.56892347100034
1.55691341918858
1.53711150176261
1.50329657915997
1.53822913876152
1.54884061676202
1.50986020328579
1.48292230259343
1.48801628818273
1.44405562539957
1.40081819825342
1.36202649515585
1.33697498373266
1.27263065436141
1.26995483033938
1.20949841171331
1.15019508319069
1.11008932475524
1.08570109779082
1.04607336572157
1.00157003309074
0.97337025342543
0.941070555343859
0.91467885923898
0.881083318204817
0.894493511565938
0.860049668028588
0.871629899122139
0.849911323446788
0.835593151856672
0.812837141730559
0.829105870455649
0.818776683390253
0.806623991124169
0.785353317614126
0.781329394804777
0.764371179929973
0.750876676971844
0.719940060228559
0.711331739249532
0.692361611784423
0.673779823573364
0.658195783489323
0.62882045864534
0.615201613586716
0.591930483430581
0.574171642236776
0.546051293252311
0.5309916065704
0.505802272834112
0.479173801142715
0.463312740967532
0.435435850631925
0.417371346565816
0.396475176742589
0.378082610821296
0.359722685501381
0.345061263804469
0.3253615271572
0.319331248561336
0.307499983461928
0.299962587767848
0.289123458830807
0.274770684869188
0.268524263569186
0.266617012561952
0.259605698217138
0.256576045877084
0.247449081002934
0.243839027858656
0.241420134556783
0.242416524651996
0.243156666793483
0.241093079533748
0.233938330881349
0.239522483804973
0.239356021640274
0.241325443578308
0.243300107820374
0.239739482725457
0.242333068331964
0.248863004380612
0.248597524052487
0.248932422252051
0.249450773625437
0.251921270524542
0.248541619689222
0.250061987299371
0.247481553744738
0.250635013856694
0.243557243708707
0.244036299196058
0.242227782593577
0.240133767576514
0.242025894801674
0.238777674138942
0.238795799528736
0.240159732281785
0.242641069463386
0.241003417534745
0.239592778633527
0.240835254975879
0.243159311367047
0.243559208575548
0.246159097812209
0.246628961453811
0.251399457959361
0.251624023443595
0.252960481013058
0.255295514787755
0.253508328822114
0.261418393214361
0.261229881177541
0.261501892884096
0.264662245528248
0.267366016491305
0.265493965545987
0.265662728493731
0.264577753270311
0.263893987075559
0.264230386931558
0.268672276036106
0.267737254186492
0.273056986742944
0.270552644053038
0.273671973091665
0.273359727388098
0.274134702375446
0.279095547050747
0.284387123421505
0.287462213245127
0.297307427100249
0.304005982685658
0.30985209060544
0.318867583392072
0.331003478991364
0.33556968237261
0.344403853409694
0.355563560072017
0.355173061074658
0.361354966627752
0.367430729574348
0.359191103309071
0.357221506816997
0.354806758981583
0.354810505771939
0.345224714853741
0.343698149349506
0.338099435510088
0.336035383417781
0.325957197982245
0.319405704619368
0.316771345160551
0.315337091983121
0.314971753161482
0.31193586027333
0.317824702540437
0.322238914314551
0.324330861790189
0.328100670527076
0.316126146245264
0.322766219537924
0.321467502446564
0.315642682363252
0.309511151826257
0.308865722628172
0.299311190741848
0.305261666697261
0.300230563959796
0.30387817959048
0.302187870585273
0.293215009234551
0.287962381979539
0.294443832834734
0.289061116257889
0.283163076795182
0.282785180446134
0.289941047152924
0.281642335504471
0.289775111840448
0.279375564167303
0.277554305320103
0.270321884787803
0.277389908101363
0.273511574275405
0.269509706295074
0.274876554262912
0.277923694470427
0.272882224493134
0.272476787436222
0.260087400865596
0.265505531826606
0.259501499608077
0.272423425290758
0.266128838098446
0.269186196421368
0.257766793911341
0.258567658386555
0.25402173762547
0.251149745368195
0.24848679699029
0.255091435402536
0.261945181614786
0.256181048475443
0.243469177898325
0.258953263072765
0.250215269856477
0.252252195509782
0.24698331846502
0.248099138327439
0.253591219363358
0.252990155442537
0.245385879490638
0.245913812556692
0.255687736601794
0.254461146695085
0.251412683476738
0.26351807845241
0.261256165755198
0.278500932430658
0.258105762498843
0.250312772889091
0.255799856422149
0.262443840052279
0.261816635403668
0.265281693642958
0.271215612180665
0.269241105035433
0.274006579912006
0.28639797145402
0.266123055752837
0.27327956810554
0.27483179624813
0.28372269934039
0.287051873270148
0.301614882795689
0.299334723041986
0.3044467017579
0.296878592007903
0.312373805263051
0.319860478732293
0.321049038242641
0.323028725871942
0.336846733879281
0.348161133090576
0.356229273138818
0.348290462007686
0.373241857898637
0.3685836521947
0.394925598889533
0.389817707569712
0.396853031615998
0.41153290311822
0.425544019715108
0.432468628940299
0.439519241675911
0.443260599076098
0.458270310327812
0.449322016216284
0.457185975543123
0.464129938027392
0.451948862330919
0.455038093080457
0.461427821324012
0.451956046152042
0.445546704043864
0.436312421059706
0.439242889415003
0.426841855099789
0.473149534234714
0.446019101111243
0.447869694141294
0.47360325393426
0.45034389576032
0.415260599821104
0.418990871041235
0.427391130987433
0.43020641640104
0.433180412682814
0.434429306370035
0.408212876911427
0.420440049256717
0.411045911357317
0.416962669789086
0.403220931554995
0.386900360753165
0.387102407813372
0.435499562684927
0.389786728898123
0.385278744497058
0.417431632748179
0.420533768515405
0.406681558005251
0.398696057655994
0.375673421468935
0.410273978332633
0.405318956500774
0.399797726115843
0.408556227051492
0.399744871330408
0.391428648707872
0.402248488669382
0.391190567369835
0.421085678313138
0.385527192601884
0.384069743073122
0.428399860423042
0.397276627431931
0.397376338693139
0.433911495417976
0.435720413073156
0.421419712363203
0.4192484114757
0.42671935658256
0.413928719117863
0.445400902102137
0.435835562292304
0.43083389308198
0.415404835547966
0.438194295081239
0.429088279027599
0.444420610883439
0.450804958199087
0.445469011145694
0.411976216558053
0.443809549438069
0.457860946200484
0.508641770217212
0.440952751985618
0.480299010071486
0.505095640354527
0.455912295505825
0.491483395952626
0.513268045474271
0.466121285637918
0.556488931962576
0.52861397893236
0.507744005642813
0.552462279702858
0.595461205185166
0.531136901684248
0.518621548999317
0.546876961443897
0.623739647486124
0.620592385897662
0.597792871121169
0.539471686651767
0.56714674289429
0.607054878548856
0.556938867521626
0.554393922456507
0.535875505055315
0.530748564042344
0.586402333605499
0.537112566611798
0.512056828931516
0.417382957280076
0.484111765414481
0.556713224858311
0.506853034374388
0.538161468039076
0.547789674404187
0.523903254624164
0.518434065505548
0.460615375372752
0.538193135568591
0.457007331626713
0.462402191380035
0.444723316075207
0.502263032468917
0.486858451816109
0.638796658017794
0.482538508707958
0.539774557152446
0.562460726218996
0.58912329255323
0.555484122213744
0.652362212476428
0.656287555854126
0.532355191228015
0.446349829661933
0.493395179845353
0.805022741207113
0.579122649921167
0.55920757105798
0.763578342858131
0.539666271189892
0.786261189322499
0.46026105786071
0.384597323448882
0.547250632826808
0.666311560974246
0.565798966609737
0.478017145769647
0.813969860621666
1.33785724303671
0.413533698024749
0.668932152812247
1.03633764582939
0.942654030436361
0.63009450329635
0.588146327515243
0.725753150202449
