3596
4000.36533379555
650.420452594757
1
2
2
0.060375273605292
0.078313861112285
0.0620127656934867
0.0775279561524398
0.0603346546892299
0.0674548438635534
0.0552420734450973
0.072020310055852
0.0573655512237164
0.0725347061812167
0.0601453587380473
0.0719585899942722
0.0511550047080601
0.0654847767509988
0.0566633687762485
0.0710932149549101
0.0514361563984384
0.0677983832356366
0.0575869065553844
0.0662578690416051
0.0546527488152468
0.0686691222805654
0.0614154778504113
0.0649203731031339
0.0618207053238465
0.0747205583551237
0.0604289774863915
0.0688665300838506
0.0620167689080098
0.0773469190373388
0.0588318041127444
0.0732822903031043
0.0598841531878642
0.0685485842732734
0.0612457718788251
0.0708028023131692
0.054332782768676
0.068865761277228
0.0513563973121865
0.0741273382708425
0.0703222175905101
0.0645769801188161
0.0543921106348086
0.0718372289891462
0.0626743052100273
0.0754579221065461
0.049511661425305
0.0698918631721526
0.0571672178778532
0.0730468582963772
0.0619643349723476
0.0655068418166
0.0676164327716089
0.0755257318879446
0.0621325296719724
0.0944027697851397
0.0580059369467969
0.0659350842441225
0.0540206274523969
0.0711375700963606
0.0770177952941166
0.08769726245459
0.0565728740370488
0.0761172297048193
0.0510419851908664
0.0774331989047761
0.049387488428852
0.0734681078870805
0.0513945725043584
0.0772616621423409
0.0493474239557245
0.0805226360819437
0.0722693533361166
0.0718722986045246
0.0679601183529098
0.0716825114977643
0.0573467506768713
0.0715019097072098
0.047419511208735
0.0874135457758678
0.0733770847651599
0.0771803471786757
0.062312997446862
0.0684590626496258
0.0678630197784576
0.0834488698585565
0.0508060457343508
0.0836535222266027
0.0858319002740635
0.0850605278698211
0.0533861361879773
0.0700196879143221
0.0548663782881397
0.065858700871675
0.0522721895680188
0.068170497482876
0.0491974961343924
0.0713692225477997
0.0467699291980565
0.0705719545557852
0.0652866981864478
0.0775385856631853
0.113408757719934
0.062725200066429
0.11141571571794
0.0800531904228858
0.058770529357291
0.11986463661285
0.0616894742597118
0.0761242184861314
0.0537893699124037
0.080939050802456
0.0528166423836683
0.0812829524941555
0.0344533608073376
0.0932569735401873
0.0851167002773352
0.0731620276494304
0.0570118631037847
0.067006117508178
0.0441398952925918
0.108354911318304
0.0971806501847819
0.0670613640588835
0.0796038029209222
0.0688614045501138
0.0526466368244544
0.111645903032688
0.0823454952113152
0.0642243643509696
0.0596252200264453
0.0554674178441209
0.0543055212114562
0.0603526851928006
0.105619595780978
0.0709778781759959
0.0637179960123233
0.0624413363189539
0.0807448815315562
0.126050964246988
0.068905973785212
0.0794185166110975
0.050060202893714
0.0733772460298821
0.100943182448739
0.0806626986895418
0.0572046586192614
0.0975798799419239
0.070627950345841
0.0558270252848082
0.0521184941869088
0.0578033885730122
0.0802158061930571
0.0847234739722415
0.0300871237467274
0.131654843600069
0.132212692144811
0.0928355336463085
0.143516452743671
0.0611790337782462
0.0744989744596098
0.06155946394526
0.069747716293877
0.0569728385610122
0.0574388891855623
0.0553203309575509
0.0740539601878329
0.0954400896829559
0.0597136200016627
0.0781603610213017
0.0903832402414609
0.0844845317432684
0.0406489479655048
0.143458770240274
0.0720681763224563
0.0608292809666019
0.0977749968513767
0.0809367875485119
0.0551301406361791
0.0686774325064843
0.0866394130179944
0.0628180966133024
0.0613187023805443
0.0592857259330515
0.0657478433328654
0.0826306109458614
0.0642823764914001
0.062382424800063
0.064475787125191
0.057228024376976
0.0811410435935216
0.116731421747558
0.104309732563629
0.0657727744711132
0.0730255221603705
0.0337126318022625
0.0926959216697673
0.101455178238929
0.064765311066571
0.0582198702382638
0.0509357156506778
0.058526995916462
0.050049143959314
0.0625506720026491
0.0549794885324379
0.04844906555094
0.111566969519941
0.081187030623917
0.0666955130448681
0.0604849059871303
0.074790256206518
0.0667624709128445
0.108619347962075
0.100431382416262
0.0593157887482751
0.0741813673848681
0.0546773219312771
0.0870676361005447
0.0773848738561965
0.0553132113205647
0.0538278164780055
0.0622915647139453
0.0609794410012505
0.0605932949907822
0.0559908624474389
0.0637765534555753
0.0564883987764089
0.0640361793284881
0.0603301658934518
0.0608936352502727
0.0647451832004542
0.0651030343161847
0.050512118558937
0.0607513823312484
0.0494015791244955
0.0781023315449408
0.0813773241371496
0.0591401491993099
0.064272685797852
0.0513211980536072
0.0570280870658702
0.0551483441000497
0.0583265090828138
0.0588466731241219
0.0592412924624504
0.0529515179035486
0.109030318129798
0.0678664110951629
0.0687558868187394
0.0461593682583244
0.0777777310440546
0.0816639283418511
0.0669191948736446
0.0624765634983315
0.0560313687169282
0.0549513729646274
0.0605239040197649
0.102858610005203
0.0710036537698106
0.0678171734570977
0.0820774123540835
0.0770218361666746
0.0586626033945951
0.0726867734635468
0.0379469149319753
0.143305932384401
0.0917261153620565
0.0733156295385866
0.138014985793919
0.0878925616799241
0.0710347336217479
0.0699303069243496
0.0244015772637049
0.181800291306303
0.108473967070317
0.073910020495902
0.069871048422068
0.0902037737290434
0.052550115640325
0.0715593857212198
0.0708543129222038
0.0966104220048966
0.107454550702439
0.120071807280408
0.134734650941872
0.0559119617684847
0.101994522943422
0.101029785295099
0.0641335235621096
0.0643325366554534
0.0605340454337393
0.0629757248945164
0.0708873104670097
0.0871314769122139
0.0731458948132298
0.0761843193260212
0.0643218364749456
0.114146560437685
0.0733430625568372
0.0721962457641419
0.0649180790957542
0.0874838576649186
0.0547966622439877
0.0687617521669652
0.0601907113051708
0.0818025626094334
0.0572569791200103
0.0696381837164227
0.118646511148735
0.0851470561896398
0.0688324878472622
0.113289684246637
0.064539727449059
0.0641870496673704
0.0574602014211643
0.0701885111947233
0.0520945340244319
0.0655963736540285
0.0536937399131485
0.102913101789521
0.0718740438568472
0.0683988293350676
0.061969325012675
0.0645953893269392
0.0637122734829184
0.0721373321117676
0.0647467602289193
0.0632928555609588
0.0679155283614228
0.067877488753229
0.0825796337124206
0.106349393467217
0.0556883637955419
0.116385747883572
0.104500831272603
0.0707123881673755
0.0684670809884873
0.066890868265539
0.0695761318714906
0.0649904573372137
0.065487322394281
0.0670183226837469
0.0714411929166829
0.0868773429906626
0.0695794841473279
0.0752034563004839
0.0927843314514387
0.129118356318612
0.145513830110345
0.0944975927969228
0.0753063590709469
0.0628400276843848
0.101695832692347
0.11211402690019
0.0954767115595279
0.123870313317725
0.0701475418453744
0.0864575804937428
0.064746461177744
0.0738245338932348
0.0633243175264185
0.0783393697282622
0.0596818516038089
0.0763996448485937
0.0728898403476474
0.0854515837849194
0.0736953920847422
0.0850468733102146
0.111188547764946
0.0978989356705203
0.074235384976113
0.0895135385583028
0.0725622743618707
0.116547228237815
0.123992004911065
0.14503447643454
0.133785859031642
0.123561168098147
0.146903585321696
0.100828317338395
0.0950390415119183
0.0848263032529208
0.0942139623188716
0.0986407877028735
0.0939323938800493
0.0901565644357288
0.08858689137555
0.0923824326191517
0.0967024441423677
0.089853760487881
0.0933698173671731
0.0958257531162674
0.12598985131393
0.109485343827046
0.104735791561194
0.100401136555428
0.109109198613786
0.176152155599378
0.153182361908418
0.124875595683812
0.106588341555723
0.112214862313944
0.101968529324309
0.109828412660968
0.0968930788486404
0.124715136400007
0.116543306457883
0.155722030134465
0.137502778858413
0.140181888200029
0.141031447394482
0.117700733158478
0.144303979306695
0.138322058440979
0.136743748651395
0.160708845888249
0.124822191506211
0.116396370140174
0.153230717271638
0.164528297197056
0.134249471379883
0.163972759144056
0.119134506489209
0.140097696708114
0.132062101281297
0.141153706658253
0.135320269024163
0.155174496469328
0.144342822851272
0.143202513985581
0.149084072046521
0.146071897414761
0.143063363853014
0.168115622709034
0.158095553328464
0.155841684017619
0.155560895760426
0.14051253986462
0.153150193424302
0.151934394026754
0.176243151769894
0.196375709372141
0.175007399049074
0.209525739860887
0.161761502387565
0.173852881826541
0.168081995810674
0.169061244049709
0.159822998182676
0.181961818393768
0.183650836186499
0.174406430959729
0.170062911623483
0.196488870291112
0.18112742710669
0.184819336928928
0.188384301867541
0.178603007885176
0.174484275205234
0.193150893110183
0.191440698553698
0.193662870773942
0.232320906988799
0.251729268088125
0.232716837735718
0.250674068000346
0.207651064679483
0.212162332473929
0.202388373274158
0.21925854227252
0.215045883602643
0.240266702379823
0.218574994954457
0.211203428708362
0.216295963404062
0.228690846805973
0.21370065589743
0.238274173311201
0.222396772194665
0.232123267831976
0.236383241553053
0.241409150791145
0.23551377614549
0.231220806590229
0.233934967610341
0.254859507740432
0.237528591925585
0.268840637779874
0.253590290693295
0.24857161689537
0.256103630056265
0.25152713307423
0.262375928372606
0.268404217066009
0.255425853798851
0.256271052235414
0.248300288878284
0.28032393412058
0.278674997376211
0.277282516464787
0.264248753669809
0.274801813476062
0.289657073219063
0.293032708089081
0.284493526554036
0.300079409315941
0.289611248083061
0.31119083557393
0.302300908358141
0.306902570533678
0.306455587926825
0.301395867997504
0.296190549815959
0.306596025179334
0.295221234287639
0.318336581205863
0.304823717133096
0.316570703681996
0.319235166419222
0.322247289113918
0.324386118165164
0.329221856658416
0.332556128476253
0.351120066846654
0.334947764988071
0.337116081955086
0.339678688026444
0.351193120602917
0.344633125208245
0.341194794200621
0.344497318465686
0.353301439353284
0.356017227502601
0.380888642193382
0.366255806592839
0.3636634007601
0.351849202234339
0.367173346530199
0.368689073710593
0.389337347173996
0.373978325034513
0.373943389090437
0.377082441923641
0.387960498319527
0.379185739448125
0.387188167231056
0.397891843609652
0.391405292038079
0.390514133370544
0.398213275092285
0.390492560751008
0.399457186775816
0.404620548183951
0.423362090249338
0.410950597811888
0.408030073933235
0.409523619434961
0.420590186021342
0.434628656163665
0.439763425407191
0.414568458923084
0.418768790329903
0.431900537310295
0.429896967661272
0.42851777704112
0.442222976035963
0.438225702555972
0.430490839235998
0.429011285344712
0.455214133094541
0.457140279006711
0.465879249010138
0.443080543148456
0.438015861180847
0.462496827535063
0.462706903651754
0.453780990659758
0.464087644964301
0.464916606953032
0.474527083300036
0.471683344445434
0.472471108514962
0.485459068726045
0.496163022533045
0.479660232258031
0.495363223958476
0.495450417426439
0.512816125951426
0.487973573945454
0.490390969167533
0.493094661009908
0.495223446181564
0.495469781521404
0.516980923710607
0.516625278086683
0.49298153717717
0.491617798926573
0.520802374650476
0.527551923587348
0.521523498706076
0.509782522156457
0.518313451372775
0.522664637252699
0.517651371748166
0.513071761576866
0.521122957009709
0.508941212468863
0.520911507232551
0.542413635074746
0.532263472373132
0.529342024069731
0.539516159021444
0.551057717142341
0.563673853114573
0.550067332034028
0.549030541006074
0.544908309134046
0.554763274173682
0.555343194730534
0.555599543799403
0.56577757552052
0.572406307313862
0.5523611329009
0.568130511473362
0.594779183720944
0.575508956130941
0.562289164981173
0.558276316492047
0.558464862005825
0.566700802582487
0.578518612818438
0.577752037797139
0.561288154843592
0.572230872233621
0.586101311229024
0.583287967256432
0.59007395968543
0.597682859301297
0.611232126466689
0.593089612641371
0.591902045734414
0.5856015858223
0.598787977158634
0.608033058290572
0.593745050478826
0.625048912028196
0.626602443939978
0.60992637626457
0.621524945600041
0.602969385729467
0.612738120200083
0.603591491264219
0.611283510071762
0.627484221900246
0.633474428439824
0.63590215399678
0.61302777488926
0.632530583308299
0.607749907935301
0.610412624743198
0.640849650237213
0.61535890309818
0.616068855034474
0.615155672856603
0.621658463651427
0.635987383531671
0.6318326745386
0.628459046869532
0.637723928892281
0.649945095604156
0.628285671000298
0.623750412591218
0.660816234760393
0.620700124475289
0.615793484129883
0.638122841000311
0.611493911822134
0.622441000307357
0.650851667927306
0.659966519299978
0.666047318848741
0.647110109322066
0.667929047319066
0.658389820644499
0.637847501342063
0.646890471336193
0.654649676595542
0.667083529647173
0.664211959214641
0.650795595525696
0.648671194626879
0.652509081532359
0.649263444982529
0.642128347409047
0.646628307232597
0.638171941625407
0.63943380072674
0.656316115803482
0.660252088750031
0.667947358435468
0.652251577347657
0.646943795128842
0.651847507819111
0.649868095884636
0.679532347756099
0.663706871491865
0.647792741221352
0.650601555200315
0.651410286417327
0.652710727770973
0.655274343479688
0.664017710605342
0.677224466146016
0.667229802569091
0.639342918282358
0.644269142398049
0.662440997767129
0.661831358198766
0.661321761353544
0.667768455978737
0.673245604285014
0.669777633761008
0.664524709383941
0.646413979219172
0.668384575082478
0.660596481640213
0.6606676541029
0.66434067061511
0.660956955416127
0.649909163722891
0.682051168000889
0.650854734862906
0.655265966934071
0.661489304440198
0.651531145977626
0.643678820964934
0.65465765754594
0.6630377787395
0.655841481220332
0.643335733416769
0.640323718593408
0.665169245545146
0.656816913248911
0.635337649728627
0.6477919829551
0.64953575709623
0.660430673947947
0.639701422026812
0.648312819966349
0.6384925367113
0.644636137415369
0.647208642711293
0.653026533705712
0.63050265643683
0.641256795115443
0.636328117270032
0.642900950071353
0.635461922737213
0.634515221731302
0.639571097339068
0.649429046344966
0.642751890392525
0.63691344473935
0.64208840651473
0.648260944471489
0.620375083461092
0.637712718468907
0.656834187644332
0.630920030454359
0.62183030026699
0.650330668058847
0.630125885516182
0.628886194222879
0.641196864449474
0.635413592941507
0.642227288556556
0.636322499629176
0.623552296788174
0.62544609539841
0.606210333191355
0.610264090586585
0.627143535563332
0.622566162645991
0.621195758225343
0.624149333222002
0.623391643756839
0.637665859930444
0.620908955103708
0.619695845249893
0.620153422745726
0.617542201099497
0.620077041564816
0.607410833503741
0.6239282722407
0.616759490017892
0.598332535835006
0.603669830025445
0.611328092041792
0.620376977205651
0.62065625605687
0.620083083041651
0.600875295048223
0.60044264128306
0.591427318612264
0.599702470071188
0.597525363094937
0.602013639350948
0.598878055082025
0.597165125310934
0.594060002478263
0.591602215572483
0.591412583393519
0.592190737491566
0.581336064546836
0.591202498441913
0.569396741504024
0.572291051774849
0.570318970725213
0.573011190988295
0.568085224074627
0.58200261272381
0.571000104195504
0.56345975144543
0.572984560689416
0.560520526725071
0.559841966696426
0.572597664146007
0.555388999662174
0.556529905062037
0.548089366569647
0.576139217408072
0.561985071945625
0.5671491021035
0.562650518739768
0.560055315595202
0.550930141641438
0.546465941907467
0.553102264441258
0.544371172018317
0.54394388761175
0.553596451587182
0.550225079302601
0.538419977230363
0.529293251782794
0.536774580034869
0.533239550965641
0.544328652183517
0.542762022978616
0.53253026411276
0.529065084095086
0.522074162037945
0.528201167439019
0.532101595514555
0.522114896842815
0.510579870119767
0.509680314158663
0.521295886425784
0.513433461166866
0.516006268623179
0.510740399229085
0.506673794547423
0.502210658649059
0.512665449954779
0.499704106860512
0.494673254981436
0.502779785777545
0.49935319908188
0.494566304142728
0.500862152920144
0.489104266458663
0.492847989814354
0.480231158929803
0.490107160550636
0.477796007105754
0.489288863641002
0.481266990473003
0.473022685209194
0.484669961209501
0.480816378198146
0.461076813139245
0.470771258176668
0.455235680236245
0.460100583557428
0.465103202334458
0.462931717048766
0.450776985053139
0.454456691404832
0.454473544342892
0.457251513570098
0.451627175740305
0.452695817780229
0.441937436328529
0.444258767931072
0.44042257032356
0.440467171286669
0.443997064291499
0.441841000829613
0.435465111076597
0.426755817196748
0.428581596726192
0.426098187249042
0.432843682201355
0.419705507554049
0.414329023915824
0.422810959828372
0.408948218337908
0.415305721762504
0.41756606651
0.407671018026077
0.405778962305415
0.406022609625714
0.394024457480858
0.409882153608015
0.400666496821272
0.396967278067633
0.397641046077524
0.396760706476256
0.394130756442424
0.392239318236401
0.393474639659294
0.39207351420852
0.379097628032325
0.383645212887754
0.38455960807755
0.379048224467634
0.377686314732622
0.375841263780122
0.371890269667603
0.374358305049224
0.373050129893453
0.371215495880715
0.36396163201054
0.366477645271098
0.36180177234838
0.363112258960488
0.365784731779135
0.361893695606311
0.353157842019427
0.354288818244611
0.351668676023962
0.356223242210581
0.350503266781179
0.347594207021903
0.345712846963596
0.340078731240684
0.340228198710876
0.346227026348123
0.329562141358104
0.33678478260016
0.33235546992939
0.337708147713434
0.326708958191766
0.331631643799396
0.328888870129625
0.324094712536465
0.320656532016913
0.317506818106464
0.321619600285708
0.314193446141768
0.315453174911725
0.311208385782399
0.301202898174113
0.312710779826517
0.304145729387024
0.310411882087554
0.310638819479054
0.307894481371321
0.305794721685127
0.298279634096527
0.300568948132356
0.300360142650875
0.299697288532683
0.294370172865928
0.288256274195656
0.294958886451445
0.290081889404172
0.291931880507239
0.28751553743606
0.28837308542761
0.282171521447323
0.279737481852118
0.282846601556783
0.281281966368619
0.27504381056705
0.273538470905576
0.274108948993473
0.273153778917027
0.268615776902132
0.271965245960035
0.267792381803108
0.265672987076731
0.26955285971417
0.263173175590158
0.26030377058572
0.264103091311239
0.266771828119376
0.259895147724565
0.25798092165763
0.256597999978463
0.25329988420278
0.258951082731048
0.25181325327526
0.248633473584389
0.250908100071177
0.251192261107578
0.247396897542658
0.245640465886564
0.24301566122804
0.244795199185623
0.245412760170344
0.242452868793887
0.24370432921881
0.239472722585491
0.243738767823529
0.240949074949548
0.235319690803244
0.230731170285247
0.231150165351266
0.230703910887771
0.223537747442588
0.230877327608198
0.224786670218997
0.227742447032173
0.223618660535187
0.220187609072284
0.221754336952882
0.224651805147788
0.220137131980359
0.217662065038935
0.223315883741041
0.222299320533074
0.212734997057593
0.21732577319305
0.208848393401431
0.208842724403572
0.209626500357061
0.213768452134318
0.208109977492716
0.213171960777092
0.211816199432028
0.208220660167836
0.199084924804034
0.205700085081594
0.203567507594922
0.202388311068227
0.201039211256946
0.199329302872908
0.198078685152126
0.198004328090732
0.201666628405307
0.1971407516157
0.190271656783182
0.195180434391523
0.194920746312862
0.191713858295007
0.197758902361305
0.199234781352796
0.189015244007141
0.191928004709415
0.192018278407749
0.191307786597023
0.194062502317901
0.190301569847933
0.185483979185527
0.187347752133517
0.186345465117121
0.193955423620274
0.185448278598774
0.18427929784629
0.185755594345617
0.18547361166405
0.187128165704402
0.186121740120542
0.178631629876767
0.178503985705881
0.177350944957416
0.180361509141772
0.182242332800771
0.181280425263583
0.184372891335706
0.182988595532522
0.186788157394307
0.181243079328413
0.182122876881111
0.181893055513313
0.184286352388178
0.187177292737254
0.186676926426108
0.186619742859401
0.189294510984651
0.18680663098265
0.189221438040786
0.195774068652863
0.187175194207824
0.188519022853289
0.186779959673355
0.196052848722352
0.189156187687985
0.192904335185972
0.194233620306011
0.20180439758088
0.196105503368358
0.195995616578096
0.197282159169865
0.194250909513814
0.197449759414217
0.20154857930164
0.201214428082543
0.202151477461407
0.209925142617937
0.202832534894931
0.201959314097003
0.205344395243226
0.20548536331278
0.20821003700963
0.20590700114459
0.207486972928627
0.21414854933374
0.210243931531124
0.209366408960165
0.215995293233699
0.214359982856507
0.216087478209667
0.216605928428968
0.221554049158224
0.222416016619657
0.227525509761373
0.225911479236772
0.22908605064132
0.225253449776747
0.229767741891557
0.233048440098147
0.237568034092392
0.238114339493181
0.235273673664744
0.23928146448248
0.246933283394026
0.242287284761478
0.252742122598394
0.245666159087378
0.247190360301353
0.245770002406527
0.245624488084236
0.248118764709248
0.25004803257207
0.248303817937289
0.25341457979886
0.254680923630846
0.251693643660535
0.256968799891201
0.254828255769937
0.253560152027864
0.255632389340372
0.254379304562249
0.252049826370819
0.249193202808047
0.254002644823164
0.252105454693906
0.25580004770878
0.261633577551037
0.254250747969349
0.246303090298225
0.248046261014951
0.248984681778882
0.249292066987301
0.245948783666238
0.250949622397213
0.240785825213469
0.246083674359206
0.246788703482919
0.251200703977139
0.251918930681572
0.247075491143551
0.244058674306037
0.24495376574393
0.251606391840812
0.250687321136794
0.250533049584938
0.250893014019749
0.247483241538521
0.24770328937617
0.244927007563677
0.251427573756635
0.248948446117438
0.253248087423313
0.251300863569794
0.251212405222709
0.250626087229107
0.25283661624864
0.243668031695642
0.2451247259857
0.247879025512019
0.25248822934866
0.250606611220587
0.244733650527385
0.247926842868474
0.249687855144192
0.247300195594594
0.248335450720359
0.244506683214211
0.246822286586887
0.243314814484972
0.248830250258629
0.247302277173824
0.243078243157486
0.241812527179238
0.245788850082098
0.242130249525952
0.239267866780671
0.241763571013431
0.240560926365951
0.228900737774961
0.235375474889857
0.227646976824806
0.233219636743033
0.231077180940853
0.230305987775616
0.229008825327728
0.225144200079752
0.220647963285147
0.223513816891663
0.217221292918772
0.214770851114349
0.21683279540336
0.214504667281698
0.210347074326564
0.209974733159141
0.209848790176046
0.20752985965439
0.20712368150144
0.20288128884639
0.199329450307033
0.199810391582387
0.197281259575402
0.19153567512053
0.19328153009443
0.193546968015446
0.19005330444465
0.190008755687366
0.189238578171592
0.192487173735271
0.184972559701044
0.187655106654982
0.183472641461845
0.180452607459504
0.182997686522361
0.178977725140933
0.17984952630476
0.17746845751779
0.176436341437796
0.17264967399279
0.173326556120915
0.172128695392124
0.172565871499185
0.166642355292082
0.172608654920142
0.171487318018857
0.166207901735013
0.171690768715207
0.163288213302093
0.16799150890265
0.163921530766758
0.163079886484094
0.15841985455766
0.162343839679928
0.157253472925135
0.159960160929874
0.157695786671356
0.160561955030809
0.155344221135022
0.157352289514666
0.15460444583372
0.155343678562096
0.151456586257306
0.154288199702463
0.152145571581804
0.152312076674076
0.145693054155219
0.150921792404201
0.148458894416927
0.1512748931076
0.14344649110574
0.150119072045231
0.144871316366979
0.14787045289481
0.144338912245112
0.142339200772823
0.145995524232127
0.144991949854139
0.142001853635816
0.14368061591576
0.141581930518278
0.136663190696186
0.14055912972447
0.139380952675319
0.136803286723619
0.139045346707263
0.133110741668084
0.137233180565828
0.134217076038938
0.13606025168092
0.13337514959573
0.133645313574641
0.132422115033487
0.131722214798487
0.131653875264773
0.130306176833743
0.133997027683555
0.132193831855704
0.127462989463386
0.135029466003903
0.129169269233229
0.128858106602369
0.130005178089339
0.132341583409444
0.132627752772085
0.129341166762315
0.128816920649773
0.126783395850568
0.123768069368014
0.124792043209903
0.12601164905035
0.128441044764148
0.124589463344146
0.123913270403856
0.127848414640054
0.120801662854889
0.126635544991127
0.122856106966294
0.124517819105499
0.119656415141625
0.124818669800931
0.124069314212526
0.118087302435997
0.119999717151812
0.12329568073388
0.121453875888491
0.119275502866821
0.121836129976478
0.121226938324692
0.120686328530995
0.117667831968115
0.118486357618785
0.117862382113634
0.115833798729832
0.118209944222437
0.121352241341031
0.118423702583422
0.116336229096939
0.113104987658912
0.118472345242268
0.121344297485436
0.115159583169552
0.117483259375135
0.118003762943123
0.117828399877676
0.112491605815365
0.116958599996424
0.117757731196927
0.112961866393579
0.113288387169948
0.113518738034533
0.114836092988446
0.112304231996312
0.11567902005191
0.114276695329365
0.116047380685966
0.11280386437637
0.115872343529687
0.112183286128343
0.112927215008523
0.117136132726848
0.115804042215902
0.111823991649616
0.107449336189146
0.111922498714948
0.112765121896809
0.113898040637126
0.113623417170775
0.1075363049412
0.106758688964783
0.112274440137261
0.109129868639527
0.108535344772806
0.111320750488927
0.111265752571893
0.108591228996702
0.108727698912712
0.11131206807258
0.109870380661704
0.108032161199684
0.106478203466625
0.105573019252679
0.106601618808479
0.110100329361574
0.111417497090498
0.103231799336301
0.105154504717506
0.107774749201768
0.102309976278159
0.105653920654722
0.105317257230013
0.106616592942915
0.103211546476625
0.101497716756611
0.104774982775598
0.104378035946952
0.099477574873506
0.104298906063398
0.104077465999813
0.101846809027162
0.102327027119165
0.104973725571929
0.101019241391723
0.101333828256893
0.101057972210162
0.103154167673106
0.100085026656671
0.0995192732679284
0.101573920208018
0.100656997803164
0.0972455913275061
0.0967615638271571
0.0991500995626647
0.0982904736703268
0.0999326741751865
0.0994590549010074
0.0956552203031573
0.0984047693825372
0.0967143879138256
0.0935685433210633
0.0967614269135832
0.0934217325499442
0.0961169907007486
0.0933946359295466
0.0949984365665514
0.0946952722401392
0.0939931478533131
0.0938250215365945
0.0937446386679348
0.0924936174505171
0.0921515743132553
0.0958927178207905
0.09249928695424
0.0908388279190746
0.0921714708122089
0.0899514355046376
0.0899041672422152
0.0914385809260405
0.0910776434972476
0.0864018899866138
0.0881929617566699
0.0871319011057699
0.0884832252878831
0.0879693225604717
0.0870254049419247
0.0852112890240222
0.0871998587189968
0.0858817951223936
0.0885405106957079
0.0832605280217931
0.0814084307258512
0.0852852595712176
0.083081910661253
0.0820013548180395
0.0846458452704394
0.07963260586742
0.0834828697931893
0.0799474233429102
0.0836261754178028
0.0779174354422806
0.0848798462088391
0.0800121810008773
0.0835621160976919
0.0809530900965937
0.0780428055519945
0.0800744389798556
0.0787578183837243
0.0747419143205714
0.0810556469544334
0.078338110389228
0.0789515329317282
0.0787471194977526
0.0782300319259772
0.0763221984458568
0.0804447593980519
0.0742039505854754
0.0794428328761222
0.0736615487837739
0.0739501432672173
0.0773555553139276
0.0766721009973265
0.0795254230269817
0.078399071948614
0.0750915403986958
0.0760401718069768
0.0724957033348736
0.0762807464806596
0.0745039094618176
0.0753586851353742
0.0749255879242278
0.0735554607485023
0.0727064738165661
0.0761201996666398
0.0724908725218313
0.0740938775189839
0.0715338208144178
0.0720424522776719
0.0713415224713214
0.0711618485168066
0.0717777142692361
0.0720083145164151
0.0710537345319742
0.0734746172926282
0.0728851627008041
0.0706487867578804
0.0672162311080181
0.0693447711950083
0.0667139290539807
0.0704868993200258
0.0681445239939276
0.0728446755780847
0.0694412368972049
0.069927043754796
0.0692195595919864
0.0680166539956833
0.0659818814201713
0.0678719967450832
0.0699079484690995
0.070564615911413
0.0645312889779473
0.0693974467004723
0.0640274200570106
0.0669882987270242
0.0652128268440584
0.0697618734908061
0.0666022752263538
0.0674921504102187
0.0685031989024372
0.0681322537247073
0.0658924170439811
0.0644549884352536
0.0654093500507568
0.0669418703013709
0.0662725711113435
0.0660434028584681
0.0674354242059549
0.069248077476117
0.0651787432714254
0.0699566373482253
0.0673334837734612
0.0640744827907497
0.064179384683115
0.0685695010932081
0.065807499979363
0.0638787312437145
0.0629038712882702
0.0667052223892613
0.065952520965288
0.0660841932986143
0.0643513005483616
0.065532078903836
0.0643907388373203
0.0650320214510817
0.0616285480646591
0.0651860152947865
0.0617530225621393
0.0627116128239966
0.0614683645824529
0.064249869102854
0.0610886708792042
0.062089653178131
0.0628832738961078
0.0645500534836672
0.0624776100051046
0.0649283927340109
0.0608095940627797
0.0636875498352112
0.0613262991857009
0.0635268848760146
0.0598928013252177
0.0624749607592805
0.0599400351049521
0.0630584530673567
0.0579182827235415
0.0653742399438434
0.0600946962168785
0.0580482253526056
0.0602689752982777
0.0612694871307295
0.0606918844183102
0.0621910445361348
0.0618566139414737
0.059700011862984
0.0581419820743966
0.0627739818156663
0.0603750623073446
0.0604996809308301
0.0589081162605831
0.0568460953921705
0.0572089716668736
0.0598205382496974
0.0601055926155844
0.0603698785496437
0.0569767648205027
0.059925523974674
0.0587192183881739
0.0584737151745867
0.0576870835908968
0.0582086340333292
0.0555445879340147
0.0613371182586227
0.0576134363348061
0.0604257739876232
0.0575703962273072
0.0614465146464085
0.0569723161190135
0.0580469905170024
0.0561238767325595
0.0608935640720445
0.0549311042673264
0.0577700951629406
0.0570887059980018
0.0560510973192987
0.0522730438309619
0.0584941435519017
0.0558469986363407
0.0588608034981401
0.0543824550205428
0.0536055347310278
0.0553259520177794
0.0566299708873088
0.053814601356103
0.0571632249511059
0.0518291650158158
0.0540842753269148
0.0558505686606565
0.0535319999380141
0.0513694820796401
0.0561453905551959
0.053697727870515
0.0525851839979487
0.0508301010444554
0.0527741428704965
0.05342716463095
0.0540850052025231
0.050352070313152
0.0533245782261646
0.0500762371008742
0.0539939183009371
0.0497315131262911
0.0531042218487788
0.0518599994623241
0.0531650210655055
0.0501388899679382
0.0501243499953858
0.0487003151934013
0.0483588947872238
0.0459678274088188
0.0513513892996823
0.0508080644133214
0.050825720602117
0.0488608170962195
0.0497743912761537
0.0480186907633645
0.0508052709459483
0.0493975397113027
0.0511227994004051
0.0490403923314946
0.0514611649648297
0.048379792726849
0.0511825339314476
0.0470153375242119
0.0526713486377075
0.0458753220121189
0.0509305923625588
0.0471812063350835
0.0496065738534047
0.047448134739666
0.0484901684186499
0.0457412388180296
0.0476066041938287
0.0454057050067552
0.0493780253034775
0.044834327987786
0.0487650357979483
0.044420451572904
0.0478161387063483
0.0456535141733729
0.0468195795460781
0.0418056992005984
0.0493301778861393
0.0434553477655345
0.0470215979919346
0.0440524059838108
0.0472576091820311
0.0441695070151204
0.0453349340600492
0.0423586447455468
0.0446450578384798
0.0444004550287888
0.0468225675636261
0.043923958430702
0.0450331976823069
0.0424139334447419
0.0452135640451016
0.0421576769108847
0.0437390991610998
0.0415659632361267
0.0448722445557928
0.0427372991222635
0.0464984953526409
0.0424361131826556
0.0433071114569535
0.0424997798426129
0.0430451257836231
0.040897268280009
0.0434917077457188
0.0409305927990938
0.0428748786233178
0.0411100692566985
0.0418575254133849
0.0407340867500267
0.0431865666545311
0.0399136393719738
0.0447285911786872
0.0414703213169291
0.0432219934024009
0.0373921137239648
0.0437215419558481
0.0422265728779517
0.043984561640926
0.0404054571295441
0.0441303277722955
0.0395246457667273
0.0457363541168254
0.0397477696078631
0.0445463753094651
0.0426015512558027
0.0455724791158847
0.0400494704453715
0.0477433574142186
0.0420733528959406
0.045411811709076
0.0388396626602153
0.046558134589901
0.0398031972344618
0.0424474346665589
0.0361714530412221
0.0420933633244905
0.0312649392527109
0.0399889665683601
0.0371040167696335
0.0461992141343532
0.0288010122360542
0.0408772607040841
0.0386184334215758
0.0425329713918041
0.030856593303122
0.0434136527471518
0.0324472756361318
0.0435786771988229
0.032694771863627
0.0407193771905569
0.0319532724777522
0.0411996377551303
0.0341660015547109
0.041413423135024
0.0335175036867186
0.048646355956295
0.0357503054850763
0.0482108860548884
0.0310347554080661
0.0488574079637681
0.0302154292017302
0.0485019769514083
0.0281507875205915
0.0419066098722059
0.0293226312126428
0.0435870424993632
0.0301011488167774
0.0418964672763389
0.029325748600795
0.0445649549262663
0.0268030182622902
0.0430482770666947
0.0275021687068754
0.0389425403200548
0.0286173530300173
0.0394709672804111
0.0352669845647048
0.0410166944245251
0.0397116760230068
0.0321021195567002
0.0418485238396003
0.0307809134380526
0.0511506616872703
0.0277813724401834
0.0514115594277788
0.0177820353383384
0.063416776762999
0.0161392103585294
0.0702493603586782
0.00653905465918011
0.0732424441233462
0.00797930988544076
0.0724794058897308
0.0109069844438473
0.0674694460355183
0.0191296082439657
0.0580253632578639
0.0289057890037108
0.0467269179758231
0.0374250059568473
0.0390608235477217
0.0412687263368984
0.03638620137164
0.0430945135395545
0.0347784871012141
0.0389825568688549
0.0384078870035635
0.0353980889752405
0.0420733509198034
0.0309933945295386
0.0431077583895674
0.0332748776298863
0.0412295155350442
0.0349531673314335
0.0390585628989972
0.0342627934459145
0.03689774041532
0.0351834110062344
0.0358796773414756
0.0336740278309712
0.0351302784807588
0.0359183523476517
0.0407745948123833
0.0342983391147601
0.0370970153745934
0.0356263434840511
0.0368668501319618
0.03469253162513
0.037741432471112
0.0345861731327232
0.0368113416497882
0.0347938494421805
0.0351576686863227
0.0326515004311394
0.0351211484274815
0.0351910116730887
0.0354963528713784
0.0322288022368455
0.0349166991096739
0.0349540374646965
0.0364956537864062
0.0347383306669849
0.0356433171190758
0.0356763210243146
0.0388640551299323
0.0352531715399033
0.03758446567603
0.0348410106747342
0.035122127344413
0.0355331033760417
0.034116805842001
0.0317780356692781
0.0341009629229654
0.0333865592625218
0.0364650296167251
0.0359948936607238
0.0370587020038799
0.0351239060925313
0.0355895384720882
0.0358961815168418
0.0361471880861699
0.0344385844503996
0.0356528063693102
0.0358692024715442
0.0349154313196313
0.0381066135945381
0.0353082516985233
0.0357389504637324
0.0357720931186445
0.0347772452681944
0.0332332072256075
0.0348364957540905
0.0344695851537865
0.036569636036587
0.0346882079358985
0.0336768715103219
0.0365879416855136
0.0358859156608895
0.0344030795085699
0.0342993038601786
0.0342166437887744
0.0358447318020653
0.0331682802146872
0.035874473991761
0.0348657950260098
0.034076642329363
0.0350561173435225
0.0351982033834413
0.0332914996590286
0.0346719705912866
0.0344123589017281
0.0348658974748
0.0348843580638556
0.0361119833774934
0.0348118284938674
0.0354416181017469
0.0363410040516019
0.0352125160750802
0.0339534254979954
0.0359420901431909
0.036833316772839
0.0358887377740458
0.0348918268026384
0.036586341554201
0.035628671020785
0.0360710767250053
0.0365779834364456
0.0345506836792517
0.0358474729290559
0.037683036941381
0.0338881379380484
0.0352745942132083
0.0359919625760692
0.0364085479523239
0.0371370118074285
0.0365613666981538
0.0353927021309452
0.0375030848721425
0.0357989029022506
0.0361015153262527
0.0360016906033883
0.0365783103642982
0.0350272774341855
0.0361765544811671
0.0359061642216493
0.0354551700532232
0.0338158034127108
0.0349365891500034
0.0345600545014376
0.0355141546893001
0.0367653305185969
0.0364401869029803
0.0358907554050766
0.0350329414291717
0.0350940294124414
0.0357328341559968
0.0368016930933413
0.0376245292549281
0.0330292749049825
0.0347446673292307
0.0352588501323399
0.0351256952520679
0.0353701684967475
0.0353410927333941
0.0354093196786228
0.0358894559677282
0.0347910937860513
0.0363519450094618
0.0348486651555641
0.0356425327287025
0.0348947158182067
0.0374935761151535
0.0358806587925547
0.0360322845049675
0.0374012924238355
0.0373438476487785
0.0344851764535756
0.0365991335745813
0.0356141209742466
0.0384129778472842
0.0365691798842946
0.0388465375048245
0.0366952801856003
0.036627353990929
0.0342352191132818
0.0365890035052008
0.0378126242705178
0.0382535701498258
0.0378665412210016
0.0383659726358251
0.0367264419926649
0.0357365145802956
0.0356568536909521
0.0370624647720084
0.035135782812055
0.0393126428006571
0.0360502010848176
0.0351628856069071
0.0340023327107877
0.0368682116729905
0.0349716296369599
0.0366904435056655
0.0361054452091486
0.0363238273064306
0.0340474201869279
0.0359008808671569
0.0353299710158782
0.0377686598248381
0.0330068783446852
0.0370541184297586
0.036026054212547
0.0360875861512488
0.0337650612731364
0.0344332107342084
0.0330163096363338
0.0378267043923196
0.0335235418248997
0.0367426449814168
0.0350304295823976
0.0372277083125144
0.0340105314780416
0.0355862787407275
0.0346487349754636
0.0370322814944769
0.0355516145862628
0.035134675134751
0.0328604986300107
0.0343209078202953
0.0358912926158665
0.0347848967562731
0.032944098630407
0.0354552839412961
0.0338338474135819
0.0342178019298344
0.0350719392168196
0.0364999766272089
0.0333340900182706
0.0334607118432074
0.0334350381031283
0.0339093877046521
0.0319420222608919
0.0339081731584611
0.0319251969914339
0.0337915663189181
0.0328797895448642
0.0353357827586122
0.0333445725207793
0.0345848654586409
0.0335489036726025
0.0349643124389322
0.0331365704407412
0.0347922360495937
0.0332438822768025
0.0331434167408455
0.0346440754256071
0.0356016855469302
0.0319122212105564
0.034677401230733
0.0340000729726512
0.0341674786456123
0.0326244564472993
0.0355072165465522
0.0330286924740734
0.0344499456083726
0.031275913384568
0.0329404564955501
0.0318576355463299
0.0336641363632288
0.0338495299673731
0.0347822418777109
0.0316830517101918
0.0323685347519241
0.0321815995298859
0.0359340864168815
0.0324125745116644
0.0336765928825721
0.0330145812582076
0.0327298831309361
0.0329930307249729
0.0342200721823076
0.0310271943770859
0.0334280359443774
0.034988663232997
0.0363959783157764
0.0331689421939368
0.0338349331667229
0.0327873923247913
0.0355834317464366
0.0309441648027989
0.0325490926460782
0.0325786565039607
0.0331907146933776
0.0300756726937531
0.0346320723697885
0.0311079494318934
0.0356568617304903
0.0326238412392224
0.0317883765342206
0.0298092214953722
0.0312657556087296
0.0317524897514771
0.0346182598953466
0.0321665565898613
0.0329512483000119
0.0333792082208626
0.0324825120999187
0.0286565047422826
0.0333209605826293
0.0342431309959317
0.0327609265917874
0.030228633053356
0.0333334465541219
0.0307136202033795
0.0311752307750099
0.0288137999884415
0.0316351327756591
0.0291500475224646
0.0327726531134093
0.0302467295835395
0.0302667974061526
0.0316809269260742
0.0327435174236322
0.0284456672800947
0.0311590027157528
0.0311141876393432
0.0318166495342938
0.0315230657118497
0.0317627025870263
0.0284827131079001
0.0307091844793218
0.0297193306746287
0.0324830722136983
0.0303351958761162
0.034074309808482
0.0350682193883884
0.0343013502613327
0.0277659095816673
0.0317935629279207
0.0275748588874546
0.031862833801406
0.0291154360694324
0.0314158954194446
0.0277561953763928
0.0270320132669585
0.0266387809934512
0.0288422947335937
0.0261682649928308
0.030178556957721
0.0272578837214166
0.0292923831927002
0.0268583633583363
0.030152499639047
0.026816048428153
0.0297846187116769
0.0271485302746278
0.0300939312239199
0.0276094372017253
0.030509515114397
0.0229984212877625
0.0314755728299894
0.0330252286360009
0.0388246221206865
0.0297044805888012
0.0280371266337721
0.0299713672240844
0.0318639890755162
0.0275373769176742
0.0287063874068598
0.0272946240058449
0.0282510478291084
0.028595647086932
0.0274038955734648
0.0280718996702621
0.0284111411814226
0.0275334220783139
0.0294857852105463
0.0266944880548609
0.0283391994447519
0.0261319138292947
0.0274586264305518
0.0264514512698986
0.0273378969587123
0.0252998746832151
0.0266835800270623
0.0268380698592967
0.0270253504909134
0.0274481163174827
0.0358603290739801
0.0342511173034061
0.0307463256064949
0.0278239764609968
0.0258687783227446
0.0253203590510375
0.0251009634341507
0.0263690532538321
0.0282880964558947
0.0259600153283301
0.0281056555308459
0.026349413541048
0.0288302190072404
0.0273190284693498
0.0281313045568518
0.0256257873776371
0.0264348739737079
0.0233613597739001
0.0259860143465592
0.0261149936803547
0.027199059146567
0.0251667323871534
0.024258121714741
0.0289971793345807
0.0283000204827586
0.0254587183624569
0.0350799751119579
0.0437082097035356
0.0335814438969455
0.0250796775266948
0.0287911374122085
0.0212865323233998
0.0270719483624911
0.0248489592938669
0.0272420993809011
0.0224687288169364
0.0265088488988951
0.0254594334899663
0.0282411921100842
0.0257341965811827
0.0270793982274941
0.0231061794119337
0.0271251707385953
0.0233992201544237
0.0269436989455777
0.0247534863616832
0.0261446870227234
0.0292464640930873
0.0427619498992373
0.0339966532207916
0.0276176793532467
0.0246891079076492
0.0316943841916746
0.0367927556288997
0.0380988560514016
0.0213053129568565
0.0292179502540937
0.0219090376165901
0.0264868626910692
0.0225410258399503
0.0257364497879141
0.0248710114044632
0.0335708668424908
0.0257469541294161
0.0292716490197565
0.0263543900831584
0.0259840194245736
0.0244456119658732
0.027079433869524
0.0232793360466018
0.0254871961469024
0.0223882957903801
0.0254883814917717
0.0246131056542969
0.0252491809467238
0.0241169193087074
0.0261753217346031
0.025828986716287
0.0339295886475795
0.024223302040976
0.0276578727880139
0.0246456685867107
0.0234481887998236
0.0311999171600772
0.0421679085676265
0.0284270085696165
0.024322865963127
0.024583500957059
0.0251478637190903
0.0267823325585154
0.0254235305528697
0.0250177742171957
0.026420539889353
0.0228280922684309
0.0245350976644532
0.0246729681745294
0.024874613017695
0.0246146267184889
0.0251690468877251
0.0229420505951995
0.0248086427077092
0.0235486491411144
0.0262870753326017
0.0235594878824783
0.0298198559698615
0.0351741426340872
0.0515206468712261
0.0379483793947394
0.0402407721046681
0.0303211191617768
0.0282523969651573
0.0265123961873713
0.0266672195027139
0.0244298191412235
0.0288504771783208
0.0246369177837826
0.0276722156256249
0.025305706497723
0.0273759471378962
0.0233889253861033
0.0231618243859246
0.0230283317100774
0.0255175885817119
0.0242950616288076
0.0246773561206332
0.0231648005373677
0.0233468203719962
0.02576799892023
0.035052435961992
0.0343945662836281
0.0265013308457325
0.0308547083142559
0.0487742308152394
0.0538174862666242
0.0329463110339833
0.0304376140124648
0.0277350160306022
0.0224437600946254
0.024847403156727
0.0268441234737425
0.0313281816332446
0.0261953742075708
0.0258784413564872
0.0247186658330632
0.0288351695118481
0.025155830221309
0.0266510913995135
0.0369345468564011
0.0588613285643165
0.0374373072464629
0.027871711418641
0.0258727286168513
0.0388796321278959
0.0484010911540253
0.0335520020330484
0.0279111109154961
0.0317351615201463
0.0228826468441107
0.0265044592366998
0.0229122672847702
0.0276952247508304
0.0276652748624068
0.0308320283596166
0.0233972631169421
0.0262947420107936
0.0226841522298501
0.029107787714094
0.0304041918650473
0.0419604288730397
0.0349589524172064
0.0284311247213238
0.027577744747356
0.0330699175816677
0.0251781639723708
0.0300515551823835
0.0246116904047485
0.0276314472631256
0.0382192871902365
0.0444937943887878
0.0344040990888958
0.0429814539052593
0.0364632889340681
0.0288101755284304
0.0286366659520448
0.0414377835558164
0.0303690126452478
0.0292444694572303
0.0383536615182892
0.0585946444866488
0.0519213705332381
0.0461432105085604
0.0325446224001996
0.0277553687090447
0.0296482391371718
0.0242006458334578
0.0326341143220129
0.0411458539433869
0.0345964469294401
0.0275869774654951
0.0278297932746832
0.0423216648412869
0.0448986014960554
0.035946512559808
0.034018450788539
0.0297238897504578
0.0322050596822215
0.040915369150587
0.0340606790092052
0.0345391441754039
0.0494189095418846
0.0710876732917804
0.0532068230968195
0.039015585097121
0.0316747901592903
0.0628851192006806
0.0397341384593326
0.0310252771813432
0.0305315267296103
0.0306135501836115
0.0280663220955782
0.0413630313165448
0.05540591944787
0.0437446404216023
0.0306280352579701
0.0365817022445564
0.0342612606234559
0.0526234793036732
0.0436905005826697
0.0333302331881473
0.0310370199509242
0.031651881332288
0.0368124510457078
0.0751741806062198
0.0556945862875358
0.0560227410983671
0.0599958645631281
0.0576960882974713
0.0468715404185511
0.0492439904379997
0.0383731837798858
0.0569695942978516
0.0591402638944518
0.0424907262632406
0.0339304559495075
0.055138993815582
0.0593361020491048
0.0442940578645451
0.0400119806651874
0.0408316354116981
0.0382619271884246
0.0848851646698156
0.103250819219274
0.0761022505052708
0.045385781790232
0.0528733471538445
0.0656002018782197
0.0507273127416934
0.0401351083105357
0.0434422961089909
0.0404900849732329
0.0412067493571018
0.0421543609012325
0.0542234303601873
0.0448778814357738
0.0472232945192345
0.0417574982795909
0.0476996721108119
0.0658632365302271
0.104256152772474
0.0819021748617671
0.0656535794315015
0.0837819506170108
0.0831230086940928
0.0594581183551734
0.0517745434030721
0.047178454824271
0.0650257483466188
0.0536292724935911
0.0539389251224455
0.0519309820644961
0.0771518194962364
0.0697681034203334
0.0763109038501125
0.0749543274226118
0.0665641245007792
0.0621038251582419
0.0823596831138758
0.179571807946689
0.0983986908230669
0.0723520654817239
0.0876917076044642
0.0861155775224206
0.138079830880706
0.0849070134221349
0.0727789773234236
0.0750236133887886
0.0755585466993692
0.0767202622106699
0.0871772935491538
0.0884300654959822
0.0992493948595582
0.0840667221340682
0.0911992698638764
0.10513364839776
0.188119547115324
0.154564104049086
0.119762754823554
0.0988179911239239
0.123520348159818
0.119010753861612
0.106459886702416
0.103333586639213
0.106088331980669
0.117118880468256
0.158778302964858
0.123461818201911
0.120599232219456
0.129538287125528
0.150271612158547
0.125793321669053
0.17470009384208
0.165277177760083
0.141937022230167
0.132281558972323
0.137666754223742
0.137309891521321
0.143131430460338
0.171437852428321
0.167337675846633
0.150299934885747
0.155400372067009
0.149561231419537
0.156541503889753
0.15483840230839
0.16241076375188
0.159447502076352
0.217537561695736
0.212101822632285
0.336607737662594
0.194885672943343
0.171953254056055
0.166957539993108
0.176197504749287
0.197332185424369
0.202105474693634
0.208958390793801
0.196013203100482
0.161610112050357
0.173359031664455
0.171374372494921
0.168473723482772
0.166189516545366
0.171317835381206
0.16334837163023
0.195564645209989
0.176390450564314
0.208174673473677
0.224145487294907
0.18356000481386
0.165570179148721
0.1663733533567
0.164425373439537
0.165921721698328
0.15703817530285
0.175013485214871
0.1838535810202
0.165789586841125
0.156920538223438
0.156468474570151
0.191063129528818
0.181339490061405
0.161751804640074
0.163465613551491
0.147761555014693
0.153465108092228
0.148519966101972
0.172963851373618
0.203950640785792
0.160986305556063
0.15206826625988
0.150413364793325
0.144121010837835
0.147670070064192
0.142438316817171
0.149184060420349
0.146444992897414
0.141635787420343
0.145761187922714
0.145324861786018
0.142050729782436
0.142210465249901
0.142928909360889
0.145055482334516
0.140158699296751
0.139387995041181
0.138163477817747
0.141619212606483
0.136746641128721
0.142489465598702
0.136792452534358
0.145915876665873
0.141522432629157
0.140561594806051
0.138262520088119
0.138042675765123
0.140072497348853
0.139920491882988
0.131624775330918
0.137678173345117
0.132338796886433
0.136280897186674
0.131662899948797
0.132691350720672
0.132724954133435
0.13491345863145
0.127044663550398
0.136646713374178
0.125018939470716
0.141468943832965
0.131645035490022
0.191889806976993
0.153976627049557
0.133910297940182
0.129715204956132
0.127571736731478
0.126840196750561
0.125389697701352
0.167458433553805
0.153285131469888
0.127301549829533
0.125009834110306
0.117725835585461
0.139210554047257
0.125640880954274
0.113973349108125
0.120061974696347
0.116090727920992
0.159891220647569
0.196236590684677
0.208339607776857
0.203293722208819
0.135020544495779
0.11747267880959
0.125231789464695
0.151920833297366
0.106401085744876
0.114743007395992
0.102149278904832
0.164990393334761
0.122570438977734
0.106239238912032
0.102456505232022
0.103620164774732
0.133708346711666
0.137095002791986
0.122048943873628
0.137534230672062
0.150351635721381
0.139458871773547
0.171660037867185
0.178448480197876
0.137644691562563
0.10206027866623
0.105125269279707
0.103397852535025
0.107647314840069
0.172423139638524
0.106926398163056
0.11618747885204
0.0925728470209955
0.0952228531303738
0.0962852799364904
0.121671934706101
0.108128953834294
0.109083192288428
0.139487926503476
0.092694160935294
0.115814746719823
0.119484095974517
0.148659173973343
0.156651811610685
0.102145106017694
0.0941668045707516
0.136184342310618
0.143073874487388
0.102354812060115
0.116230354471971
0.0794564047433341
0.0959022706331948
0.107160298958043
0.0889536272899544
0.117011392789517
0.119234833462939
0.126518015750606
0.162843528213708
0.16823885777249
0.150885549011991
0.0998385310089992
0.0834750386408358
0.0857585835896777
0.0890707483408374
0.090906019417802
0.0813752809156545
0.123143793104435
0.094163423218624
0.0848666903580233
0.147812322359599
0.0957068185486971
0.086947754977141
0.0850579576748187
0.0885325166040028
0.0966836773160354
0.125139890819207
0.137760545685256
0.116481111035289
0.115946243057314
0.129564967404595
0.0952851390009638
0.0998858004186853
0.0930666026675129
0.0993920505783923
0.0998379680286505
0.120303504194736
0.106283474586764
0.109414431023064
0.108716508798316
0.113009704992624
0.135615369262015
0.15298131402309
0.114918764931061
0.171430180735978
0.142177261863246
0.204586335833477
0.145341768421994
0.133961123321933
0.132657799525404
0.134324808786654
0.139279729732087
0.138628530838046
0.158212733237972
0.185875992249781
0.139412054842285
0.158383274682267
0.144211800497445
0.158813766217954
0.15138140162087
0.202677697998804
0.176905882447582
0.232174640796482
0.212216705899957
0.190499951560498
0.1782435699654
0.158448860199338
0.175321026370231
0.170910526591412
0.1629461705828
0.165419668715269
0.167150035956123
0.196867335142903
0.165733556830129
0.172283826303878
0.168282801076918
0.171728436873299
0.168846997395345
0.172210845177751
0.172725781768271
0.175720168674684
0.171574115499041
0.185579772707429
0.173112036093366
0.270265407284122
0.195311134345761
0.187912758508125
0.189739506116126
0.191952217548378
0.188861767555996
0.193155980813736
0.213796880600732
0.2021325950533
0.195148520033587
0.199814958963584
0.190950273523735
0.200074832001374
0.207238011019174
0.234933180759538
0.191462950570125
0.216884704744306
0.190611861565543
0.245918041397646
0.251055166027422
0.221554293548707
0.234884413022341
0.215066445213324
0.212176623461437
0.207858028106555
0.209370491054229
0.208925091050656
0.216398399497035
0.212705508565831
0.211859417351083
0.209033475325687
0.209100815558607
0.209252835182368
0.21048317541
0.243686168576413
0.213207875785866
0.215176451063893
0.205832334377943
0.212479369472271
0.204900670239409
0.24352801340141
0.231385981911667
0.214194740621373
0.216813667168568
0.22889270058886
0.230655423021707
0.226568635428152
0.20303869955063
0.215561552585769
0.205805301505727
0.21444971995309
0.205877794472981
0.219670754612498
0.24386141021603
0.219058966648877
0.216632477923861
0.210943371112886
0.213052190019575
0.216149229104929
0.215056648416621
0.215587050297225
0.222312931459651
0.220059188406025
0.226499106792626
0.222104636576807
0.22241360593512
0.236671841693047
0.240069410377769
0.238653182512335
0.218270898508882
0.21897693462534
0.216636420023187
0.21690688479498
0.221907658640067
0.217675145762417
0.209762935834406
0.210300879403309
0.211075246384704
0.204948832461545
0.246507589486999
0.20759616394801
0.21892895197798
0.205590749190135
0.197007212177292
0.203104108026848
0.196089398350463
0.197808418285388
0.191780535758677
0.198927476365941
0.186319879253793
0.190942005273376
0.187023327812862
0.189568910024442
0.187174738127769
0.192712305364071
0.184811076976437
0.188790200333157
0.186121852696754
0.185323239780387
0.184834254661646
0.183664598940134
0.184187493182401
0.181187334600347
0.201824923276203
0.20689784649495
0.207155616166762
0.191181784146349
0.189026199106618
0.190411396788099
0.176299104288344
0.187672903616992
0.179306065148455
0.18562825955498
0.1764709636279
0.185401109802166
0.178354548761623
0.18403251746164
0.177663942252146
0.185467644125439
0.178705838804815
0.184456754386726
0.179349775946466
0.18218283778904
0.177836487998828
0.185837080246941
0.180240913268804
0.19676642535027
0.185565990061976
0.181933403687286
0.183325302144427
0.178872881388604
0.184069492487874
0.187249924925108
0.184259254195823
0.18223746629931
0.17898544637085
0.178712467851574
0.178328454047095
0.18064119930363
0.178359258514784
0.18029319143747
0.176610091517398
0.177358711920088
0.173190317906603
0.174488635584642
0.170815677050612
0.169666020297205
0.167966790866501
0.170140982325757
0.164483607542429
0.166041295123918
0.163623995993291
0.161164450151105
0.157868961179425
0.1600291146469
0.158694983734053
0.159183458161611
0.156540213350983
0.15524622576545
0.156296214377224
0.158290485466971
0.153694453434158
0.151663186150154
0.15086763809268
0.154627721833641
0.15188495607979
0.151576570274862
0.149142732971916
0.152648060549784
0.150698207997737
0.151284178216271
0.15061211691072
0.150865749115001
0.152147924833781
0.154746991844743
0.15248265117899
0.15501042417947
0.155615878844945
0.155245605361467
0.158094056854117
0.156767180439925
0.156701690068537
0.157812687999603
0.161176368348966
0.161671375725527
0.160562718296145
0.161483280471915
0.161268721861352
0.160562934714535
0.163300936785952
0.16279073887873
0.160218612633127
0.163480298508425
0.162873878388905
0.163935167381319
0.158954623154244
0.163606572888397
0.157766823822738
0.161632599157036
0.159788124186369
0.159679799868681
0.157308472079379
0.160403890184263
0.158076661309553
0.1567034658486
0.15709089110104
0.157063932032311
0.156232691820953
0.155857466079328
0.156068447190157
0.153112535553326
0.154228329158172
0.152738329977044
0.151580444286426
0.152994657028434
0.150703607759205
0.150067193551109
0.151118921112121
0.151516945940386
0.150114668606684
0.149432088271312
0.146021465162651
0.149965858636359
0.147422755972244
0.150529367282239
0.144282400790702
0.147708229357877
0.14695039468622
0.146709885976292
0.144333179270843
0.146001148066653
0.143855340549492
0.145893586203817
0.142567276705845
0.143900637959803
0.140502052154622
0.141140296887658
0.138486129826934
0.139204267500687
0.136156680443987
0.138512017482339
0.138016266548863
0.134542922902169
0.133356376531243
0.133575155559318
0.130958845152543
0.130850930911164
0.132745722039813
0.131103182864301
0.129930899589767
0.132564855613041
0.131035430485986
0.131276838356409
0.127994327515926
0.131323584425953
0.129678807284783
0.127710182834768
0.126746675544288
0.127446034335447
0.123693190665426
0.125042493665499
0.122754683699192
0.121412281984559
0.120623510377008
0.119318699850449
0.117614957644825
0.118079077418483
0.11490290570075
0.117084165965895
0.11238466854225
0.115196636910795
0.116498299620867
0.119810268859689
0.120883832888942
0.12407017413971
0.125923321351486
0.131766948279514
0.134832616911096
0.141418014201097
0.145339592828588
0.152872590650243
0.158720266000973
0.165846266551528
0.171761058039931
0.178518411361539
0.185350712802385
0.190907878046901
0.196605871020245
0.204066487036302
0.209889899701225
0.216943401494399
0.222527412166525
0.230877634984363
0.235469412777822
0.240900104539642
0.246385030810676
0.254152778735415
0.257220206067783
0.261155301524545
0.265332197989176
0.270863396055241
0.275869039850749
0.278766734094116
0.280725653036899
0.283775255571923
0.285821654848603
0.289369962315415
0.289462952567083
0.289936964172719
0.290057969604137
0.293843421821663
0.290830999355095
0.29261167151658
0.294588487665774
0.29259681888124
0.292978267387499
0.298504001979585
0.296051245073253
0.29562805090501
0.296555985836057
0.295248383158605
0.29714493367677
0.301891955059217
0.304636892789622
0.307216263198364
0.307020597239592
0.309461614694828
0.312196835657819
0.317132218729988
0.316365749179765
0.321549688691773
0.324455940813453
0.32902665509387
0.333708176523735
0.340736130868967
0.344296718419444
0.350947110776166
0.355455614482414
0.361626363485165
0.365065017839189
0.369894622697395
0.370589331406701
0.373455834628546
0.375946011677028
0.380240584308438
0.379523978615463
0.382732524711857
0.379764429507734
0.379306738379156
0.375851365186367
0.376934708555727
0.374926352780118
0.372721801956406
0.370182526935491
0.372045552404869
0.375576016792365
0.378820192306854
0.377182777675986
0.384464477108964
0.388328075296766
0.397474642697116
0.402212678007615
0.411118487437595
0.414009768092766
0.421699468582033
0.427346150911645
0.438245354241165
0.441415446348388
0.44613138775984
0.455383584340771
0.464782803600241
0.469304930508688
0.474612352660734
0.48219254080181
0.490594655773791
0.497369063884376
0.50604797323892
0.513591327056611
0.520865467887778
0.539452710009472
0.544684267978892
0.552539665558323
0.566866148647698
0.578009734758719
0.576532827081324
0.593125422136964
0.602080510895385
0.604269055113932
0.614868272326286
0.624170410288467
0.626458449088394
0.635790661496484
0.63483115406641
0.644071924087086
0.647365728723593
0.646245178295558
0.649602289194891
0.657697918250808
0.644276669281705
0.645085711201803
0.650440262124979
0.643126046894732
0.638116011418951
0.638828518869434
0.639357459877054
0.636539904284773
0.635271458246859
0.637374645552438
0.639096805333287
0.637633019762604
0.643818418120739
0.641707427307179
0.654630961518037
0.655472803291076
0.655705498070329
0.658978028233305
0.667941428172111
0.673551384118455
0.675996544917344
0.677179179170505
0.687282139009843
0.681464760298449
0.687370159927646
0.684883879179615
0.695839655962678
0.696174030190297
0.699077667194118
0.701742318630798
0.699860981182771
0.700632384243046
0.69840331056243
0.706735410059801
0.72633160782594
0.753960557966313
0.735030710112443
0.71689695181499
0.718184159281071
0.702921565715984
0.700137538555617
0.697218548528625
0.703669601749365
0.6975183856015
0.696710235367276
0.681713182872912
0.68375217819398
0.678301920282511
0.681961238728838
0.682161112783969
0.670867942837773
0.659910205016912
0.649551429928699
0.6302025569734
0.630036151568309
0.610361399240263
0.60274178923826
0.579816011682818
0.563583178861903
0.54222581532363
0.519553632657952
0.501287025318087
0.488301119448162
0.462515200996424
0.448994445967216
0.431755442824895
0.410433988939742
0.40583894241763
0.388810134038919
0.392207801305476
0.379838081759772
0.377633676749931
0.36448969687398
0.371049190175447
0.35698798242432
0.364146168835102
0.348652893592588
0.358052679927727
0.337756238039114
0.344833154468343
0.331762121261824
0.330249979137717
0.32140311053189
0.315050583365121
0.305118856917034
0.298001715018123
0.298574096563084
0.282618692448732
0.273481029551294
0.262953833389755
0.25681530447148
0.242662474995924
0.235372912602755
0.224297270414627
0.206791723122306
0.204102961031493
0.190364944952157
0.183443458833496
0.17186304517777
0.165298957442744
0.156382357064929
0.150574532112934
0.141205600233859
0.139095312137214
0.130206351790835
0.127194314077662
0.122279050799347
0.118613615748221
0.115251227014738
0.112054034430384
0.107398487689221
0.108123002197053
0.101255813376408
0.101076252509519
0.100495050519858
0.0975850128091971
0.0980712002210321
0.100460355625953
0.100134054212211
0.100545661138555
0.0981960891777532
0.0992642257741573
0.0997775967848385
0.101887885741262
0.103208708270851
0.10424111957663
0.107118305045406
0.105554439218501
0.10263884743664
0.105268409204237
0.104938673379807
0.104038620213192
0.0998712013019774
0.102483593642492
0.101311984873318
0.101274052194454
0.0983188795459072
0.100620772018108
0.0961897689471172
0.0908125139043253
0.0960505052551104
0.0970901768830263
0.0979706647051469
0.0965758169424971
0.0960231096502427
0.0984879992019531
0.101772223767013
0.100740916975149
0.101323984699817
0.0973205260299565
0.100884208545955
0.103105881715903
0.101635426174301
0.10734821338845
0.110599784694116
0.111547359991869
0.107401815932438
0.112524661938552
0.112197226541706
0.112581073592797
0.113414248693891
0.113886421846532
0.109823279802812
0.114384249061975
0.111506862359588
0.114302645274423
0.114858581270181
0.113370672998706
0.112998339870824
0.117521849932954
0.117777344333058
0.118702943870461
0.12129444149136
0.122577040106421
0.125357595311171
0.129145296757788
0.131197413885426
0.137337988997699
0.139966541316369
0.147604735755272
0.148807795465725
0.152606619635644
0.158844669830809
0.159831302082338
0.163959456220623
0.158796850777388
0.15564763343256
0.158977178783266
0.160071873747391
0.157087690998691
0.151471781507428
0.15322727108384
0.148285333953751
0.150031153820428
0.143255869550749
0.138932213874076
0.139312968577541
0.140838895165277
0.137442709808036
0.138366092006385
0.141050805096293
0.142106540186327
0.141250921978415
0.141775363773488
0.140198373301775
0.140844187918446
0.135661010445135
0.140206456784816
0.134352445235822
0.133903042546787
0.129917590228494
0.132037079737921
0.122999271023537
0.12623457663689
0.127875127872847
0.123349249226907
0.122092191991748
0.124561978176911
0.119899422809498
0.124831054286222
0.118084645990794
0.119669780922576
0.116409047754322
0.125693134442228
0.116107551936678
0.113089381298884
0.113029846702692
0.115914774878885
0.114599037278616
0.116411061699836
0.109892004203597
0.114719160078258
0.109103617343953
0.113875126758273
0.110210346519827
0.113982188909572
0.105949195085965
0.112891004219352
0.106533054381773
0.109806408637292
0.107888028305422
0.104918697032092
0.111062443599049
0.104747171432402
0.105352545178242
0.106253389844419
0.102294575280098
0.104403174348552
0.0981765278043443
0.10240518542504
0.101453898121951
0.101560418670683
0.0961318946875416
0.103292207769754
0.0996170997278298
0.106590295807878
0.102293655684954
0.102369519191121
0.106105482210515
0.10761413846259
0.0984873654567114
0.100781525899185
0.104324474284363
0.107231182081941
0.101465301489858
0.107496216910496
0.10755762769469
0.104990589488684
0.103273375259137
0.106546530908958
0.114275062104522
0.118909428700847
0.110137215093019
0.119135334149648
0.117618960725303
0.124056113561397
0.114987198253248
0.12058245582241
0.117442972177834
0.120801915863101
0.121477025704495
0.137076137476599
0.118676529968959
0.123086949533902
0.128399305330563
0.137575346897989
0.13226794529558
0.143687010183425
0.145581553624274
0.155077659475578
0.149099517230923
0.156553707130325
0.162262087406628
0.171898076422303
0.168580064245298
0.185604725344079
0.183826009855736
0.184008879191031
0.181155737303181
0.200691805092631
0.189939652215577
0.197620918760252
0.208725538610216
0.198770880213208
0.198387620480203
0.206880218533126
0.186071969753312
0.192543077544524
0.191734378665025
0.203153040365923
0.188449609724948
0.189392521144774
0.190485978796932
0.197006654002689
0.190122265463347
0.192043180909458
0.18889686028119
0.180554474685789
0.176087232496341
0.199499199334286
0.183316054480701
0.183324090077931
0.171003214456638
0.181625004450277
0.172218519695269
0.172397924049541
0.176903166316338
0.179888616542814
0.164165105917951
0.163659265638115
0.15666042471016
0.171936857609424
0.161796247677244
0.165237644333072
0.150989519286258
0.173311525626549
0.172091282261159
0.164479838433416
0.163526109658951
0.174884230475082
0.153986800411859
0.152600109054143
0.162592959701471
0.175396489124625
0.158055917105704
0.164847076358188
0.146271325883659
0.177588522461235
0.181868451064339
0.165826873493546
0.159207730197916
0.147189108225267
0.156731269905627
0.174382704556112
0.162688395630077
0.182478995572331
0.185832725171967
0.16596089144409
0.177615370206753
0.192186808045235
0.166216918779134
0.167326020841796
0.164364711948938
0.178917523304678
0.164391103393898
0.197120902085007
0.158061497439215
0.172688087104198
0.185663607050402
0.193534572834615
0.176516000992972
0.231680578723881
0.177518660704983
0.205316385217848
0.201649950173916
0.217103476096034
0.20653701232539
0.205981788614246
0.22145153161117
0.234055831631254
0.220458570092223
0.241782717972029
0.226837584423173
0.22832662043652
0.219647990460859
0.246125991841086
0.204942491884601
0.237839672264011
0.251635299348972
0.262804470164696
0.262330734966833
0.256039648724468
0.233321785418936
0.253584426704321
0.266624157362851
0.216108356655634
0.213364997773005
0.215811291986677
0.212597239350679
0.215633905888088
0.190168848734348
0.221957267035181
0.188822668538812
0.190026300468488
0.227927100055427
0.250044170208907
0.247245742204325
0.244492743739163
0.1965969652002
0.250882912845565
0.193789485163455
0.246819792224539
0.212373741305897
0.240909415128258
0.199197330923947
0.235126750560245
0.11164792655869
0.24459868688389
0.261401700164891
0.2892110947962
0.2573927129117
0.263921966391008
0.161338961060267
0.183604495710881
0.13233791442798
0.224930201359342
0.273024455002812
0.13048891990817
0.24889060835697
0.152151231203755
0.163490466310179
0.257916705915426
0.131401933673036
0.298457471092705
0.266758939953921
0.230605921418674
0.135644665701304
0.362211319684476
0.294673941733073
0.26191603246875
0.214503940000459
0.347968456555221
0.195298170602433
0.345886914304647
0.317576335469252
0.167966336698748
0.20397556395536
