3596
4000.36533379555
650.420452594757
1
2
2
0.0693359596924976
0.0832070760770145
0.0723200544622529
0.0753850380101481
0.0757167904220853
0.0764085194593555
0.0620151448542681
0.0832174221197592
0.0630423239055376
0.0837766747912712
0.0721732241707676
0.0741671834867347
0.0615904352775079
0.0694429122673648
0.0685835701357886
0.0810944076432668
0.0638184360688339
0.0659059342709575
0.0676686000646096
0.0869983396755596
0.0647534093812785
0.0800819517019636
0.0654278495212108
0.0721562438768561
0.070384915943499
0.0855626513971249
0.0599147994277366
0.0762864297257864
0.073279217683719
0.0867641516573188
0.0650588732786455
0.0812904285117151
0.0721672549856305
0.0774603313546881
0.0586481349160597
0.0795377930268329
0.0652293079431336
0.0776435399129809
0.0641009416385593
0.0853453442286109
0.0763260963995306
0.074267254649548
0.0654353611448141
0.0825658735641914
0.074810864747527
0.0803003524590808
0.0692486120188264
0.0841517296806198
0.0669272584586779
0.070467154137402
0.0684882328548822
0.078609953529865
0.0771693971071587
0.0872678015443026
0.0710338729890827
0.099575016715177
0.0743583723052611
0.0806609276921824
0.0712742154714166
0.0753961077586482
0.0868254468802225
0.0972574097036313
0.0710060262425582
0.0805237564623305
0.0612843175769986
0.086325988736145
0.0562273055927681
0.072877683091415
0.0638025723779155
0.0854036734233648
0.0600260629801158
0.0989372188615758
0.07863819954549
0.0800759827292093
0.0811408029402018
0.079275324825383
0.0675223431364654
0.0844984376521623
0.0578718837582799
0.0976595475637433
0.0726595830252802
0.0896797336993655
0.0706841744155129
0.0735654200341571
0.0666466465354351
0.0901200273844357
0.0572397992034352
0.0907243152658337
0.0876532577526737
0.0925016328403296
0.0625087946189519
0.0803824715913527
0.0624311914584802
0.0729231959126562
0.0624864788870983
0.0817524671986162
0.0591743017735127
0.085636985830964
0.0575134884205245
0.0857005507035205
0.0699176315365775
0.0915221743839445
0.117320860683331
0.0709876931053563
0.132653305387084
0.0780709659655435
0.0701575856503714
0.128134179489212
0.0678580620910912
0.0813429129560362
0.0560750408950023
0.0828975026688792
0.0629084967781758
0.0907671659053503
0.0506788313856972
0.111910921930074
0.090658630865077
0.08247872673871
0.0629356544883091
0.0786620465550981
0.0579520670397142
0.123715678840947
0.100024798646697
0.0741510865547943
0.0837666608584019
0.0804002404853913
0.0535514147911792
0.121773354542917
0.0935992498611513
0.0733459270045607
0.0701042459094735
0.0691421460793101
0.0571664854139422
0.0710534045644271
0.112832560265286
0.0724563340405305
0.0746209091924628
0.0787501151119434
0.0930305829086234
0.134676967571106
0.0741885745705041
0.0801419709554288
0.0584745207786283
0.0864734341238706
0.104325808712444
0.0904450678023485
0.0624672753708705
0.0973906145338247
0.082362898943358
0.0676073554599183
0.0657595068409241
0.0772209706383467
0.0930898624994632
0.0922985443976144
0.0376988990470635
0.15128482982542
0.126868777140349
0.0855132633138275
0.136343215057376
0.0609033488822138
0.0846255849195407
0.0664121707426736
0.0704158409100696
0.0620678461706746
0.0654303504909433
0.0560430504823524
0.0876796126875699
0.107150541816466
0.067356888303919
0.0805439107201497
0.10162871784583
0.0989896039930761
0.0574391834907932
0.152235195838144
0.0733842909656286
0.0741715165148128
0.111238012980546
0.0798492702227259
0.0596302198347833
0.0869460062716376
0.0934959834582943
0.0734773068753546
0.0665163956161361
0.0668634093815194
0.0754242317723041
0.0857001453868247
0.0749639586539249
0.0739405852404377
0.0662493054714388
0.0636703959071201
0.0980847256891472
0.124536550190694
0.103143548482563
0.0729581812234526
0.0754036143879056
0.042782452469812
0.106907689171767
0.107280406080144
0.0663423047216536
0.0746701736959595
0.0558765371158523
0.0620694541890971
0.0647571723835997
0.0662808874865719
0.0602780188658878
0.0598871315471445
0.125573640360243
0.0849084395513165
0.0703271327182479
0.0665674097728258
0.0776869955107912
0.0798934080193238
0.120907442196536
0.104106007418467
0.0690124101273574
0.0743691333606871
0.0650160980496952
0.0920815482191258
0.0764403153732441
0.067687089625921
0.0572716307097971
0.0651415226817611
0.0610744071786702
0.064718790960527
0.0593847265452434
0.0715778258524282
0.0691077897486837
0.0718805161233441
0.0637788849759695
0.0677530369435474
0.0681907093719768
0.0681359295602613
0.0595956842520082
0.0693150790862877
0.0513354998145059
0.0832435783135221
0.0954877233989586
0.0725255336139413
0.0719470775035176
0.0619109861342784
0.068787312872115
0.0673152860603982
0.0663783167967515
0.0605551466332554
0.0675627211612094
0.0633717747504567
0.109325353654544
0.0665727770535563
0.0745529830646553
0.0537497168100962
0.0890062368235473
0.0825294516337681
0.0675234826820741
0.0710445181592667
0.0675138743785314
0.0677383196446147
0.0697414611072955
0.113583755265407
0.0739608256922489
0.0724699660903473
0.0914401090526719
0.0807012431428483
0.0630522740812253
0.0870865083846772
0.0501662839252508
0.146554251414654
0.0969726703767418
0.0911790950349358
0.13869388472644
0.0940803373181178
0.0809304931935784
0.0786591775488256
0.0388962176637714
0.184995393305823
0.114061251274106
0.0795615176495186
0.0722712144409884
0.0962808419575082
0.0630119639900297
0.0822675967184944
0.0769492774269296
0.098379343639841
0.109407578132831
0.12945941348748
0.141791739765393
0.0593686066505856
0.112072305196201
0.104772333754218
0.0747152812811075
0.0762992493973848
0.0680521885376431
0.0708042678204967
0.0862221490854899
0.095768300122717
0.0785920714510561
0.0866505561554854
0.0703995116994889
0.110228592936923
0.0748578731748439
0.0753975372017333
0.0732581534304177
0.0959283091320807
0.0606385472759173
0.0836542585727181
0.0676242950671056
0.0956075724088345
0.0698660003647954
0.0774054426407723
0.129323740736157
0.0974034938877953
0.0746684739536857
0.118780002277151
0.0725337523670939
0.0763681792108314
0.0642153265547209
0.0778582466769104
0.0638410268839075
0.0703076543620422
0.0664281247630616
0.10710711169282
0.0737728662961421
0.0785668195826213
0.0738436982878783
0.0731703672956574
0.0731906886032283
0.0810496699374056
0.074292444227515
0.0779585201762868
0.0750588417908966
0.0799867159905699
0.0997235106214462
0.117265496916743
0.0649586670547478
0.127633085680232
0.108476996255698
0.0842386482571399
0.0782322361094628
0.0727317360075909
0.0796103501189266
0.0790702107270318
0.0808981629343818
0.0784403111713638
0.0832364075947118
0.0982006564864223
0.0854865198145883
0.0890039843584668
0.097970343768213
0.154403988564093
0.165123825712494
0.100074049878076
0.0943743724157648
0.0795588550422512
0.12229563855841
0.135824506002573
0.107429029223321
0.127493791987904
0.086059299162136
0.106141261727038
0.0795146515466571
0.0986196462022276
0.0814233314945951
0.101773828515768
0.0866350285603495
0.100506421291661
0.092075102833511
0.102603653672128
0.0970440786269534
0.117241203536332
0.135412282294918
0.119354301581075
0.0963720880700355
0.113313207536921
0.0963341891997564
0.156154724816522
0.152177203908629
0.169357259182613
0.156210649227442
0.135520420613763
0.165823959051556
0.131961995838863
0.12448592978496
0.116189307841744
0.127091423619331
0.131512386407317
0.126855622926305
0.131296894820232
0.128576767401294
0.135904803527953
0.13659491467296
0.132909716029605
0.141929672564905
0.138569210166093
0.172990570339044
0.149573357520946
0.14273787882545
0.145141806259322
0.175259930202338
0.219909530611529
0.186043985032803
0.167076514950326
0.164179802363032
0.169341324089509
0.153765951606184
0.170619664169852
0.158366416206236
0.188698448407207
0.183347368824405
0.220869844315458
0.200490755648373
0.200475455213179
0.197934981370727
0.183640002255701
0.207994990549104
0.19797333676563
0.208589134348066
0.233678511586764
0.193895647912055
0.194804166310988
0.224963161970537
0.234008657131193
0.207171422589967
0.241946189313842
0.195717189857575
0.218927067174315
0.209316529091342
0.225680430049186
0.218334842384507
0.238798545957152
0.229671913105407
0.227913493668832
0.229421800139671
0.236672252336859
0.24304931156022
0.270373961449792
0.253547644180323
0.253505700516995
0.260486626813665
0.251089356876201
0.254579387256716
0.251409225445824
0.292909275286661
0.307092531381412
0.278824732745124
0.325457276065123
0.274456341320642
0.286921059243785
0.276189153657056
0.295071233817962
0.284369703850968
0.294164464041009
0.300154602488555
0.303868380405781
0.290751939807361
0.321853592017118
0.30314703379324
0.318111264692781
0.318384277636221
0.327025832161905
0.323926636210689
0.340427455913667
0.342620193382813
0.336447480973601
0.380727374485017
0.408047229505051
0.37757736084408
0.399408875667994
0.345402344944773
0.355436446597147
0.359326479036014
0.376433760756075
0.377899638638241
0.402291737854173
0.363711599359961
0.386768605710708
0.393034213266298
0.409918897120117
0.3939697750276
0.406686207437557
0.402743026923028
0.420504004468673
0.416830939150482
0.43647730608352
0.414670445461997
0.406849395251107
0.425995358037294
0.463969689645016
0.43017537270191
0.468880579728063
0.442608076860168
0.437010582493393
0.470317508227601
0.47182442553918
0.465097447939031
0.477720993080772
0.464745652068903
0.465332816375494
0.463024310668221
0.49511104691731
0.491565027226581
0.499420150625069
0.49354327224295
0.511635191922673
0.506697129164032
0.530940028707344
0.527439942780171
0.541177956768809
0.523507260011726
0.554653939101587
0.538450245295855
0.54051381672127
0.527237871081521
0.547503118313188
0.563934873456083
0.588332371435002
0.562688383815814
0.572434599620781
0.57237386324291
0.61276360716151
0.585051154819309
0.591590149668465
0.604019310462529
0.607875751014696
0.599756132035476
0.615277214929666
0.63312087000958
0.656388357809622
0.618313378437727
0.641667781093813
0.645272977265014
0.651605011858218
0.632270783831889
0.642824303295726
0.672154493218198
0.672509917629603
0.670413524833663
0.698184354602904
0.680731577101256
0.666499656207671
0.667001981133414
0.700386594254923
0.661307630926609
0.683693131265185
0.728163794583235
0.723772664389125
0.689542942775741
0.737616414920509
0.715606248472417
0.722078970827385
0.714760747280935
0.757208698107502
0.739144941249621
0.724497978757361
0.769574213237187
0.756469690111375
0.760510792088479
0.763933279972514
0.761109009479366
0.777793032566976
0.753134477849609
0.788275566473915
0.791230116632581
0.810750483929585
0.798684292896296
0.803383204858344
0.791245611727155
0.780306377190551
0.78180978706983
0.8031075937195
0.803569533404611
0.803473400228679
0.816837295958311
0.852351436333971
0.881646745411467
0.868293675367521
0.849212213440794
0.911925234604944
0.847594998233126
0.851084179067934
0.890623882047852
0.868166962239005
0.852333384148638
0.897018639996167
0.940847868247152
0.897037971121754
0.938508065248977
0.931595207403483
0.91597401642697
0.929708996776465
0.898180865535924
0.958816771967369
0.94674398230314
0.933850716992627
0.957258309051527
0.953999414662089
0.937393820453021
0.940086064256857
0.93951156549786
0.960374399373475
0.945538210116032
0.95875116074693
0.934073386114232
0.9496340310461
0.910111219672748
0.932636748969698
0.996754209914343
1.01422031789801
1.07294702582989
1.11909341631416
1.10639803173973
1.00270520969659
0.995497671859899
1.02433641281506
1.02096057495049
1.03445432649077
1.07918305246184
1.10454827183642
1.07135482007918
1.06208047330929
1.0466795358621
1.04883659541848
1.05763158349467
1.0476512399342
1.07443758582583
1.0865468897332
1.11877854079645
1.05104752612439
1.05851076683599
1.04593509254803
1.00475068221906
1.11783467356679
1.09204353967637
1.1221138583922
1.14716248237469
1.08416823960483
1.08895361004203
1.10887130706851
1.1206070958618
1.11325010782097
1.10209383349884
1.07473455302043
1.12981196692016
1.15328790471185
1.14115342813467
1.16336204698856
1.23838492328733
1.22334141993781
1.17531624212025
1.11922877802326
1.16198747142751
1.12581216271159
1.13764010088776
1.15955835641118
1.19799372232929
1.23911121055254
1.25602309414886
1.18726819413499
1.17246140191181
1.19024926261768
1.25205833947335
1.16914115788871
1.19265413789674
1.16387555821113
1.20142019429422
1.17839320619514
1.18114532708278
1.22782925387744
1.20645788005576
1.17255471705403
1.24215506578937
1.21255299740523
1.19953059344504
1.1716953104835
1.26072974746318
1.14945127529772
1.13803231581398
1.18913996399404
1.23847233590559
1.22565217412363
1.3348036921862
1.30138581292063
1.3410842665111
1.3472016061447
1.27993302550885
1.24450695798956
1.20977172025785
1.19772082083468
1.29671566584418
1.24527067540052
1.31347813825999
1.31903934382403
1.25060032218886
1.29249084428247
1.39244823853167
1.25796649982414
1.20872112397603
1.18453172796502
1.23689704178803
1.26579185308518
1.21480884110896
1.21472849837912
1.25304522576323
1.23690224043161
1.25831358688233
1.22573884848482
1.38902293556621
1.30930660595281
1.32165820980999
1.26771041228854
1.23388725770448
1.26646064163099
1.33466635833237
1.28207620436715
1.24687907851524
1.20396924253366
1.24443257854383
1.34032319769256
1.34367424975549
1.23807868131218
1.27167192775243
1.29581163161982
1.31468349144063
1.27790116713149
1.30909396189067
1.28522406611262
1.28891622266997
1.24008241617898
1.28143612786132
1.20867197914793
1.2733537627451
1.28759004478017
1.21919968108849
1.26600083526797
1.30899313830592
1.25426719767011
1.26536355311763
1.28027565244325
1.33591671220922
1.26265043399203
1.26011689497833
1.22606411642872
1.18941627360392
1.23973952369748
1.30061590556364
1.3095076956593
1.35998815918197
1.24723281861665
1.30358095443077
1.2359149318876
1.23161963392532
1.19862779793586
1.27146196644411
1.30311683705394
1.29139422216669
1.21065158335884
1.22901562287683
1.18595685270944
1.20134761632563
1.22218202351226
1.26249752587992
1.27674803031626
1.36188702128077
1.26797479044211
1.24956852102561
1.22431127787867
1.24757083522936
1.24923910302814
1.20754475107988
1.24707697121883
1.41152397226806
1.25362076096417
1.28198081434654
1.27707648086947
1.22100895226907
1.20648315145018
1.23251177019671
1.23221508912403
1.24491283778507
1.14871760788516
1.25247678821343
1.18133957495014
1.23023848381274
1.19566770804355
1.23416505262093
1.20632558159508
1.2412157811156
1.24293115784305
1.28708651711378
1.20562154080473
1.20049570000226
1.23230208381786
1.24981532492744
1.15957751648899
1.19520566501586
1.21253629811243
1.20821395832111
1.12212463606019
1.20008865255734
1.22833699251882
1.17580321532654
1.18962857638263
1.19349226008804
1.13283756403146
1.17167780552998
1.16849675817841
1.19413162868326
1.14612555262628
1.15095508497046
1.08675311761309
1.15361628345294
1.16089705530446
1.16862645819795
1.14972249706915
1.11445109456515
1.0977325244839
1.10211535090458
1.0730017007518
1.15801988286419
1.14247303526985
1.13093195073628
1.07837459272648
1.05159141576833
1.07141223409045
1.12762434684591
1.10630680119948
1.10411240854996
1.1326112058805
1.16525229425418
1.08932187541473
1.08413999871744
1.03608922760082
1.1020707446264
1.09618376658758
1.08737212688092
1.06090301532705
1.08446798436162
1.05366639259669
1.07766835431505
1.06461890173258
1.05857775472686
1.05986018028511
1.03722541562524
1.00665460909942
1.06614205910581
1.03608355604689
1.03323195640367
0.990451301672467
1.06153608863627
1.05097608714517
1.05395807149061
1.01926677170071
1.0266350959696
0.982926700145401
1.01909289936142
0.974737550992119
0.972717957428823
0.961445835016688
1.01369428009011
0.99349431989737
0.97106374114828
0.947804933700994
0.978744694131936
0.954327214130983
0.959087589929482
0.941347845599994
0.945171893698477
0.962127708143611
0.951481755766801
0.930131681664751
0.933220696002256
0.941040505611007
0.932893686116785
0.899894724264646
0.906815429911634
0.884998879629751
0.92164054822951
0.893877479060192
0.913556448693954
0.919246605094224
0.894523024010488
0.862678887916618
0.901966306591648
0.922322883792634
0.887809527717103
0.872570758731083
0.876559713782223
0.871571037910964
0.846273840566383
0.84245494679489
0.849919475597845
0.831118419503399
0.853064365561027
0.817396013577449
0.836486626381922
0.816437831591853
0.825795380808451
0.827158378512613
0.833201665470613
0.812142567508629
0.820194479995855
0.795507153852025
0.812220285506437
0.783664874630407
0.793413481747573
0.771040505688017
0.795422331047856
0.778292503854377
0.767004675337551
0.773033559749198
0.768544841056968
0.738885793649447
0.761388455739191
0.761266224753949
0.77771328893886
0.727674696700643
0.746757934764113
0.739030505261436
0.731452407083761
0.731319034730669
0.722752444493994
0.709949529243899
0.726875916363407
0.696547159867618
0.730149550284337
0.718911050252517
0.692676569577219
0.692116498450375
0.709132258500544
0.673010341978179
0.684860354232732
0.677934061793459
0.684514294140735
0.673955498354812
0.666370511424394
0.656054879483265
0.671984850502615
0.660843561225772
0.650344046469467
0.64914744814525
0.646833883192868
0.63624423083953
0.640318325389924
0.642032083079278
0.642551012217005
0.627277703158097
0.626483089905358
0.612649855336182
0.623519615620822
0.608214995594195
0.61776229121175
0.61477059533058
0.610404980864556
0.594826135701062
0.599768153961284
0.596700219781199
0.607138556650795
0.581574368759994
0.580311183219291
0.570672859972355
0.572826804035744
0.573299162178319
0.577324916656027
0.55711181734608
0.567085041514446
0.570226852341962
0.558745287218332
0.562267547228672
0.562977174831786
0.53991314104769
0.543256542629987
0.535995860909049
0.543314948637911
0.542165645631995
0.534684148278795
0.521905171357134
0.528528322885052
0.524001104319607
0.529394737959779
0.50617834795427
0.511069350203784
0.503170922124514
0.512366557858796
0.499523308502907
0.498231257252896
0.493091016082743
0.500170669971141
0.489435337625594
0.494056868267183
0.493102632541941
0.489168942639004
0.482968189507238
0.483441523417657
0.473582808014702
0.473364970552388
0.465424937152808
0.469915086766861
0.478204456955263
0.466655112774928
0.459693507502052
0.464781998746828
0.448376034487935
0.458278509276197
0.443892531384013
0.453863700937697
0.443143405472085
0.441021781655946
0.444164024423138
0.440139255360111
0.436075187870649
0.43486585771723
0.428167504383641
0.433195642204091
0.422274307931084
0.425337284801469
0.423842328539567
0.427180426238204
0.409087796908669
0.409600249763135
0.414598733002379
0.40980004405148
0.407008010079389
0.407965691959111
0.405243807386331
0.406957582642116
0.395681731141454
0.394500809864327
0.387859524420813
0.390834775334481
0.389638056109375
0.388356258002848
0.385395119852206
0.386204825576345
0.37937560156981
0.383373744310018
0.370978363291867
0.374020778326268
0.364304179267631
0.369937120426086
0.368412265201299
0.368038998441049
0.369150057018914
0.36563678511142
0.360273116839411
0.364914313366086
0.353861354057604
0.355346235801673
0.341632247319069
0.350902497563911
0.353617959627757
0.353247063338936
0.340263717527637
0.336868782974581
0.342404955662557
0.345325833119597
0.329893077778637
0.334067677732493
0.334318806842073
0.339495638018263
0.331458486092311
0.33327477556822
0.33540922577503
0.330438456833054
0.325659239565515
0.330721844216908
0.316773272936811
0.330130959758932
0.32562008192765
0.325473798206837
0.32394440542805
0.324220066739621
0.320947048919401
0.323652898178394
0.320412663765542
0.315407201479871
0.313630852126799
0.316770473530029
0.306600120472877
0.317392290383506
0.312737291388999
0.316853291362766
0.316087399864049
0.318688349123087
0.321349869552204
0.31643242576787
0.313609271420938
0.315484150269067
0.31776561188723
0.327798131716122
0.314852671374572
0.315873546388404
0.328171326787672
0.317927764359072
0.326905521993957
0.333379606231491
0.328108074412322
0.32420612263112
0.32765203749406
0.335492091017194
0.326488674861548
0.336670999859099
0.333109861594859
0.339314001617597
0.338325482055242
0.348270708274832
0.335468400435214
0.34172979681178
0.346998802300055
0.351911699341491
0.344261991740536
0.355816116639863
0.353423674426334
0.363732023650619
0.355163336379612
0.359068518061906
0.36092184231494
0.361089326219644
0.361184850058058
0.368716723800678
0.368449526378567
0.371579986889559
0.373824374275488
0.383490679467863
0.381556535365394
0.390423167282589
0.384932374877716
0.390921104955268
0.396427873213341
0.402197951376363
0.400226416955934
0.405505679100935
0.395417830025071
0.410765988666873
0.408332969150553
0.415190622107273
0.418330121897623
0.424589455279011
0.423521164208614
0.437167471184037
0.432827605458106
0.44138717212485
0.43517367694754
0.448173875432594
0.452185491551666
0.454532793385603
0.446761754972087
0.456003999318925
0.453870497646856
0.461397216745317
0.452682523222594
0.456122941731911
0.460643560060339
0.460172446975098
0.460246873877237
0.467168562509173
0.462468548957021
0.450412940740824
0.456210429615978
0.454374194693305
0.454674742583752
0.451914526627048
0.452756634940719
0.459873979697591
0.447582250925584
0.459884189066178
0.442397706495581
0.445946582911183
0.442984263223571
0.45279128499523
0.440735695689469
0.447142985167074
0.445514133545622
0.443308801362418
0.443163065226621
0.449583623841106
0.446000857277352
0.445806975663856
0.447137287367568
0.450457245637139
0.446571412580818
0.456926434119581
0.438491889051917
0.455064669306759
0.439890983090588
0.458281109090957
0.449708412354162
0.442348789305749
0.442609946731535
0.445960594050993
0.448691870307268
0.452945042845013
0.453705712933095
0.448207168859704
0.44523605303175
0.437896825311068
0.448240237808474
0.451855538250485
0.438688174735015
0.440276734539782
0.442140076151548
0.441999831867311
0.438113714821662
0.435957486936451
0.430140913692744
0.443109665910469
0.429692846982698
0.435109226244447
0.435559913494081
0.424951120975551
0.426971654117097
0.425121242897854
0.424308548463516
0.420536981739914
0.413898883330964
0.414938850638572
0.417565278132206
0.412596802656354
0.40424347684441
0.411240979211621
0.39955571871661
0.391751660579048
0.391263016825052
0.384904982344272
0.378573155965809
0.383841846849228
0.37782114994199
0.376765716685318
0.371144346832618
0.374035244144693
0.367425607853295
0.365380622825992
0.355063359417379
0.35638773045067
0.349335930445338
0.35178251800777
0.345003335630561
0.343237642240524
0.342602335253774
0.337490879852077
0.33633115107733
0.33049203953377
0.322782915718203
0.325834532823792
0.321133688026852
0.321288759789284
0.322773779336848
0.320767578664714
0.318655251212261
0.302975670604921
0.310109004407861
0.303701623716138
0.303214745757154
0.30443146045205
0.30298292131031
0.300452818162683
0.297671590184347
0.29349709198991
0.289923623104759
0.30103738763253
0.289817391894191
0.286906155636402
0.283131350673123
0.284160740845896
0.285312146599358
0.284805533093595
0.281277634595518
0.284740397091002
0.276573008895592
0.277170067805751
0.273619503862282
0.271469110102477
0.269949156332881
0.274531544672544
0.268847587165311
0.271654718865285
0.26471652970005
0.263255807486281
0.261300397278238
0.261084615100803
0.260328411193343
0.260308593929637
0.258684961239715
0.256151883398575
0.2552120512669
0.252979069200037
0.254218158259592
0.256587764745209
0.247104087237541
0.251802667824983
0.252364613432868
0.247984548972981
0.246184824043984
0.246911881764727
0.243777654091254
0.241695985596398
0.24168191740701
0.242594110298432
0.238847279939218
0.237317689763845
0.2354197123239
0.23887824263684
0.235128535614811
0.23509050305528
0.231071855671455
0.23358201392528
0.233014244630931
0.234670152056705
0.235651036976044
0.231821817693672
0.228941324875809
0.233782360977768
0.228629989290601
0.228601425661064
0.224763396018352
0.225259033491749
0.22678798430372
0.225955458808197
0.224387122736143
0.22412663075376
0.221992898189514
0.221197505759306
0.217978004374058
0.221253230536206
0.221699951663388
0.218302462225552
0.221133542627809
0.21330211155359
0.217304546749445
0.210140776932084
0.213845979083798
0.218626425620284
0.216587610213208
0.213817020716123
0.213340614057035
0.215386266014057
0.207992367623129
0.212268471940089
0.209808301878147
0.213717621302756
0.21028642708848
0.206445448738368
0.212376878744039
0.206512944456562
0.201994613806172
0.207170591251475
0.207342903497348
0.207769244972648
0.204985468747161
0.203996085807629
0.206193537269802
0.20210689080267
0.199173816707239
0.203327895156975
0.202215205838648
0.20258034167409
0.201551290887837
0.203399124827156
0.204611887745457
0.20111568713458
0.202587683651866
0.198956543131018
0.199518069995512
0.196168008320581
0.194759230899002
0.19893453759907
0.195671407955593
0.194180755621337
0.199661650799134
0.198358703801484
0.198985565615262
0.194302774209002
0.194422478542474
0.1980800566124
0.204132563730807
0.193349835058692
0.192297025095998
0.19800972048277
0.190698706912284
0.193488408726857
0.194815957320382
0.192867444657372
0.191165721413029
0.18861120569458
0.19238898581943
0.189785271936862
0.186624472793995
0.188370713108526
0.187849824277771
0.185049208503779
0.185951350653878
0.189714311105752
0.186712248935556
0.186030273372286
0.184042767103198
0.18279996995319
0.184852988173586
0.18656225047465
0.182129497049886
0.183390595070656
0.179788919002479
0.179695035160564
0.181904222242852
0.181633878123693
0.180262791610124
0.181974859526865
0.176918337532589
0.176319067394056
0.180970540385143
0.175489470636635
0.174968369743394
0.177587468158219
0.175299829164803
0.174012236185027
0.176807804757068
0.178233425317969
0.173727472070273
0.171959202094072
0.172194079667739
0.171333427280014
0.172920674518065
0.17188755391762
0.171095677896142
0.168102647158265
0.165555309403155
0.164067750897626
0.167982086914481
0.167230401011277
0.16667815326544
0.166754752410112
0.163647749891797
0.16584195474398
0.168627801317583
0.165027866219333
0.163942854112586
0.163839225860183
0.16471257233828
0.157165575471222
0.160378651394268
0.159080818487017
0.158783937122722
0.157868744571
0.15783562643134
0.160481377224063
0.157231249113491
0.159191743486328
0.156480908512732
0.155087543400339
0.154475867203564
0.153181196095921
0.157191515005147
0.150584285755055
0.149963620336528
0.150385184037614
0.149318250406471
0.148113769561741
0.148243368100129
0.146839833902098
0.146307913653085
0.145443886883307
0.146174032933988
0.142398639456247
0.143045726663985
0.142649776651839
0.142808324382766
0.142188833090248
0.14302412654591
0.137326665760349
0.140358480685625
0.135919495752188
0.142060301033842
0.134574513339912
0.141361330169364
0.134973974189603
0.138497178660412
0.134415626186006
0.134750010097399
0.131456158433324
0.13503695183017
0.137161149131208
0.135425110763652
0.130141576101782
0.132836925070818
0.131714554889442
0.130201697037057
0.129515115163002
0.128237993729768
0.128926757548524
0.129586337960206
0.125716083058343
0.128417577728431
0.126952930419078
0.125806479978299
0.123625840935107
0.127666375156073
0.128310055017534
0.124842311755296
0.124576367335571
0.12601299720014
0.12462549544259
0.126926452664337
0.12220055506565
0.123008016000712
0.123521622117042
0.124598620045256
0.120761319936104
0.122697269544247
0.119809416767253
0.122138874997238
0.120378461977547
0.123705080723483
0.11903732003902
0.120524858964847
0.119934503826745
0.118195261755345
0.116548071637413
0.120290609898325
0.115005927199344
0.117769274284158
0.115645725064319
0.115917383036889
0.11228687563338
0.112359781543085
0.112611347225238
0.116773274196427
0.116418496736402
0.114132872050812
0.112903029514107
0.114912460565828
0.113783026926299
0.114646970401262
0.114649608992261
0.111876753859062
0.110239419579275
0.113755845278488
0.107242352241316
0.11211732145396
0.107921414853218
0.11083416175707
0.109372548577907
0.109984257085843
0.111598815359206
0.110992276796849
0.108521936682667
0.109789921841874
0.10835430611501
0.111754752096754
0.110529209890395
0.106403685291203
0.10805554188787
0.110891266120401
0.107029684584039
0.110983559650106
0.110932409152745
0.107171732517866
0.104938639702324
0.104935987058513
0.106532057493152
0.106350049412198
0.106710043831534
0.107308619425526
0.104843080128897
0.106995697193452
0.105719479704935
0.105065265004637
0.106778048378968
0.103774168197227
0.10158401545342
0.105336514908121
0.103268878453949
0.101851237125743
0.103737426390931
0.103175795386038
0.102242505627632
0.104329173649152
0.10205324248058
0.101709816710959
0.0994775788695697
0.103837200828883
0.100431054475393
0.104672155875461
0.0993040870267106
0.101188818735308
0.0972372587345667
0.104802703913856
0.0981256833223838
0.098771665883063
0.0964137516016139
0.0987620075496235
0.0971376279892484
0.0999891418695793
0.0966572356369115
0.0977909031439253
0.0974991949482926
0.0971904679471424
0.0965715382296887
0.0963899188954875
0.0941726701218414
0.0986239043599583
0.0994038450916942
0.0952405422715126
0.0967337586042658
0.0960839402992595
0.0941256702747233
0.097488502809747
0.0962349428543457
0.0967261812770161
0.0914473149620404
0.0915744280186492
0.0953081885089715
0.0943523690146005
0.0929895943974802
0.0937354835288243
0.0919176076898007
0.096439999555264
0.0915950235366413
0.0948744619032751
0.0926851668135655
0.0951655060836731
0.0917923305924912
0.0937027360893698
0.0932258575994021
0.0930113792968295
0.0889389459395545
0.0942875399627685
0.0903588146809304
0.0925929899015776
0.0878128865341209
0.0916637506137154
0.0886749796731078
0.093001754488111
0.0880602962130707
0.088179895388045
0.0878462263906159
0.0892090512165388
0.0872872521476838
0.088800055979749
0.0848717526652813
0.0891365847852528
0.0868647493926291
0.0866290703913438
0.0846046927220489
0.0861810104915279
0.0855110831196296
0.0866963272778242
0.0813770641005585
0.083449231409477
0.0844829595999851
0.0883583891146746
0.0832804363546568
0.0845165889733901
0.0824369789440885
0.0847594776662179
0.083003576561239
0.0840135980083059
0.0795894983144581
0.0830384530125902
0.0798256742891342
0.0793260519209257
0.0776342035230125
0.0818553390719488
0.0790527388506302
0.0801756437400998
0.081090329983351
0.0796065049780295
0.0764889769747265
0.0801840524719132
0.0800958108756595
0.0790024019755072
0.0761078043127666
0.0788746019176092
0.0750613054874417
0.0790876491424352
0.0765815273813464
0.0773000693014719
0.0744409825155884
0.078214211456807
0.0762828760881461
0.0769563208069323
0.074380102557488
0.0787334674755
0.0760260399328675
0.0761047496218741
0.074146941632932
0.0747695589169768
0.0737018237455455
0.0743545717921345
0.0715025749817155
0.0755969506710324
0.0695810827030534
0.0725842415096682
0.0733202148126718
0.072342082263174
0.0679382791335014
0.0735629527584165
0.0696890338045176
0.0725044455733094
0.0696488579598975
0.073100103603169
0.069437479140981
0.0722991276744302
0.068224405424037
0.0715791421520317
0.0672553846153963
0.0705029935955428
0.0666405137330325
0.0671724366207149
0.0677527711565626
0.0728761780657489
0.068459055658865
0.0675533183264167
0.0641586846026086
0.0665220415317776
0.0640868580761752
0.0692005706501942
0.0633943255323689
0.0670526162717787
0.0654622604407407
0.0687028011791046
0.0648859069978761
0.067746160415262
0.0642661799934949
0.0654264022280404
0.0639105422375817
0.0648969676084263
0.0620807594750052
0.0651129400929774
0.0639355327543568
0.0675733604945778
0.0639662950581924
0.0668071582013168
0.0605464351575035
0.06616707077702
0.0636279773948865
0.0652543226552057
0.0627960802039092
0.0659806925178935
0.0641527808565597
0.0674753142831001
0.0630707499043219
0.0676346977765818
0.0630309781476164
0.068689216173098
0.0610250072343385
0.0683790655915118
0.0638126625302663
0.0692605844231603
0.0637254088286204
0.0686571649381991
0.0611869350276295
0.0658812440344208
0.060769467310166
0.0605472178443179
0.0534477308272681
0.0636177140731157
0.0569379247822086
0.0649880065770793
0.055566881697596
0.0615835183736032
0.0608924938809488
0.066538599534037
0.0514301696003815
0.0660968380003124
0.0558011575203528
0.0618677964874092
0.0541324723656226
0.0598754455654024
0.0520009944409658
0.0651333645917884
0.0540436485818116
0.0624483838618153
0.0550946311230851
0.0706644178392195
0.0548323366877388
0.0681167197931692
0.0505925666535884
0.0699140276688022
0.0493164559050121
0.0675302428187757
0.0494012150847907
0.0614952180247247
0.0487053553545793
0.0641038866434238
0.0484150960772423
0.0645904125100014
0.0497871722263004
0.0646902496536758
0.0479479514706571
0.0657391858198907
0.0462318092883428
0.0615926728495779
0.0483310271831738
0.0611296028218487
0.0553864357725809
0.0658972734783682
0.0586628410136607
0.0547051140104861
0.0584598364603082
0.0508509536496726
0.0693037574934924
0.0480976333585817
0.0669527297716798
0.0374894337817397
0.0834204727329279
0.035835241821689
0.0867214224737358
0.0270210517212885
0.0940684786298388
0.0295522747112322
0.0918044468348553
0.032003333586808
0.0895424443444404
0.0357938895681221
0.0786863869605069
0.0475468160669706
0.0677596912688881
0.0540359370367371
0.062190541508582
0.0598288387712661
0.0575500482858926
0.0627956690637709
0.0555259002826538
0.0589929462447379
0.0571206471741822
0.0548932979324752
0.0624506418478873
0.0500428173211698
0.0629786764810457
0.0527393646738135
0.0618655422532724
0.0541197011568571
0.0582710411111945
0.0530546530642486
0.0580054329485585
0.0561412680896299
0.0554772056789632
0.0542199855245654
0.0555428466685637
0.0525793430280842
0.0591405987418168
0.0550934323940504
0.0575083893547315
0.0538269616706791
0.0561991843156074
0.0546434735848682
0.0569906747515981
0.0530299535587721
0.0564580134744475
0.0536319202494545
0.0554803893016362
0.0516844517211289
0.0549081805201154
0.0544769338914565
0.0560402938729347
0.0515433244366392
0.0551135545730071
0.0541172124655346
0.0560606433246808
0.0537888427686687
0.0565435434018161
0.0546802197661376
0.0584872214069979
0.053550824958284
0.0582232256685521
0.0524764734580023
0.0543114446252733
0.0551762934215173
0.0550178161608408
0.0534263806370238
0.056242049671393
0.051881399137877
0.0558593176999777
0.055621823166847
0.0570380416029071
0.0537852981750715
0.0557609714835126
0.0539855990410588
0.0542843519073909
0.0542584806620152
0.0552291204668971
0.0542366104086933
0.0555069391533908
0.0551493511414342
0.055485934230428
0.0564320769300287
0.0538509030173051
0.0540785236038898
0.0556374978209211
0.0532266162117939
0.0537267138814646
0.0556735001246547
0.0528581145102244
0.0520748218559644
0.0555932039653307
0.0549601770155876
0.0547479924320372
0.0550239886566033
0.0546045524772073
0.0551794721959386
0.0552639815681238
0.056207304826349
0.0545250767074867
0.054026328112425
0.0551711294559937
0.0570088931709822
0.0536995251887205
0.0536884104274471
0.0545597666834888
0.05420640783285
0.0547084064487727
0.0570244135152946
0.0553473062514337
0.0561817439067067
0.0566808041038296
0.0561302346932073
0.0543905084302202
0.0557974047814385
0.0552507741319623
0.0568846352841828
0.0562026065071092
0.0573154062166539
0.0566603317458558
0.0538487110166361
0.0553284900120764
0.0568662801859529
0.0557601166551364
0.0565940848157507
0.0556003704245319
0.0569669345140392
0.0569273553461289
0.0565491019480554
0.0578882669052416
0.0573163294729763
0.0567160405513043
0.0565701047143736
0.0556043348965859
0.0553402082331399
0.0563030170972255
0.0571006123169766
0.0537935807943052
0.0577781933266936
0.0586185153111143
0.0555732889823544
0.0573154492804768
0.0568785455929089
0.0553202793214209
0.0573563159765028
0.0585430795744741
0.0566724576312214
0.0571502236233527
0.0563475662555902
0.0568499279682045
0.0577111628575504
0.056715568179414
0.0586706736171858
0.0569631087733727
0.0577529118089704
0.0579799400758631
0.0579288656024714
0.0575695101606169
0.056795076804334
0.0572862489086748
0.05794574232998
0.0576587642962393
0.0586109434013147
0.0577670014172551
0.0576187781588689
0.0584394378843392
0.0590234800005426
0.0576382859625146
0.0581900905489262
0.0591138288714893
0.06123304296309
0.0575271722817214
0.060250848566239
0.0602955766309334
0.0614799231796191
0.060007528404721
0.0622427508772722
0.0587828796928962
0.0586116000741005
0.0578559258085777
0.0599694942955969
0.0598193167149936
0.0605865399324431
0.0601374690970913
0.0586320644500835
0.0590044113266445
0.0593929296428028
0.0590698628688498
0.0611684231048158
0.0596150043349047
0.0618620620482456
0.0582784221729185
0.0590724547343004
0.0563076068258836
0.0581188998782066
0.0596811970157035
0.0625792522127236
0.0591313537188118
0.0587564931841545
0.0577558395248418
0.0574521111017007
0.054495658474333
0.059722312037496
0.0576818239697376
0.0594368291769211
0.057299173069111
0.0575844347013897
0.056082660251011
0.0564487108393049
0.0551149645321346
0.0600907694049315
0.0543319393938149
0.0583074974576454
0.0590536234882968
0.0586543125749094
0.0548558505467749
0.0567669292206896
0.0549713210932265
0.0570120468270046
0.0558400549835465
0.0577336982986693
0.0562801273570603
0.0558740179327925
0.0574942991669981
0.0567158497840083
0.0545358677027028
0.0562867664324651
0.0543856234040893
0.0564432577872412
0.0550942393533468
0.0556578838545031
0.0558021105889079
0.0544581031888778
0.0560231076325932
0.0563792729870786
0.0529075195974988
0.0552478246175685
0.0535853671827816
0.0560703895416811
0.0539847422874436
0.0566306631175361
0.0551471040425105
0.0551483960710355
0.053809965449142
0.0563933680735923
0.054777142638953
0.056371606034356
0.053824308480356
0.0536753096933739
0.0568086976114193
0.0563427799402348
0.0535410198909775
0.0551768460784042
0.054035374555575
0.0563918901629154
0.0534464258166434
0.055353231305819
0.0530279385940653
0.0553825339095772
0.0541072188261792
0.0541144437281633
0.0548908276220858
0.0555736177325981
0.0520974883173489
0.0551442366283159
0.0539081770563337
0.0538201210797654
0.052308138952713
0.0550954022553455
0.0539179151776942
0.0555497409862703
0.0531474813769472
0.0533241066907308
0.0557036194209445
0.0552101845018352
0.0514203780172767
0.0550974031839221
0.057209261718595
0.0562684559733691
0.0515823437470806
0.0555573033672316
0.0542832984910134
0.0545150695723341
0.0507202883824793
0.0524947035567117
0.0526275615635156
0.0539702945147138
0.0525547464283067
0.0548853408095517
0.0509125294681457
0.0558446869305599
0.0526944331076906
0.0520007232228695
0.0512899726998504
0.0545729586785996
0.0532552361796825
0.053506869956977
0.0515389606852181
0.052545853351317
0.0519146419732042
0.0531230621293253
0.0505660446082835
0.0537789409614365
0.0552871895031399
0.0518903690436072
0.0493241887692724
0.0519710046023176
0.0501843180510439
0.0525387319871664
0.0497141012870722
0.0509451004545744
0.0490171458169457
0.0519145869254701
0.0502596861177617
0.0498787291299978
0.0497113385447539
0.0534295899015165
0.0480996218775852
0.0497893045757285
0.0513246897108552
0.0512457913203583
0.0494712663816387
0.0505952345844313
0.0488779778993488
0.0502233144123439
0.0480510550272582
0.0502168744975972
0.0495566556052245
0.0522942056385516
0.0526043829481522
0.0530466219244648
0.0448815914049899
0.0480352965323841
0.0461502642852399
0.0513431441231546
0.0452645060775434
0.0472469230077291
0.0455421149037241
0.0467985935459804
0.0463119256007321
0.0473456366420609
0.0441788258409537
0.0487568405145576
0.0444650906376955
0.0466458267176005
0.0451134751762661
0.0475759020572074
0.0439798339072441
0.0471894666571785
0.043453100665288
0.0463088816853157
0.0439193365307105
0.0473968161198637
0.0413917459234792
0.0492643594328277
0.0519084174702318
0.0578417667990302
0.0469559516702606
0.0452766409851424
0.0470766332532038
0.0487310463793394
0.0434532264939324
0.0443083093842628
0.0444908426399311
0.0456539857074914
0.0443094265375769
0.043716775184289
0.0435536976985903
0.0440998766618968
0.0450811817317189
0.046646976846845
0.0435060521437748
0.0440079762093345
0.0430411585611517
0.0467253054384156
0.0439738911872571
0.0438480691467852
0.0424745660538386
0.0440493141403012
0.0435496437132431
0.0448464995496635
0.0455693042629307
0.0531281381775046
0.050608677683692
0.0465012113034685
0.0433502361327754
0.0427404228854752
0.0417806279456831
0.0437536074601431
0.0426932733409652
0.0431343751317355
0.0418191344321236
0.0429376276352117
0.0417470967247394
0.0430658179171384
0.0432663031931747
0.0435134585236796
0.0417929897125759
0.0415268851692052
0.0398625845670488
0.0429567985330033
0.0423010836299226
0.0430738736651669
0.0420041382438044
0.0410023153250789
0.0464422748258888
0.0432022707104435
0.0404787185388361
0.0497226417124617
0.057425927466045
0.0486648158817894
0.0408554701786191
0.0462484384375809
0.0399214774836764
0.0435580402301819
0.0382265357158628
0.0423680060903578
0.0403167608609941
0.0423034934009285
0.0417477137703094
0.0443450905243564
0.0421595270436202
0.0424739298920783
0.037381968112897
0.0405647919357584
0.0378652342778491
0.0428533223152914
0.0387089811008969
0.0410226824793988
0.0468076311556841
0.0581860009435151
0.0485119259685281
0.0425822664961455
0.0403111733865604
0.0468910253905276
0.051663782604087
0.055444664520764
0.0368314186582208
0.0435615497453968
0.0359543098015096
0.0419526520267818
0.0388254552606559
0.041918234003871
0.0419237942440621
0.0502635721107387
0.04301934455531
0.0459676250190183
0.0404403716532546
0.0418468878307307
0.039835493595591
0.041492034519633
0.0384649386048051
0.0415953844181316
0.0396235446772457
0.0414597289401342
0.0393878312605577
0.0408288997271442
0.0383529942346097
0.0406291936178044
0.0410818050440169
0.0488609904052005
0.0397798776540069
0.0434028698881026
0.039993155764502
0.0398002247928411
0.0472545676918001
0.0584404200139851
0.042331700963766
0.0396518076295607
0.0406600904286909
0.0405411947872052
0.0405553757330867
0.039488556470193
0.0416683800131424
0.0427023936989992
0.0374339267303738
0.042486105076872
0.0403170187578416
0.0401530126890267
0.0394772484931122
0.040456107011104
0.039686837098102
0.0422585751519075
0.0404565072278048
0.0424933452918005
0.0395911899205025
0.0472210666936592
0.0503984747394643
0.0669243877981978
0.0536221323320952
0.0533076923376458
0.0450697851099447
0.0445944328313238
0.0410734464023902
0.0416216943904106
0.0401886572895045
0.0451311659555662
0.0408250496257598
0.0426537165357751
0.0414704563565309
0.0423384657138534
0.0407963083841786
0.0398942685142842
0.0383981748714489
0.0396748978807154
0.0390697184145992
0.0397686378506532
0.0383703687009982
0.0391737342959159
0.0401591084938358
0.0494913456327268
0.0491642447190945
0.0423264430591655
0.0494425784973733
0.0660301206910263
0.0677612396908769
0.0486074094624557
0.0472961049480053
0.0430619602751824
0.0383833492730374
0.0407336111524926
0.0392041322065501
0.0465819730905243
0.0439754710139788
0.0421569696036565
0.0411247776147418
0.0429134528443102
0.0409357975397186
0.0445702610821014
0.0537761292478701
0.074353187830985
0.0561641887524555
0.0448286856908764
0.0420427822641234
0.0579718664414238
0.0623957359209225
0.0501515666473289
0.0447085064510801
0.048682249140462
0.0393796546375184
0.0445376736169593
0.0379929686694177
0.0438950591511481
0.0441231500934657
0.0467140128436283
0.0408649705707412
0.0433432908387263
0.0411227594530864
0.0470146497225038
0.0475709835644116
0.0592851004853758
0.0514788238738745
0.0472436172572447
0.0478756291001666
0.0484021832155097
0.0438668591657801
0.048243486021358
0.0408153621955042
0.0460355234214649
0.0566067532020549
0.0605917100759203
0.0523126185933134
0.0633252140636953
0.0556240429645736
0.0472562264684647
0.0467414722602671
0.0609079439742793
0.0473536642697985
0.0497576147204304
0.0573532050059633
0.0767347083337108
0.0709941353443374
0.0638402575807987
0.0514738849854675
0.0456007752914507
0.0485021920260689
0.0441188006898942
0.0533172192371036
0.0582405486991853
0.0537601178014604
0.0469507423412249
0.0490461714096611
0.0606918549647426
0.0624453803312112
0.0545982723124521
0.0534032670854013
0.0459274603910876
0.0509205284480994
0.0618648257431923
0.0523881203471788
0.0552724845596412
0.0749046190159023
0.0955567750952915
0.0728927757587782
0.057614170835967
0.0544442908739402
0.0824152211079426
0.0613729510422694
0.0535964107336988
0.0526516994339337
0.0509927723549602
0.0490312755549656
0.0633144623797518
0.0762573286123715
0.0634548592061713
0.0520789353808631
0.0576452982243202
0.0567926648092753
0.075743278740935
0.0657930535869676
0.0525365687285716
0.0547239887236357
0.0536606176043197
0.0631578525297251
0.100272169302456
0.0789781613138168
0.079773712718286
0.0845507311320919
0.0806515050224212
0.0706995802296592
0.0720408416160901
0.0638752228191873
0.0838143446647888
0.0796783949288819
0.0667609712062808
0.0595469414124436
0.0845011604010021
0.0848202793766189
0.0723411667624242
0.0642459589582764
0.0679688531093286
0.0677587387803088
0.11559543849354
0.129887650733929
0.102738692593573
0.0751003107732661
0.0840870115038137
0.0972561307964273
0.0819052665643979
0.071135551026591
0.0751347065924165
0.0708732496903161
0.0718827860056921
0.076195117769661
0.088242976242716
0.0815535418694619
0.0781146036303735
0.0760255289979544
0.0863436310866146
0.102596317227029
0.14625800441994
0.118365613498129
0.106553211322164
0.121388826117301
0.11947579268425
0.0973133135227559
0.091823411797989
0.0888470948170565
0.101587869394237
0.0930091239053096
0.0907578916170798
0.0931994744480399
0.121942038027793
0.1122445712835
0.121336319353628
0.116549867147172
0.111221601702685
0.108380606845203
0.142721222512889
0.220907907086023
0.150560500317519
0.123733817715474
0.137927367506062
0.138842275164687
0.191946816096353
0.138090865546821
0.126616248605977
0.130437211027833
0.133206282745488
0.14051286270842
0.151675426107488
0.154501222350701
0.167418547944628
0.150942300307272
0.165359449483943
0.186861873047589
0.265678821854239
0.227765781251997
0.201931737873899
0.182880117382286
0.208928351638833
0.199693767754089
0.196936681654045
0.194557532943715
0.201617393676931
0.21864950854606
0.256961967690159
0.221866319323258
0.219441844703865
0.238197567090715
0.257462431758427
0.236436066542627
0.27952298158296
0.273895620468375
0.263469968407138
0.247392714566901
0.25880022821252
0.26166253012698
0.26888243671735
0.301720791139257
0.297134300135508
0.277006278746208
0.287939989205683
0.279087135761216
0.289358341533251
0.292638562057117
0.298645689895701
0.296700116689235
0.353757389569074
0.344440510241897
0.4735593070524
0.33862506440666
0.316577487704336
0.309062361571362
0.323737839694015
0.34836744445028
0.358963080069268
0.357873994491456
0.341307081839077
0.305363154702174
0.317897823563129
0.311409337173646
0.315657043926779
0.315604176954243
0.314158566068206
0.307914906447829
0.347396584145128
0.323687693312835
0.373484916706199
0.376084662538991
0.327956669419977
0.306059358833978
0.311322184724385
0.302209979855208
0.308947240858365
0.295623207983955
0.325472067566982
0.321884537741835
0.305550142228854
0.300114487809625
0.303391009059692
0.31831580357875
0.329175511490177
0.286899884306917
0.297786960837202
0.285833641195634
0.293795166520991
0.27701415769055
0.311720300663834
0.334026460761299
0.296383144603993
0.280797941246864
0.278730828619974
0.270483284628383
0.272147625171948
0.267036291332804
0.280542702226201
0.272734905548565
0.274339867747067
0.268365017752528
0.270438290642994
0.260593481461631
0.267079114528007
0.270803480032232
0.271227211950667
0.263927546307382
0.265146528843121
0.256123904326301
0.260984595411354
0.256010282725577
0.261263019118077
0.25847273568524
0.26474435124002
0.264382114731438
0.256942504334659
0.25732824071251
0.258986507628863
0.259120341909804
0.258067295194499
0.25156981433938
0.251497371552576
0.249788625195993
0.252793104073649
0.250320032124622
0.248866365289897
0.243074434810626
0.255701034012422
0.243920994650406
0.24754963139164
0.242538064204399
0.252500443083952
0.248457837919017
0.308987000058903
0.264164431598401
0.245040720341959
0.236706970199984
0.237634621763091
0.235549096287474
0.232985589540007
0.274024289429118
0.254884838801209
0.227503145798313
0.224407291400164
0.214442573250469
0.242171753527146
0.22265207124718
0.215347622659826
0.2124652704279
0.21197025920359
0.251641488821506
0.29561483118656
0.306183887551771
0.299359781048159
0.224820819254062
0.204901427071674
0.22245101731721
0.243609483599101
0.195249780977553
0.203397469527701
0.191729159862538
0.251398473175823
0.209816200356607
0.194307192274353
0.185718072712799
0.189125307906938
0.221470581750026
0.223551527837069
0.207420478526457
0.221013369930239
0.228503518062137
0.227397735897531
0.254381209913572
0.258070184100961
0.217181455537663
0.177340045813793
0.180106307558089
0.177863939653188
0.186335586885555
0.250424781309589
0.181966692673684
0.196205125574135
0.16312679431464
0.166598969618636
0.171288272869404
0.194775017851334
0.179228612856516
0.187692234783334
0.205515041856942
0.159415784898501
0.183779853264834
0.192721850568181
0.220913909090523
0.22145932660519
0.168627626616213
0.163256631059631
0.208449039386046
0.210784573984585
0.174073048476794
0.182047140290983
0.149531300694797
0.168233888615325
0.174191389286246
0.157241689195027
0.186791916397292
0.187300752957023
0.195933998466749
0.232242202485591
0.239038504301021
0.223576548506962
0.171024857415193
0.150044876670406
0.154062922445864
0.157197973970343
0.156644727502742
0.15407991402706
0.193417700292201
0.165609740618125
0.158848415518271
0.220456410363245
0.166446780444032
0.162377932462921
0.159969423850048
0.162385953046495
0.173211569447468
0.19907817619798
0.224097758993161
0.194731822954049
0.200521245800831
0.206539562097463
0.18296267122638
0.185969362380499
0.18152787933753
0.193170383185976
0.192484254727921
0.21424934450257
0.203217810555667
0.211013070505256
0.206852960162418
0.214963088276449
0.239982000509965
0.257843042422009
0.225598935413718
0.28542525916593
0.259517462334928
0.331266496643435
0.261593418120756
0.259082028637846
0.255246391296976
0.265982229917504
0.263535508736101
0.271656479193579
0.292928834831287
0.316051444240894
0.275152477551592
0.297821451347663
0.28810960373277
0.303867345434954
0.294792303206185
0.34551438273555
0.325226946588794
0.404004812060636
0.36179853924111
0.346061938801077
0.321627954104878
0.309682859406024
0.32519142850589
0.323552838568809
0.314198109548111
0.319658880064211
0.322510881515906
0.362231190897655
0.31952928241393
0.33157666621065
0.324880392324245
0.332755712030815
0.330831687897827
0.339001133127916
0.336579404957679
0.34190644049616
0.334680330552316
0.347202120097408
0.345873766151625
0.440638994355402
0.36493006267191
0.364465574206497
0.357776570983449
0.3714620524207
0.364947607221416
0.374511848602554
0.388288313566175
0.381875225372652
0.378667300842707
0.385133687343412
0.376158592278207
0.387008749828326
0.39534374883515
0.42128042267973
0.387014962745844
0.405603164684451
0.385326300635328
0.444349585902737
0.447197757524718
0.422265781818724
0.424722402753976
0.4181184758872
0.406520052430526
0.402697397502046
0.405144055751364
0.410772538942313
0.411859551260368
0.410473711008449
0.407238368871595
0.404994913341229
0.401610443320112
0.408800652182007
0.406216194734297
0.444237335062526
0.40347629050569
0.41091001338054
0.397976095234965
0.403140910072879
0.401928250729616
0.444410129993239
0.419693361673924
0.412037455127533
0.415166681150542
0.4183664830435
0.424702972294099
0.413527573001943
0.390137681542584
0.409877353386482
0.395205105808499
0.410878444096436
0.400841895185515
0.421609312480251
0.443798234750916
0.420150202376235
0.411171385145096
0.409952046653561
0.410612140171322
0.416203217170688
0.411624425598277
0.419378449648004
0.420742897621446
0.424820803534653
0.43405188002948
0.424533605309781
0.4263198021913
0.444222574734739
0.44670662324782
0.443450102190852
0.422781216337962
0.425556836271383
0.421213226151412
0.422254945226229
0.423309083790654
0.413517731556524
0.407193367683344
0.40869933195236
0.406439319106767
0.40489941439935
0.433630669001863
0.398949006632826
0.410268501282443
0.390323902011695
0.381665553121561
0.387519053121849
0.386303936949276
0.381836962312491
0.37483482155378
0.379527445895885
0.368292552402539
0.370215918688025
0.36342117985676
0.365243397652288
0.363601825146211
0.368266351660328
0.360347595755626
0.363698361526833
0.362112055087186
0.361157254326432
0.363084486025861
0.357846855690704
0.355320360947922
0.355215920614409
0.375587188182549
0.383217202944714
0.379715869310235
0.366291071718071
0.358810043226184
0.3617333996804
0.352444813411283
0.360776613508461
0.353395496977875
0.360805648134482
0.353741320231803
0.360516565780056
0.352161000923968
0.350619452846076
0.348402501532444
0.355724030483961
0.348146567453612
0.35338939325336
0.346303850423086
0.354091385395237
0.347039330091576
0.353236646225018
0.348632112376258
0.358417105091191
0.352205497441265
0.351718534675088
0.345582460271623
0.345233620050918
0.351405771202225
0.348888800533867
0.346404508998093
0.350004677714712
0.34434211297891
0.344242633352594
0.338484079472156
0.345266393431434
0.338948073323416
0.341618799259159
0.337430907779421
0.341364238815317
0.334685239597234
0.336146734223092
0.329260455488688
0.330779017019786
0.325964322729916
0.32019464858638
0.317827760271351
0.319686156744574
0.314090708163163
0.311543933531838
0.30733286322921
0.30530283355888
0.297888203349046
0.306642083391895
0.301557790684776
0.29778558424331
0.297259112132076
0.297051768153714
0.294224155583828
0.292803773900504
0.292106782635473
0.291876706454344
0.294304765135595
0.293450904212432
0.292919366347554
0.292171747364304
0.291031410685507
0.292922794834284
0.293681964332951
0.293451964692122
0.2954442643135
0.296623870918296
0.295954682762889
0.296518003873884
0.300333657950138
0.301262014034008
0.303067899053417
0.303316236608667
0.304584421155575
0.30264137621649
0.305860997728259
0.308579203257008
0.308827992393885
0.308043118634633
0.307720400667408
0.311722044439813
0.312681178318164
0.314511779303646
0.311215251823041
0.31543757002181
0.310747439003849
0.312180624969671
0.307061626786794
0.310595393301383
0.308118297974739
0.308353563275323
0.306616627227715
0.308334593274399
0.304245426565699
0.306730945114197
0.304791178039512
0.304091545265352
0.29944719235
0.305017780877006
0.301480932327112
0.301346778435706
0.298800984760367
0.298191713643161
0.294690076092791
0.297939964947165
0.292090971735856
0.293192344724366
0.292666294233031
0.292420595720301
0.290349130110896
0.289083754075477
0.288615590121606
0.289747563411926
0.287410701743194
0.287259915915505
0.283414466973747
0.285143367428026
0.283082875550036
0.285838778462031
0.282858547648857
0.281392485432614
0.280763743084001
0.280348531117573
0.277867420654525
0.277484901112228
0.274807175594025
0.274688581772201
0.271511126837403
0.268591120595013
0.266457034065506
0.265923750579913
0.263111192520928
0.263336898667519
0.262930790208216
0.261287880360098
0.258183060831135
0.257466483382669
0.253124951931442
0.254284003999041
0.254032842541937
0.255366131597367
0.253626278170812
0.252082332808036
0.252679782528365
0.253959029661066
0.250008050657219
0.252885664323779
0.250493063993676
0.249929536865933
0.248303889036184
0.245783723603806
0.242026010994676
0.241371559614125
0.23594710350843
0.23640319054361
0.231441843245373
0.231473628193401
0.227229000429892
0.226933387469622
0.222589568797515
0.224260476238477
0.220731025687355
0.225310959802823
0.22551055747078
0.231416743161368
0.233034648521447
0.240346730438288
0.24681583181716
0.255255298728384
0.263185158730643
0.274133277621231
0.284358384360138
0.295919493484922
0.308520439032485
0.322897588305049
0.333255780990816
0.348690808526608
0.363171243205164
0.37337060140929
0.388551396878091
0.405047036600843
0.414565040566211
0.432372325289117
0.439737399076414
0.45632502692264
0.469085138287718
0.482228971943889
0.494687890145346
0.510198122751459
0.520334243987487
0.53014748812481
0.54267412179465
0.551339280670685
0.563208091348041
0.572125318620425
0.574796431726094
0.582450736239793
0.592700160424605
0.594428776846256
0.59593107273869
0.600681555247163
0.598041435282433
0.598534508032794
0.601284068738676
0.60298069151257
0.599469802382014
0.599835170348964
0.600790657870901
0.599924255702459
0.596316914380713
0.594088152068544
0.597029081087782
0.599491768799386
0.596055981411489
0.601055310308431
0.597086086344213
0.609491645827913
0.610478126459927
0.612115226543381
0.618133359823863
0.626311827315696
0.625606870495857
0.639531279853648
0.64187485843273
0.651381607929563
0.663737541126008
0.667632708987024
0.672459961494229
0.691310011893503
0.691557323414244
0.70750613664417
0.71688474323114
0.717453791118352
0.724189727067478
0.741202074982761
0.740440153581863
0.740918963960211
0.740858675236233
0.74283514377008
0.749107448347749
0.746110295774614
0.74130581724656
0.741766030471226
0.740337904704875
0.737715293736049
0.734640540342165
0.734406253571179
0.743987993683414
0.746998284535817
0.755731345349861
0.758213330976499
0.77127059907553
0.782813297871164
0.792022430628228
0.807519471997004
0.81307962070016
0.834082479429158
0.827892885222966
0.849635620104093
0.867181660337276
0.876484672810756
0.896711956142961
0.912756264354716
0.920526882232166
0.93673527058248
0.946511343350044
0.961533233195885
0.9739668975336
0.995559566361695
1.00666448059654
1.02983315549172
1.04975635374036
1.07347823193969
1.10368310303729
1.12461579634498
1.11268701199104
1.15066247680355
1.17508587468883
1.16400879718233
1.19556157557571
1.2176506954559
1.20056693643629
1.23658964554813
1.24778150936269
1.24104468522454
1.25416707770502
1.25759460889957
1.25831075286377
1.22922593628448
1.25304498566718
1.24644144698911
1.24868905032117
1.25666732118717
1.20380575678639
1.1972225866778
1.25126942140799
1.25176714840793
1.21166906379313
1.21314581970392
1.19721661455205
1.22002366186951
1.24704688398238
1.25600105169548
1.25867529357931
1.25972705425662
1.26240453404071
1.28347224331684
1.29849481398128
1.31152355637685
1.32250349262541
1.34071702797529
1.35211201829201
1.35338563171662
1.33811411399537
1.35548701543541
1.37884134714614
1.37500041240922
1.41733866590685
1.43161499831844
1.40159664455788
1.40365085460909
1.43648676461658
1.44620147778076
1.4571991855331
1.41780499930448
1.46598578131561
1.44815626020088
1.43284653107074
1.45741415597645
1.47667426424391
1.4448256020664
1.47647714180317
1.42347588506883
1.40782204532843
1.43795981293683
1.44364455747542
1.38001678337718
1.41786100192276
1.44453943189579
1.35520757667792
1.35512647235432
1.34987806636121
1.34262165023585
1.30452951522858
1.29875592300702
1.26386941293406
1.2037591850825
1.18851883841715
1.14838121796331
1.10182558439973
1.04769806451171
0.996316679926008
0.979973799068827
0.934916765125166
0.89357627931144
0.864549377971557
0.839131040562047
0.813432173056817
0.79869525604009
0.795288687616761
0.765662879430577
0.772008486789514
0.758873806844389
0.751744091418434
0.734189956064066
0.731387257827263
0.725577633578008
0.709617239644499
0.689787479903375
0.691961319217284
0.672676439692716
0.656723076319226
0.637492678350235
0.625095737058289
0.602300730693491
0.573237679144255
0.573038318369375
0.547694959008199
0.529216014169155
0.505184542118927
0.484189377881476
0.464454799829316
0.440976984205303
0.420678961175891
0.401707695260764
0.385508877463911
0.358757342263797
0.345013089626655
0.327032885791273
0.307360428512872
0.293410983464626
0.281973246608265
0.269531363699749
0.256828902201886
0.247774818504922
0.242492332018209
0.227904117481153
0.222900631745407
0.21805120920085
0.213938173522869
0.209911761641686
0.207837085434881
0.199303831270171
0.196544814385722
0.1954323268402
0.194521312327688
0.191792500223723
0.194090273926359
0.194155809838734
0.197069536839797
0.194276284580025
0.195276162322448
0.196543475518242
0.200052046554417
0.198275355024401
0.2013265320024
0.205858684328696
0.203138795088251
0.203434915211195
0.205452833417485
0.205614121819564
0.207336752552552
0.205227805209364
0.208109463913933
0.203823944042963
0.20473186718731
0.199190737720527
0.200762168670829
0.204877644132414
0.200417593344377
0.201552561734132
0.200440262087536
0.200763518204424
0.199883353434947
0.205004611954665
0.207210111893129
0.207463690531648
0.204777989191529
0.20646656816022
0.208377926060798
0.207403039950037
0.210021097238708
0.214532387771438
0.220159717087227
0.219604429720085
0.222724411944736
0.220549878471342
0.222086906540058
0.224118648096461
0.227445772873541
0.223824756208417
0.223919415202643
0.223925436314126
0.228110726233703
0.224014947353031
0.226708755880756
0.227842932441764
0.227054981909252
0.226718759287465
0.229306346010946
0.23025782943157
0.235016895111129
0.237234165508064
0.243261288656759
0.247724604929803
0.250486455980495
0.252159977433308
0.261477507323959
0.271819515539204
0.283609719156819
0.285430695635784
0.292573441624196
0.301757602081598
0.299524106534729
0.307986585294153
0.310784488646009
0.301220109312253
0.302379099162958
0.299069429600962
0.300097968018896
0.29129362650754
0.286285211418955
0.279861685169848
0.281220061905813
0.269579300785198
0.269112055893841
0.266863228295514
0.271800942126583
0.262371932429538
0.264445261670725
0.265980587382196
0.26334477619258
0.267928868744069
0.272621942837115
0.26899638432181
0.272915568462261
0.269868851987378
0.26262564865729
0.257889166496778
0.263154515127186
0.255539493232827
0.256468372097714
0.24554529639462
0.252731374041795
0.245659714876017
0.242523986559011
0.23840161524842
0.238694970794886
0.235939287952516
0.235117559506977
0.230930771069231
0.242745314091251
0.233303074019498
0.239367318817521
0.232279415153039
0.230918352715816
0.227766983773023
0.229613360781899
0.228706297192756
0.227735813652399
0.224525336252205
0.225582983259071
0.223789623459456
0.225823250034207
0.215718128126327
0.22635518618022
0.219345065016907
0.224610778188517
0.217628130768493
0.223810563030575
0.213970490268155
0.218524158727292
0.213987465542237
0.21197767057496
0.208843650406919
0.207148455250542
0.207919891795604
0.211419519006639
0.201358596848243
0.208503421856454
0.200810872739031
0.205237834749277
0.198847962744631
0.198845207710862
0.200845044194376
0.205656766132722
0.198431194921769
0.201775627308972
0.212248419036464
0.210872253111797
0.193611885579206
0.212768783889359
0.206653933852348
0.207685870061314
0.211020264345385
0.218144392284387
0.219117727050168
0.213833521740885
0.211986085616988
0.2209881445523
0.227028501896341
0.227672293368696
0.225540066868306
0.236277585105509
0.220904085809933
0.233011764521378
0.232590435480814
0.239094417392921
0.231667540890949
0.244173463473324
0.24487055888854
0.252021126274196
0.241376445878159
0.25481771502606
0.256678713767337
0.261561823573359
0.258607329848696
0.271536108955871
0.278585776533056
0.290415614615471
0.295013114229438
0.317962541638352
0.311147208132769
0.323210905937704
0.345984171996848
0.361609016520475
0.350331990505897
0.356319257662151
0.371141187297711
0.38198992238458
0.367064931019605
0.385676348532357
0.393706008474875
0.386563755486823
0.37666570680219
0.391733426522706
0.367620915369298
0.376969258653022
0.381317305018053
0.387151480811927
0.372193877960382
0.390937334685042
0.378646995963155
0.359387074437469
0.373058339107894
0.370286730408866
0.360575760270856
0.370246233039275
0.346385264327375
0.361724261102856
0.367016137201374
0.355201455490715
0.345989281055251
0.351438654139992
0.34340989051119
0.355755781095994
0.330562629450593
0.35029867625486
0.355681767797362
0.355990696786599
0.32551972620662
0.350576542302095
0.342710172632998
0.328879910326487
0.321768344555933
0.336516509803055
0.339459438295058
0.33576201366438
0.320520446229544
0.341202832093756
0.32443776104609
0.322475847198567
0.305301612137076
0.307593646537604
0.314319171790366
0.331211172188263
0.340767653849559
0.341305146752185
0.33464363609018
0.340277533342089
0.328860941137092
0.322741460876488
0.328728842419685
0.344252245177875
0.336870816153687
0.330095656452419
0.341289061137747
0.341346126582847
0.319783465605146
0.345739227971667
0.346200457853899
0.346470454235431
0.336914531687985
0.364065181108561
0.355455164374721
0.369612227711194
0.367367684079521
0.397897381216286
0.356417570448354
0.381352564891896
0.37481641878268
0.404139594331495
0.369776486017959
0.421812302253306
0.427718080516885
0.381894988159815
0.372557989219137
0.437116635737772
0.44539598942329
0.44165100103615
0.450771999655745
0.455097457644389
0.453697532964092
0.468501825375375
0.426535214878017
0.461822592381404
0.457325921826524
0.479083714682625
0.49432890302987
0.52102255555497
0.483921801218491
0.447814122081806
0.487527755500962
0.56011539272432
0.468535931543209
0.423058225371868
0.416754421908613
0.439738162880964
0.456597617736169
0.504699190953384
0.501782443281135
0.420882232153521
0.379424351797717
0.395498290950991
0.436259663868617
0.412227924606255
0.44483725393851
0.502789858348364
0.401774991636641
0.449776670524679
0.363896153985319
0.435918062085052
0.400424463968564
0.450304986366675
0.4221711471348
0.451308352070268
0.36941685318448
0.501838105910503
0.412128803817481
0.446234759784683
0.458073279419681
0.481777974255522
0.384315660544357
0.518151065250616
0.450795747016616
0.337578309851933
0.567263712868427
0.463919299394946
0.498854479659864
0.351045639699837
0.22820144736127
0.444912655406735
0.366887981047298
0.46750203022037
0.664933523146496
0.446316237646023
0.333230346871752
0.527115377279902
0.438202328100371
0.684120427526594
0.465355573647127
0.598030813125776
0.539355737271931
0.603479810402503
0.501927586405612
0.656601956934313
0.447989629288372
