3596
4000.36533379555
650.420452594757
1
2
2
0.080166550617286
0.0991415970071062
0.0855717420385806
0.0919021187011975
0.0863982364618662
0.0979361358474427
0.0761044981825508
0.0985510375357151
0.0788738360831267
0.093308083983198
0.0866055476482446
0.0999406216991425
0.0717089129788045
0.0948513896730742
0.0808327395490396
0.0966282132180631
0.0800621502777405
0.0869658975628419
0.0870124168755384
0.0936203214071682
0.0800728370069827
0.094720042574474
0.0801501624163847
0.0916030881763656
0.0805665621910083
0.0997948764396588
0.0732466727413401
0.0955956372504636
0.0859012893399956
0.0975417843169772
0.0809127340667703
0.105906465893791
0.0823630596320489
0.0943412092256357
0.0792906757039383
0.094975099335956
0.0743333011429508
0.0871272875738668
0.0765605050244739
0.0974378434032399
0.0887401892706682
0.0987293310723809
0.0787966178099077
0.0950718051185094
0.0838836742446933
0.098543203991269
0.0708217541654652
0.100828745690953
0.0855257523597368
0.0961066988619137
0.0783462665689546
0.0871034223174032
0.0958084570490417
0.100754640231492
0.0871659993439721
0.110806363176446
0.0851812419997652
0.0846157936538982
0.0834992531099036
0.0867386414811315
0.102480049826818
0.11385620751477
0.0804642478905888
0.0969615674765611
0.0819920691355312
0.0968317042203469
0.0682658792736822
0.0916571925438817
0.0747577633803723
0.103701088578457
0.0756499231997294
0.101411561810079
0.0889974408434886
0.0936419441729536
0.0888476394226395
0.100975884337497
0.0764542621390185
0.0919013869154921
0.0682298090048417
0.116761760554535
0.0896230987466805
0.0974982881037048
0.0821233184624825
0.0881677364478654
0.0812227573418934
0.109373653372809
0.0649849815096125
0.102120395320871
0.101918246771041
0.111889327343444
0.0778301131745788
0.0885164398247296
0.0753364147441643
0.0842570195913509
0.0746629271632598
0.0874019792857379
0.0669460081105829
0.0978455931840203
0.0632587288954958
0.0986857592918016
0.0938440242236435
0.111534885600543
0.130836884738743
0.0803441692549422
0.155497067576526
0.0886681726515015
0.0895733508687899
0.144413919976691
0.0751286733993585
0.0978952556193888
0.0747302000324041
0.0980394959975348
0.0716547532117615
0.104312277364027
0.0592791107487324
0.117890808183454
0.102956581182255
0.0991010083328287
0.0712053324216239
0.0903401460340064
0.0583560816000414
0.133070588801686
0.119826002237031
0.0875471901435017
0.0897716063511009
0.0938447482903216
0.0685699303333683
0.139616561265589
0.0993623394850394
0.0904362699927407
0.0770681094726523
0.0879152432170832
0.0694840911563021
0.0802494272364875
0.122406722424934
0.0947065512073921
0.086473743149552
0.0921119293961319
0.103753218958686
0.160654481261261
0.0879357689665754
0.0914022345779042
0.0639554612751197
0.0985569172582131
0.116003935172975
0.106253574880477
0.0735407276004694
0.118885548495119
0.0876184059764911
0.080243542632203
0.0705179377025978
0.0811661646344866
0.0965993332541964
0.097795632632568
0.045271288878443
0.165124667132497
0.138658999006983
0.115777110930458
0.146006163957229
0.077900783857051
0.103943022653049
0.0768511465429704
0.0844620199999935
0.0738930841303037
0.0818724707110998
0.0728087187684144
0.0934624002596601
0.115519014849892
0.0752094735831024
0.0995113538083102
0.107910111869166
0.108473651314511
0.0646790465206861
0.184765742308812
0.0779570054813378
0.0860673227714992
0.119369453281426
0.0979355300233884
0.069865777708784
0.0954283680691956
0.102097425142071
0.0823080076295418
0.0793960743353901
0.0757455768789312
0.0811561817022977
0.100535574269096
0.0778511578047993
0.0737985961422753
0.0833235276522478
0.0761681415662391
0.107685593766985
0.143771948129623
0.114799003366464
0.0878090342885055
0.089708245168912
0.0557853581505167
0.12077166636302
0.11804396950338
0.0814518656720015
0.0796155102791276
0.0659105272816599
0.0730463756215413
0.0721648937223949
0.0816127119052717
0.0723024370538775
0.0695800194867514
0.131492806813441
0.0976607444343082
0.083653326791926
0.0709360223005032
0.0881855463445382
0.0851180391572624
0.135318142730611
0.113363199629728
0.0786526363961525
0.0902521424328376
0.07110911856627
0.107443163582914
0.0983208998634827
0.0773096193361649
0.0715138946723386
0.0832710060571809
0.0840470220417624
0.0812801488480298
0.0757828921598868
0.0842345486232226
0.0766152772087284
0.0857166513401121
0.0776585178034551
0.082369232569368
0.0890858712094099
0.0799120667967396
0.071960330467634
0.0847051593049291
0.0663915170956031
0.100864079776121
0.107268658581443
0.0843769096830576
0.0839940946594581
0.0742875236881001
0.0755651111012749
0.0782432199263469
0.0810758868293593
0.0753970339351818
0.0769020250761668
0.0694258281240888
0.132332393422713
0.0812793134305957
0.0908894558324965
0.0744701181118138
0.106909194865634
0.100358862171014
0.0829777983008773
0.0738422328948289
0.0762054689963682
0.0748039227981812
0.0887879981200286
0.129727913845702
0.0907219416655442
0.083772858444072
0.0992650063739011
0.0951120641556268
0.0780992499738795
0.0902371916802119
0.0610362110529902
0.179311689364837
0.109434901356946
0.100005546073245
0.172167943865013
0.105036075840722
0.0940692055176101
0.0956853343481657
0.0553766007628897
0.208491157396739
0.128958747419944
0.095200615555138
0.0856592457114463
0.113391284885272
0.0764588480996141
0.102132312847572
0.0971580622335728
0.110937395085695
0.124075046334527
0.140664442809996
0.162192674138849
0.0716710733101476
0.132894734494749
0.120624025561408
0.0924143168515625
0.0891066951773454
0.0880422310939097
0.087698488094926
0.106408129234852
0.109115794565628
0.098634085634968
0.102035533324399
0.0876483029384806
0.136843056744535
0.0934128281276689
0.0938849803610943
0.0862716626679434
0.112310003747682
0.0787677627087387
0.100894549043405
0.083851086498609
0.114396691850047
0.0866863460288662
0.0973144524076455
0.146954705604637
0.110553310367944
0.0880083197025161
0.142435374378852
0.0834542355929579
0.0920881003660002
0.0861611573105409
0.0962389657456661
0.0818394086043508
0.0925665973754777
0.0810298483253202
0.134181853626603
0.0953569231424092
0.0979184616213925
0.0856652882747222
0.0928377711712092
0.0931411032976267
0.10325321354105
0.0946842570577502
0.0984116807541495
0.0975857037099279
0.103590130674204
0.118710080945894
0.146884022856025
0.087779468285086
0.171702294629843
0.12964401166816
0.106300393443439
0.104655053522809
0.104409564232744
0.108495105733969
0.102858368249262
0.10686128271512
0.109489242503914
0.11246198116611
0.132521653524724
0.116798425083497
0.120022516057428
0.135086912931019
0.181351162278569
0.18399789138921
0.128538228346801
0.12492945644896
0.114734582024221
0.16228067309243
0.166585739925225
0.155784852206077
0.173763437032412
0.126628267170102
0.146014306224839
0.120964670538445
0.140292599157618
0.123758795765112
0.14612610650439
0.130020278445318
0.154219346446884
0.130386591787273
0.148485493822071
0.144479786880571
0.168205869979344
0.183213557705673
0.168070281681359
0.156549555240796
0.16650413115271
0.144996600232009
0.206813946956157
0.189541058106193
0.232887025213723
0.210085976929751
0.217786408273127
0.228600675624269
0.185778044628567
0.186448235095689
0.172959163359628
0.191413638383513
0.195427400196545
0.190025405055864
0.193270984429019
0.194200162798562
0.201776481929436
0.202611113377632
0.198933550996664
0.204397734801408
0.204827240727236
0.240875813355853
0.219001394747141
0.226914807608482
0.224186060810578
0.259374848255093
0.305298347966738
0.27620021809545
0.245480955070799
0.240773691096858
0.248733506370632
0.234123224127017
0.249995898030541
0.238311619812185
0.267858009584482
0.2560185534856
0.299637036126499
0.282471628567539
0.284389856211888
0.286823373128767
0.263099039731655
0.291216622578527
0.292189983101835
0.297690953326365
0.330297675050736
0.29591898467849
0.295951490625878
0.331766828485758
0.320202441379289
0.295734117762615
0.347204921961242
0.280817688252486
0.318522315869604
0.30962916119057
0.327968883828381
0.319875782014734
0.344204990934555
0.326380252150597
0.344064751056825
0.342053446237346
0.344061175357898
0.340896291413024
0.379572342643421
0.359518726575495
0.381584848024695
0.367467554383716
0.355296121359616
0.373444923045016
0.36421493206024
0.406221018501305
0.427824080216675
0.3960364662111
0.426873334879793
0.381410991671828
0.389984711715181
0.389908918211795
0.405746529104535
0.39736579109395
0.434486857526747
0.42820087575586
0.437243937941274
0.42221618968833
0.464345247870496
0.445456660143469
0.442331116868694
0.439498947922487
0.453060720057576
0.447550902654635
0.472487017595764
0.480904395936162
0.482249329164799
0.494173181082963
0.538644068848653
0.520020854776436
0.529308151686033
0.481009012275903
0.505720291105556
0.500397300740051
0.512903236850396
0.503964178220837
0.559673932536892
0.512413488186627
0.52502004709507
0.502456437109618
0.546523915554843
0.535089450623504
0.558171771404532
0.550108072123943
0.5801556298885
0.576993476227365
0.588653009952218
0.575659972705681
0.583699642674773
0.567035769961805
0.618528042004849
0.579142702834538
0.626599241868106
0.616817347738
0.591910062468254
0.594108303959207
0.626587274114539
0.604864736665436
0.63612493933037
0.641871497352852
0.642352240649094
0.612303992352091
0.677390678346978
0.635646794723437
0.645784918792898
0.668427154509383
0.67638755555867
0.680135065834614
0.692400655975115
0.65332173945925
0.694974689691871
0.705294115579826
0.74003479902629
0.694707243954152
0.681787504734351
0.698213969544485
0.743639414215005
0.710216905912873
0.740585612466475
0.71107230670367
0.732028106063286
0.714037356390092
0.775790642489862
0.749396255716963
0.759057618007685
0.77908290400607
0.771294826169998
0.780016027965768
0.827574834613912
0.794449152529418
0.829502609078671
0.822920498444017
0.830483376865637
0.795590949558722
0.809751476006543
0.801233841079476
0.82734968486418
0.844497241914246
0.815711492306389
0.815298558069928
0.906528270166229
0.817741904822427
0.839745109323564
0.833113928203313
0.881353913903302
0.887872917565697
0.857607953508474
0.88733884867128
0.922467230339914
0.92384302941789
0.949572733189557
0.895886545686699
0.933233398150315
0.911118216081351
0.947032648747716
0.922962150819442
0.953314294632154
0.955683471735287
0.968190653308326
0.958627573137134
0.96926457295682
0.978088544957436
0.954342689950575
0.935838176912147
1.01118315408484
1.00285970624565
1.02989448829228
0.981584136976989
0.981496634837976
0.995738529687223
1.05823140548354
1.04970464304632
1.02720565044726
0.996351841023242
1.06152575393052
0.996573566786059
1.06951473555072
1.05114042227786
1.06618553564177
1.10331960218147
1.1200743500449
1.0850941585555
1.0822098639164
1.08080093912111
1.17931891986502
1.17545216828358
1.15446366980056
1.14422660651331
1.13394753860938
1.13383115576325
1.19538161519794
1.15259645374666
1.19245291984424
1.21778329223689
1.1842895388953
1.10661041508393
1.13374224520691
1.14586750544516
1.19268863659271
1.1695538410342
1.21308001559523
1.11763714280824
1.1705580895503
1.17672726285101
1.27336468998571
1.19992148690162
1.19294631205489
1.1560435164281
1.07276051778328
1.12729467986685
1.2084573715814
1.2333147630858
1.25449447387868
1.26829528842606
1.26454846720402
1.26104138024681
1.29923858333388
1.23973458720832
1.34067460527842
1.2986129289147
1.30890369497612
1.31032792301
1.24325614539819
1.18865067827152
1.35050974407918
1.38737551655392
1.24666653408238
1.33695454257257
1.36191678186788
1.27181875667026
1.33494142308617
1.45150927769661
1.34274702388458
1.30331783787549
1.33754309027967
1.28044547799593
1.42098673830546
1.40433369726918
1.34388151746871
1.34118598758424
1.37446931594259
1.35904995149297
1.41161077965182
1.34671803087131
1.41001914426616
1.37221011070427
1.30778503469706
1.33652203893168
1.39926769126141
1.44339541265182
1.6233551477431
1.48203121867758
1.33391731910549
1.39505232782159
1.38649285414286
1.3003614389447
1.36239122888544
1.54802441738518
1.55423044097654
1.46125848146932
1.45366564836217
1.51430149709845
1.63990386810613
1.50427565137096
1.4345583957004
1.53873708886326
1.47525015552153
1.47415077004811
1.41191570202214
1.49816305128302
1.61233090137781
1.57550057765243
1.58458090784347
1.47137015366455
1.53119030753718
1.49222985412939
1.36360021599897
1.38985281038452
1.46571120079658
1.43696527633077
1.47783458048016
1.56871342933888
1.4765248082517
1.4346966886545
1.5373341853606
1.57820036609336
1.56595998938548
1.48260862156659
1.62079349475014
1.50581381649417
1.47356152773308
1.61206891986779
1.45331635622641
1.50209119954471
1.55614231540603
1.59203922617125
1.64596778659769
1.6317525215317
1.53084688988983
1.50084285246321
1.54183159896503
1.46580645635545
1.54865724115952
1.72494340448541
1.6040457064072
1.55750738832468
1.55814229611621
1.51203327425945
1.43021763551306
1.54305970976238
1.6177438624644
1.54522344403747
1.64198022825097
1.60885606048066
1.57069617795269
1.67769964162154
1.68597152910236
1.76335562117636
1.54177924953604
1.50313886204468
1.62989835726537
1.78697129807315
1.88034142345955
1.70530771828781
1.57365669032815
1.68855437469592
1.59288048997816
1.46823008732025
1.54121178933939
1.58548623936848
1.4985776933043
1.47350399229808
1.62967717795084
1.6229591089976
1.64014375709223
1.66469640550084
1.69421493771347
1.74684015073801
1.52250394948296
1.49282655647263
1.43167770964609
1.5101334217105
1.67154780046919
1.4777462203677
1.59002846795629
1.76573178468564
1.62252068328898
1.59016008903746
1.49657113747008
1.67175561399514
1.71027934164303
1.58340931699362
1.65738798609387
1.71845290610884
1.51369734188426
1.53871645716224
1.62154349467927
1.76978147806305
1.59068422413986
1.54048942916096
1.63466819313173
1.72068268357016
1.54754117397579
1.5278256610723
1.67033340659055
1.62655541325313
1.56358570897841
1.60455198833831
1.47769218234008
1.51863617956392
1.52798683796729
1.56643626744075
1.58763104462269
1.54883500760659
1.5121795543489
1.58337306088789
1.62848642508916
1.72449934165487
1.68112435531688
1.59407179221085
1.50868260088814
1.63820014363515
1.63270277765685
1.61429860771765
1.92330112557771
1.66815880711311
1.47970034933912
1.58057522944513
1.53642980361125
1.52682553837156
1.65133399269918
1.59739632734433
1.53851778580381
1.57061058203404
1.52501777532983
1.67137939622242
1.5928733643022
1.55348002881251
1.50545489495895
1.56383392939863
1.54661926268267
1.51759269550817
1.52972443686055
1.5998561884822
1.64028962601098
1.60578551668648
1.49700746726436
1.58535792196147
1.62648881515701
1.54599304567293
1.57102884515086
1.58070782796725
1.50255678473068
1.49880631690284
1.44224926092056
1.52583244326804
1.53394484701929
1.68263176160694
1.58400745719807
1.46063268068573
1.70144346857841
1.66651904369162
1.63152735641204
1.51816305740805
1.43918244652862
1.53175487357778
1.50014430286302
1.4610771054737
1.40477363806098
1.45072599392154
1.4647550390773
1.59306609599333
1.58422917638905
1.46197875433509
1.45530165332572
1.50931311334432
1.46376045578388
1.51284124589157
1.42853703374236
1.45265376926395
1.4994156406609
1.52155017040932
1.4717042849809
1.4785354427773
1.46503528907494
1.5050792576734
1.39360223297629
1.36092636297323
1.35327897117734
1.53114784820347
1.47354653804926
1.47094813924627
1.39171749940414
1.48614829461382
1.41891912112292
1.35072569095937
1.38714469341041
1.4163763326211
1.36346380222277
1.39038525478848
1.41070817802698
1.38458247354514
1.37627476060347
1.40789061310454
1.39601338316183
1.39823025099666
1.37050198036375
1.3040573278365
1.32203367484347
1.40936615748257
1.3566748160225
1.33281700114638
1.36626222946334
1.41521392463232
1.26591051298486
1.28955906353389
1.34509065343363
1.27397968720198
1.3615024796647
1.35969269760151
1.2757275738644
1.30223320923989
1.28157823772382
1.35253278445647
1.28589351936121
1.25383035032601
1.2490692526239
1.2627167293263
1.22549426764606
1.23415846741547
1.23429228378967
1.27979320957845
1.17781088925819
1.22676679915462
1.22489072805621
1.27039047774576
1.24916876744645
1.23430357744307
1.19246695552376
1.19726733119596
1.19672893197657
1.1866525744767
1.1584832664643
1.19481787842547
1.15782812978918
1.20791486707465
1.2138273918273
1.1624983836755
1.14529451158521
1.11609580063446
1.13153429865771
1.16590915004907
1.08939804368306
1.11546358569512
1.15713086475571
1.13654719303588
1.12832111561836
1.1774248356262
1.12663648923057
1.11568030646553
1.08192097317676
1.09908799786947
1.08368580020071
1.05751188069405
1.05290920321383
1.11783363669429
1.07711867336274
1.03945943580177
1.02711684757751
1.01692085575567
1.05356878658181
1.03678580262299
1.00718598529081
1.01733414438287
1.00489939958878
0.99932568295092
1.00150450836779
1.03616665824542
0.998409655275558
1.00086564728712
0.991470060308682
1.0016236991752
0.989014099991932
0.96461487499314
0.979775536153873
0.932425236862063
0.941340457421012
0.939151966003433
0.921154129604338
0.957111528093615
0.94344468353617
0.959482654799443
0.945485317813563
0.934501259438977
0.945185822498545
0.918191367385741
0.887349890704651
0.916688760920817
0.90562246752422
0.91107567537527
0.877935312318276
0.881323634229939
0.870683610112608
0.904894193889088
0.870837126659667
0.857844044817111
0.861178184410673
0.866967363287804
0.853696324099416
0.861157359552649
0.84123738903565
0.837809563437993
0.843926067732413
0.847560185154828
0.830114833651833
0.836491553276789
0.846450534335222
0.817496004849745
0.806099638517278
0.810797435428085
0.803238508072469
0.825626742328909
0.797480030663777
0.788471343986906
0.799471466309537
0.822797459233004
0.767705339566559
0.786830526500274
0.768979731865243
0.782196934345187
0.759968338403953
0.741753622224205
0.753816727531421
0.746165780514132
0.746200617678989
0.763475953032926
0.743383840592716
0.748276191417923
0.724963135644547
0.748194373408592
0.732542270305766
0.726745270631884
0.720011987639576
0.728215837909433
0.705261669338234
0.713629149999099
0.707969222327412
0.705444011285296
0.71145515121041
0.69697046088335
0.695814144638037
0.68679920685724
0.67207232769981
0.673381703463692
0.676400208362584
0.675696938259305
0.670365446632206
0.680009209923907
0.664433202897778
0.666141105977337
0.643002254423086
0.647317302812921
0.64342221694597
0.642388296592768
0.633265377072083
0.643929691425582
0.631511506889308
0.630827890139429
0.619847226715552
0.629540071223663
0.617794513850369
0.614467456947601
0.609075272559327
0.6147649236135
0.610847156834465
0.62468885577426
0.611364760983061
0.603179856804445
0.60029814581694
0.600684164707118
0.589925735982155
0.586590268063109
0.585004520520162
0.590789115612228
0.583396706143526
0.5786883631695
0.561352866901128
0.572977354498036
0.572703704905956
0.572961408382902
0.56176732842835
0.565702458673482
0.543891211154128
0.56642912499718
0.560282318106088
0.556080189603574
0.543504468412086
0.551004354144725
0.553080316077445
0.544214985257265
0.526726772147112
0.547074402466729
0.537849459384808
0.535292372398637
0.53363105219515
0.526486031310368
0.528985141286601
0.533141337723477
0.524908466126163
0.52305556676583
0.514600669999442
0.521380307848676
0.518992308171622
0.513908955588329
0.510776936355159
0.515944431217522
0.505595206036477
0.510767569109334
0.503359252266334
0.506077983136196
0.495956785761934
0.504653474730827
0.509692730989828
0.514201256616806
0.50218341173445
0.506503252650864
0.500656685575955
0.49952994555063
0.49733686912968
0.514808284072344
0.499977729418752
0.514526878595187
0.50642575045161
0.511704387001218
0.503868402173775
0.50664531564013
0.504915671584121
0.507441932443977
0.511359198166565
0.506930497222281
0.511118923592264
0.51476159043671
0.504488161783322
0.514356175001831
0.50885413485961
0.531529250185077
0.520201582041043
0.539148633825206
0.522308735883954
0.523114763489983
0.521297513171365
0.534772399945158
0.520782874187016
0.539797950962427
0.528466316936539
0.527213286668989
0.547444002210333
0.547907791415514
0.541993474732144
0.555615303198331
0.547346576658585
0.549480485621564
0.554344819288874
0.566670859613759
0.566288665121158
0.570327636190981
0.572222642571327
0.573499095131895
0.570997282219932
0.584489323357189
0.575064207079804
0.588548815649028
0.594019376543342
0.601352172427472
0.598560076877764
0.599719792729861
0.597445888568368
0.624264971586254
0.614051990571092
0.621782174245473
0.627367555387926
0.636736743216637
0.629861679372381
0.640304905960359
0.647579395733539
0.64037274738901
0.642814838514975
0.661954570877251
0.657259529499925
0.65481679384822
0.654771490113421
0.663407077333958
0.657114900059994
0.683059078778538
0.657290542713551
0.677496661434239
0.670835409339231
0.683260045028073
0.658180721074029
0.665741918305084
0.655136248367152
0.682689575116715
0.676434421319992
0.676214167877774
0.658251141049163
0.680135804652787
0.660505402995923
0.659630675586505
0.658934400319666
0.674741049921609
0.672260600287063
0.663106968110457
0.659600175290221
0.67057050360865
0.652513386499067
0.64589401912155
0.645000939270811
0.655782832987775
0.654399770234569
0.670987061581092
0.651656585087058
0.647367727715002
0.664206386754579
0.664466428219494
0.646238169084699
0.663636806076124
0.654061169447316
0.650980648171556
0.656934009641202
0.6672723036974
0.672572038242858
0.668943133916515
0.65317541776893
0.666417066679792
0.656696862298103
0.659632770321764
0.649162888593561
0.658804301542214
0.651376136007028
0.646968517406337
0.647553606739324
0.65529875494465
0.660342546528957
0.657013019705795
0.636607384316859
0.658530244741517
0.630869279590497
0.639645493689277
0.640494111650295
0.654477580243475
0.634812096857675
0.6369959759497
0.643006107692022
0.640547082325159
0.627143069330413
0.61232783196646
0.628811064298363
0.62247719566567
0.608570869776784
0.62014336164453
0.60099584390984
0.610586431354401
0.592469778534033
0.605898852654027
0.598929578538409
0.592641980160687
0.583245782072451
0.579475588376298
0.576409178056217
0.576184849862528
0.56950248803379
0.569781664221409
0.555189939207966
0.565544930209839
0.550157371353286
0.542648946116898
0.538254305022322
0.544150662487901
0.536355422930894
0.534232182560508
0.528617428642779
0.515612623603631
0.528240740106041
0.518810945209157
0.506751429266333
0.51803587578425
0.503442010690575
0.504949325276125
0.505295738626329
0.497682126740569
0.498950205568215
0.487006033557295
0.482245353347038
0.482012834645075
0.474638231419081
0.477955081337367
0.478290281376156
0.479143644702083
0.465444861151825
0.474986092055994
0.471551171584036
0.471922229884875
0.467155117423402
0.463356678851481
0.451922713549596
0.455253589608342
0.450556016419958
0.454213111883009
0.450194513733422
0.446255522334621
0.439101944336524
0.450278459338574
0.438222457491868
0.436199880017978
0.430495066121668
0.436846480104507
0.428930871233879
0.428698216697824
0.423166184984325
0.433405953894112
0.42554250224356
0.424609791104172
0.426872929578783
0.420019517327162
0.414277029487182
0.419770289927569
0.418046671598235
0.418264043900585
0.408714094156934
0.419922976210252
0.40798794691752
0.407985712107287
0.405613424613862
0.401760294642784
0.400781929533113
0.394977902582481
0.400054788982699
0.392723223959774
0.397474060150069
0.401467368090865
0.393806006238083
0.391009068021214
0.386261151061712
0.390808310784262
0.378091958625939
0.380840279017311
0.382229965938256
0.386138492302317
0.378952238188296
0.386529434788414
0.382726009227017
0.377582607366449
0.375858706784382
0.378604370340484
0.377128884603755
0.378349245853568
0.3669658838122
0.374488110411045
0.372217337615478
0.365400667293383
0.361082323648509
0.371094347043816
0.366080974159712
0.365124862095278
0.360846173195244
0.358429983042513
0.361382115405133
0.363473396625671
0.359098432331113
0.364022054939596
0.358286530737348
0.351544672580597
0.359335615016851
0.354298040500859
0.351593272508076
0.355145881241144
0.354622975489732
0.355413048469151
0.350068650234016
0.347302778303776
0.349370623242397
0.345511440226171
0.345335272268058
0.341972953611209
0.342759688391356
0.346319332046442
0.344547319293456
0.342393177745241
0.344695762563609
0.339881168596725
0.345162734916821
0.335384505201632
0.334250296054328
0.338293883232109
0.337107936161536
0.343285811977234
0.336904540475916
0.33839655713098
0.336853837421049
0.336632753962606
0.333537119866737
0.332705964388682
0.335099481663003
0.337565982796196
0.336134800713673
0.33422142458764
0.327855618338066
0.329127343360441
0.326935769216913
0.32986120345063
0.33633987798272
0.332346345149233
0.325872237724328
0.330573357239601
0.327007066049972
0.327090201103393
0.325457504790947
0.32433836667048
0.319400192736831
0.325685074022568
0.320284578967799
0.323807683334845
0.320490946444229
0.322728757698254
0.316592533730356
0.318212720323227
0.317401472157307
0.320782877195708
0.310636474648831
0.318052898292281
0.318203636495437
0.311754100638986
0.313061254018142
0.319341309663529
0.308404022363434
0.314698018231262
0.309181070550812
0.308379882745006
0.308393041226574
0.308093466591888
0.302746589814536
0.305725746477092
0.303751779753184
0.302618401224746
0.299397074181039
0.307465095053289
0.301755463487577
0.303370464090763
0.300408562522952
0.29733926930064
0.299525861363088
0.296929984489812
0.29743566663409
0.299157366473503
0.295712590567294
0.296121570904651
0.294951034152194
0.296990103276542
0.29209161706726
0.289121595710822
0.287520730374574
0.288532021123907
0.285832014751625
0.288145333208798
0.291345186355179
0.289981187030611
0.28312236508123
0.289834051775923
0.284221144892535
0.282593533601298
0.282787294147554
0.277166845241977
0.280548127169268
0.27528488081951
0.275334907875855
0.277200155071591
0.274107212632226
0.272880413995727
0.271891138405913
0.275112532391081
0.272730381308075
0.270494417114054
0.268779938549293
0.264196253589134
0.268046062852754
0.270768906113116
0.262434776691704
0.263991797865033
0.261259039242166
0.260940576694111
0.259194920830856
0.254373148027275
0.257898359157771
0.257820375316786
0.255483600424681
0.254948738424626
0.254323782221623
0.251915048312677
0.251582382089556
0.249924145936126
0.248736255428408
0.247429037707523
0.242143504437257
0.249189226877704
0.246900689815351
0.240952603125927
0.23785530722727
0.241550050572903
0.239819696513114
0.237261405751205
0.236619459028372
0.236976984983318
0.237221494020662
0.230913211538702
0.234155825922402
0.233206820634343
0.23621841646982
0.231481956943876
0.230998898872567
0.231233570506854
0.229891261973075
0.230009674137023
0.224979813929831
0.221137264402173
0.22559257131095
0.22652473883819
0.22459646217544
0.219417485526718
0.222660117976305
0.221327471840611
0.219912106161207
0.217679523777677
0.219571703830492
0.214348033905669
0.212539093410383
0.213974747956218
0.214948121028022
0.212928932178844
0.213135461821765
0.211667875264495
0.210880207876446
0.212683336159223
0.210804318725043
0.208408041149114
0.210697030211575
0.210583647960121
0.207309948924831
0.209021625832045
0.205654779198328
0.206314727734104
0.207680378695093
0.20107461378442
0.204655682026464
0.203513350033614
0.206353548786466
0.201087316581477
0.200619944620012
0.201620806297886
0.202338653309138
0.202069852158424
0.201023055400352
0.198017559835234
0.196544807577474
0.193810969263558
0.197373239705324
0.194367760495586
0.195546706389233
0.192671270479317
0.192629205422469
0.194219205242494
0.195154118106292
0.196206710189313
0.192175253110877
0.193338459488426
0.192583987314468
0.193361131284589
0.190457162189778
0.190578219241376
0.189382728056117
0.19119290228801
0.191769145065374
0.190061023741563
0.184853657466472
0.191713360555969
0.187751073601859
0.190683162935979
0.190107844110405
0.189613820290349
0.18536729426207
0.186181866749795
0.182570592055352
0.184029067688901
0.18457544677605
0.184668806463005
0.183946980906299
0.184515415533621
0.179647349731115
0.181611252477267
0.181890664205132
0.181882133084103
0.180681856577772
0.18254301352018
0.181646899554903
0.176322682520779
0.180031751134065
0.181402187977509
0.175998552744784
0.177288021051158
0.175671071079254
0.175237022418823
0.177473268775523
0.174248068702322
0.176858203409201
0.175687029435917
0.176803042391905
0.172661750589831
0.173069933155279
0.172478498557529
0.174162109168994
0.170416509699783
0.172685327822192
0.172596485295219
0.173235686228835
0.170791171968883
0.175060517863469
0.169384812817923
0.172376788764423
0.170708212398911
0.172515144221309
0.167873283915524
0.172599956024474
0.16881011014378
0.170338045481237
0.168988282884747
0.166268088392363
0.16705516817749
0.164954833316002
0.165300157617507
0.165936421383239
0.164709803126621
0.168135919089561
0.165740838264462
0.16696550758523
0.16134318979966
0.16234386788249
0.160532382242615
0.164463669707938
0.160906982480571
0.161675180767751
0.163046965412097
0.159370389704294
0.16148170465408
0.160461757258949
0.164325416736051
0.161463662380276
0.161287314342022
0.163095534120654
0.157789499754406
0.161919626628442
0.159279235672508
0.164863439369107
0.15828154332187
0.157784358843232
0.1587081271064
0.160548962801407
0.154757264154241
0.155495640861417
0.155516302840107
0.156077298252163
0.151719821471778
0.155729746383656
0.153812068387596
0.155806496236253
0.150058057149745
0.150160224399528
0.152560475334478
0.152708930405812
0.149138017573706
0.151073107143473
0.148838605067324
0.148810951693382
0.15107065635918
0.148533396747803
0.146055263992109
0.149819702139585
0.145308343597081
0.144470459407869
0.142255812967122
0.144914134522567
0.142184577058978
0.145968247373639
0.143597888025375
0.144074180459338
0.140204530294072
0.145098425456554
0.140465979155818
0.141613720798602
0.141715178236818
0.140855677234992
0.13834545749474
0.137985126024092
0.136469405450367
0.138607091332595
0.135096066479933
0.138596601361261
0.135998818824062
0.133710765605845
0.133922646530162
0.137622304645429
0.133034521507651
0.133955156122613
0.132189346043245
0.135152454503082
0.132974104688246
0.136301957784053
0.133070701988135
0.133259927125888
0.127928550604696
0.129920901119521
0.127729050744659
0.129515919980716
0.129351172833889
0.131140845408297
0.1271351478705
0.129952326009396
0.127323163802935
0.126433853380086
0.124480966087669
0.128841629720427
0.125119267743391
0.126979929166373
0.122620859299736
0.12197907312145
0.121888308225162
0.123116044902147
0.122059853739664
0.124591166302439
0.121397351169331
0.122075605001218
0.120653400677188
0.124468853034032
0.11738919262328
0.120572354868343
0.118572905361915
0.122100596569529
0.119050661400664
0.120900041381523
0.114574094837702
0.115999216107815
0.117804343462919
0.119479518325254
0.116194328814792
0.114920471717299
0.115123428104396
0.117225632802393
0.113988872182484
0.116846531222327
0.114798435658188
0.114699908267781
0.113559620262951
0.115320549796843
0.112687174672091
0.113393800901547
0.110938606337915
0.113033956615197
0.109994819647097
0.114328850984869
0.110764722753406
0.112356576166777
0.110497814107582
0.114658224396902
0.109268333760634
0.113267733007289
0.108048890182289
0.112901159936966
0.112156180935592
0.11084759085463
0.107566309136566
0.114772445744783
0.110879795171111
0.113874587664942
0.109872025467316
0.114150780007881
0.10513917968772
0.112668981928567
0.107178783718793
0.11384250872075
0.108426376508192
0.113720368977296
0.106005370303312
0.115005611556132
0.108481633253125
0.112461867781985
0.104824553900074
0.108005345573694
0.0957164774924307
0.105433729331837
0.102424899423337
0.112612737749509
0.0980927422798087
0.10719087951352
0.103478539135107
0.109960343526087
0.0955838664705518
0.107995268398844
0.0988886776712703
0.109745543048863
0.101229428488995
0.104184911626386
0.094640062380014
0.106326683842238
0.0998124815104268
0.110291315381782
0.0960041058582311
0.109887589914729
0.0984768853131096
0.112256201028355
0.0919616368047908
0.113820084852745
0.0922170028583037
0.111913605727478
0.0891932605919324
0.105099632264179
0.0891638795888
0.108331017428595
0.0912367098100866
0.106574253709613
0.0915314433549443
0.114126810005778
0.0916107105483727
0.110271491917486
0.0849385386407276
0.104328465591107
0.0867992884071107
0.106743044715617
0.0985327125192147
0.109741222004037
0.0983943637105446
0.102317453213224
0.0965932978815051
0.090639604755338
0.10874149271083
0.0925653754090087
0.110692850607943
0.0836950260126891
0.123467729314731
0.0840533810997567
0.129641270718862
0.0697054736548708
0.13774281752635
0.0678968515138264
0.136128106465694
0.0706031737736151
0.131406092005897
0.0745441390525925
0.123103493344147
0.0862616737447881
0.114845124233067
0.0981282800026791
0.105527257225464
0.102359923159183
0.0989655288923372
0.103264844431773
0.0978476372210716
0.103345640982371
0.0992862926664521
0.0967080880934543
0.106256406755775
0.0936189644842861
0.106783083516791
0.0943978561090398
0.105203046400766
0.0960338945358956
0.101206133759638
0.0968695968496947
0.100465766285489
0.0964854276363962
0.0998252594909072
0.0959511161680863
0.0978832138095249
0.0972119710213263
0.102163657956966
0.095448930037057
0.099763059067241
0.0969060759633233
0.100510102427228
0.0986661802298542
0.100107612051642
0.0970570803117531
0.102744278489419
0.0979893172611703
0.0991936149093749
0.0963128602879495
0.100536398318728
0.0940991139908361
0.0989691141406301
0.0967988609655126
0.101515838253918
0.096147587177365
0.0996476860951805
0.0981776511651148
0.101462350245128
0.0996364456235036
0.103251181854685
0.0987467263411205
0.101687524815198
0.0989237860064143
0.0996187738219947
0.0978421350422413
0.0997056562978111
0.0995383127512961
0.101019288898511
0.0959772139876473
0.102391914127314
0.102514455732399
0.102458714140895
0.0993959905203295
0.101421124721266
0.099403341393474
0.0981876975360734
0.0996744637986836
0.102417190928823
0.0993458536085475
0.101325201959747
0.0993541584267012
0.101069217571176
0.101282818570176
0.101313919739247
0.0992932493631595
0.102300606594896
0.1015259966382
0.100876343076875
0.102380533622301
0.10088070469887
0.0994693478802834
0.102333187775488
0.102028342151902
0.103066640637314
0.10253148791254
0.102579701982201
0.101438291128705
0.100265718314682
0.102749278586402
0.103516879966218
0.100460281291338
0.0999597163897424
0.102419710156429
0.102836470851236
0.102145850522938
0.101610405417354
0.101602373920153
0.102507203785571
0.103148496430404
0.10281037823661
0.104916285170546
0.10349619479583
0.102784738565614
0.104883035547906
0.106716052098453
0.106611118571722
0.106276168562722
0.105534483532356
0.103662669103986
0.103701914642958
0.105562989447063
0.104370986993563
0.104393162768835
0.103967982841007
0.105759033912072
0.106430716069493
0.10390733767793
0.106742060142686
0.107536920288152
0.106950635113361
0.106951944602012
0.10887805267589
0.108152873966058
0.108060167005581
0.109111224902123
0.10848342431604
0.107884168930508
0.106492584550394
0.107659599931323
0.109273362048716
0.106330366434904
0.108204901151736
0.108061930313876
0.108577376197793
0.109458291428405
0.110679339849179
0.10834564398637
0.108111661247255
0.107661914484101
0.108382025179666
0.110224207223273
0.110731428841114
0.111362311612296
0.109643181602469
0.109533018889278
0.109707567552084
0.109259370179742
0.110092020326878
0.109156634098717
0.109429497017725
0.110244876095906
0.110603402008629
0.112191860502251
0.113311836430092
0.111654703543577
0.112972238716101
0.115003066825569
0.112298586641112
0.112117050541466
0.11434473167288
0.113984683452823
0.113406043936545
0.112900163571602
0.113072556994368
0.116091560158755
0.115125593722791
0.117695682876705
0.115208781579804
0.114686622885599
0.114199813186326
0.115352960990927
0.115924736226611
0.11599775067925
0.115451594038041
0.114137348402929
0.114965695494533
0.114122655984479
0.114683031039332
0.11671171307646
0.114304651581314
0.115646556306549
0.114747187990373
0.113561088469277
0.11304226509058
0.114720380862689
0.112449319075429
0.115990144164486
0.114606690140991
0.112053186167825
0.110491894768595
0.114434330622692
0.112889752761417
0.113069855824729
0.112384898402266
0.114492948183854
0.112520995345145
0.114576842808988
0.112273348811358
0.112792429677774
0.111678830146768
0.114814622725099
0.109711307551805
0.112720689602411
0.111587347626689
0.113928332571226
0.112155766037219
0.110644131885632
0.107751137418305
0.110984205652286
0.1110627653656
0.110455995693891
0.110731115020122
0.109959643356433
0.112146178406644
0.111121196495711
0.106773524782762
0.110547308955867
0.109246923839621
0.110277523622367
0.108835368354107
0.109023713183686
0.109030995526561
0.109007538698562
0.110035685751423
0.109784556681028
0.106426701628984
0.108794857428352
0.107299080856463
0.10936038692091
0.110137891280294
0.110277453996532
0.107153683731653
0.108761932922082
0.108219562119638
0.107549443898383
0.107074314176168
0.108714033362075
0.106638876510558
0.107378301250385
0.109435494435345
0.110385375896012
0.107009706717957
0.10700903096085
0.105739094074956
0.106796431521379
0.106412744199186
0.107816634628515
0.105318135508647
0.107834929384107
0.106526988984781
0.107013969835451
0.106961160158944
0.106774331274647
0.104169607413129
0.106588873840637
0.105263042133151
0.106002349973647
0.105742972224546
0.107547197091444
0.105908039037977
0.105368663104317
0.106410825782318
0.107373826144022
0.106664563795925
0.105919301072718
0.105318356208928
0.109669300382317
0.10900151896657
0.110494577359518
0.106227255726496
0.105322499356817
0.10257787805521
0.106542835322435
0.103782635925666
0.1040804216061
0.10301329699849
0.105569664752303
0.104627712536635
0.104719566501144
0.102339175949178
0.10671300681863
0.10596373873903
0.105493968175487
0.10187699816223
0.104393292388688
0.104544076348376
0.105273837610991
0.101705193623161
0.10386910709529
0.103953169701832
0.103357345792732
0.0997545010296137
0.102736049399361
0.104992217617457
0.102972894186819
0.101407637718748
0.101131863566885
0.0989798765005211
0.100956142527986
0.0992077588431759
0.101348420001827
0.0966509564502561
0.0985364876154603
0.0986089270422599
0.0983986154512374
0.099189112908738
0.100114917697609
0.0943823260889171
0.0985496159269043
0.099400893786659
0.0969912710616534
0.097227226886489
0.0979111082015528
0.0957417616094342
0.0973283850273672
0.094680755533329
0.0953708752441868
0.0971126584831966
0.0980905116465636
0.0981328475630695
0.100003918133345
0.0905661949962046
0.0944793185596674
0.0900954970215114
0.0957146122818973
0.0921005953807769
0.0928417509274715
0.0905832638875402
0.0893253765708805
0.089401821536161
0.0921022161489254
0.0886167987472885
0.0911239545728212
0.0889135103633785
0.0907642665875917
0.0885995872924658
0.0909502870166232
0.0866965314915973
0.0906267566266561
0.0876362476077976
0.08947742620215
0.0859534691845471
0.0897404657821972
0.0842794586997297
0.0908076732308613
0.0910482677293765
0.10178620714626
0.0908183098119384
0.0864208951435014
0.0885272977393339
0.0911302465931139
0.0860683397313148
0.0866309306385806
0.0846566338312128
0.0861208028260975
0.0885241244334725
0.0870189689437318
0.0870485345500948
0.0870247617513418
0.086066068769802
0.0867812450397016
0.0849999395502614
0.0848631185848235
0.0837887481031838
0.0861437424184783
0.0843554613246238
0.0859505934791337
0.0821465069982145
0.0838542813551411
0.0847413493201012
0.0862607280710807
0.0872725271909644
0.0923500052148271
0.0901540375786966
0.0857230697831074
0.0831184957982453
0.0817710039544661
0.0820673074245437
0.082767201557235
0.0842708143615083
0.0846789716955259
0.0821359602660174
0.0826132076128529
0.0820113657806563
0.0834382526267762
0.08312405286486
0.0841859298588943
0.0824629840174488
0.0825676108745068
0.0803048761605219
0.0815298099281491
0.0803487763675431
0.0820549829914072
0.0819298471978
0.0807544939228366
0.0849430356932023
0.0818514618188312
0.0806464356636407
0.0882044409539081
0.0995910414714296
0.087299402283453
0.0782056095884774
0.0829345117920591
0.076974221453915
0.0818671853065406
0.0779871850338058
0.0802518408939804
0.0765583650404545
0.0816413042131759
0.0797451634463581
0.0810216828389925
0.0796425569778296
0.0810523995936066
0.0763081165145359
0.0804400506268787
0.0763200556120594
0.0801127276992157
0.0770364663798299
0.0800621101228086
0.0853934305033054
0.0966173580333105
0.0866665732172197
0.0816232211038108
0.0794387997355997
0.0840407509504527
0.0904682625231439
0.0913742160041126
0.0735844291153169
0.0824238698011568
0.0735747845865047
0.0800633826875276
0.0743454781395148
0.0800831382671772
0.0778428305183658
0.0871831735157062
0.0803127251699735
0.0844741822655234
0.0787863405085018
0.0771456036706725
0.0768835810089493
0.0794653711760781
0.0754531067695982
0.079217110893302
0.0752367577453435
0.076502324152999
0.0779417595977038
0.0794681820722123
0.0750330467335455
0.0786660836358764
0.0792393756444342
0.0862356049036053
0.0770502574732538
0.0813266178235654
0.076625537830133
0.0781007170175706
0.0847162137430811
0.0936388124562093
0.0798441479552843
0.0776270438326156
0.0766019633000821
0.0772019488378364
0.0791089140362236
0.0757941623971902
0.0757682744466898
0.0775254780116366
0.0751961868492749
0.0790169341347817
0.078230010454486
0.0770424845883558
0.076325884724461
0.0774014142036045
0.0758934921616119
0.0777981228409612
0.0758963993021726
0.0797558406140935
0.0753153509317556
0.0813468911175591
0.0871339523618052
0.107883710177306
0.0887918315383651
0.0923867389976803
0.0823997208043366
0.0803096784738955
0.07818367431844
0.0780288376434893
0.0760201968458063
0.0804663917623401
0.0772548440949001
0.080322901650914
0.0793075530887673
0.0802465913499371
0.0755202082969736
0.0766900172908738
0.07569215394046
0.0772233843864708
0.0745165415759235
0.0760946877301925
0.0761485137725476
0.0762105928174766
0.0783603423450218
0.0876457622663714
0.089758300703554
0.0774143821183502
0.0851264652578082
0.100514094095488
0.107165914810476
0.0854206243947997
0.083638576070871
0.0814378819596349
0.0765386217945855
0.0781796476435999
0.079153747930355
0.0854703083086104
0.0829668471067571
0.0788669051760847
0.0775310872609649
0.0804555448977488
0.0784304688698368
0.0800181677057528
0.0922067599217362
0.114079683314048
0.0939614227484882
0.0814440648902082
0.080213048289556
0.0943250102279037
0.103682975837952
0.0886148645980509
0.0811576270456684
0.0884168256144388
0.0776233445955586
0.0823660381580117
0.0767775247697657
0.0831012300331628
0.0811762853159995
0.0844509285825474
0.0793620419659428
0.0824003194929509
0.0809963208120505
0.0863180786778133
0.086505416839379
0.0970251367994444
0.0916280695553712
0.0866203881699776
0.0871619758086403
0.0884924093202196
0.0822135344169632
0.0879744260659547
0.0800577032811309
0.0866797108372168
0.0951252630326936
0.102116470008296
0.0932115020380079
0.103445600146919
0.0954621465175761
0.0900444272590199
0.0867657901204416
0.103328208743039
0.0867050895207862
0.089437965095895
0.0972670269864158
0.119432411382547
0.110969026747891
0.10640758010398
0.0956701832455706
0.0888155829731749
0.0927172723186815
0.0845395869205198
0.0955170966394918
0.100650945444015
0.0979659678450257
0.0887552050371198
0.091361664732617
0.102209876907876
0.107730394552775
0.0970112392739941
0.0982887268893254
0.090772783189585
0.0971527585651141
0.106655781277849
0.0987215326603998
0.0984923960946338
0.118840985355926
0.14246954791472
0.119819823750917
0.103955390026087
0.100430052488735
0.127902692680264
0.106639510713463
0.0973858559444914
0.0997482811567832
0.0959124478932013
0.0964241313730431
0.110280829940847
0.126787454635117
0.111601750195259
0.0990120097266467
0.106507561782536
0.105338509161745
0.12054580480993
0.115808557818482
0.102244881082101
0.104630962845633
0.101403108050003
0.111553088299782
0.148600452261097
0.133302736285372
0.124288556022194
0.139677387983672
0.136129205068831
0.124878661371015
0.125693762794219
0.115385928841429
0.136774558813578
0.137325817647512
0.120637296645903
0.111320644826429
0.14026563655215
0.141479515776386
0.128239504182473
0.12170697173951
0.126009813038055
0.125710236059622
0.172123020810881
0.194772658308683
0.167941201114777
0.135387036889322
0.145540449170446
0.158360694764158
0.145376938431581
0.13466642592405
0.139823301195344
0.135272607240031
0.138074333285982
0.143184710000269
0.153084071195752
0.146673773964957
0.148264312067589
0.144526530520842
0.155698514766785
0.173646943051607
0.218242229201892
0.197377370634901
0.183573828266482
0.194754454819854
0.193915488262903
0.173998289152454
0.171094950260245
0.16530710075849
0.184099854646979
0.175134656966152
0.175400243750534
0.176596455681766
0.204425465872161
0.19998953603192
0.206188948997684
0.204057510809233
0.196843078343422
0.194162386865733
0.224150403526179
0.318667118911909
0.250971983577711
0.217103260506084
0.240459710506119
0.240800882905712
0.309638221308502
0.247465199433808
0.235916204070325
0.243303326545383
0.247734370635711
0.253945193572937
0.274165497223826
0.276921492980111
0.291922380479049
0.275379946825249
0.290427749731184
0.307330073526189
0.411851581353498
0.364752571948473
0.339823396124371
0.321884269525222
0.359109226813271
0.34875278552218
0.345146017634462
0.349165734862492
0.361839307313426
0.370068975811845
0.423747760916905
0.385712761273648
0.392722722495511
0.402534524571265
0.434194304543391
0.412668471589255
0.471619282218813
0.460032646382295
0.441764248279864
0.440054703484514
0.459382160575939
0.459519080973731
0.469015006574077
0.500379729475332
0.513211810766272
0.484660980292208
0.497428110963964
0.494813854158014
0.509248136933904
0.507901107840096
0.52205492241395
0.51842494088376
0.590922039688305
0.592703347504329
0.75844227259384
0.574616020769902
0.536811221855761
0.53530971769268
0.552999728878634
0.590406831231568
0.587865111525771
0.58251733799315
0.586234832300053
0.550408292872694
0.554633118519192
0.547663875131369
0.558230285201181
0.557987209273331
0.561488921271143
0.551222845128346
0.597015791548536
0.558818321424247
0.601900777143468
0.644245997812097
0.574185733266376
0.544145322533846
0.556391942180405
0.549438229418503
0.55323543419417
0.535406486152265
0.565316342377604
0.567950973940302
0.544636074119534
0.525258809609305
0.526519820758401
0.552812155432003
0.56327283328235
0.511188512077179
0.531595310281693
0.502933763254071
0.511870195091536
0.490029632460176
0.534676442195735
0.559500140368484
0.518697594477794
0.488464282932594
0.495048691946621
0.475562040682334
0.478809161391989
0.464191424748464
0.485907505982494
0.470701945238887
0.47626591723655
0.473346268509568
0.463971233543249
0.461078063872676
0.454118707943225
0.463727277269005
0.466641698644247
0.457125258701197
0.452740426635224
0.446467321731204
0.454534189179341
0.445665457592018
0.449618964395971
0.446678298618113
0.454300658885456
0.445685428440126
0.44383578977694
0.440289593108074
0.441712437518945
0.438939742305262
0.440782344413958
0.429179920805701
0.441908393440994
0.43378622193647
0.430850276234429
0.428086637561215
0.43743525835728
0.426553093918739
0.427626001736301
0.425791925018625
0.42766552513428
0.419435422139411
0.432005227879955
0.417183241163128
0.504351831916841
0.444343190167971
0.424055565731488
0.412360422828542
0.409948027145018
0.402011933638931
0.405141775167131
0.449225462614987
0.431193587896741
0.396617750611476
0.389501044770051
0.377125381822598
0.412386533331129
0.392428461453198
0.378371499366529
0.376079955309443
0.375002563514311
0.406844032101652
0.467712360435647
0.48375261656836
0.4754844986157
0.379247684451243
0.355364228992991
0.37476876480999
0.398510446520322
0.348646836502496
0.353156814332715
0.337751919835156
0.407334809805664
0.355556154328056
0.340913212849582
0.333310659187162
0.340227743137347
0.363332625734211
0.366436097253029
0.350378450947933
0.361698988969019
0.378887459834652
0.363179442894848
0.408127746628889
0.410789713177905
0.352519094198179
0.313607551159304
0.316301407967679
0.313265828688262
0.315821216760918
0.385234720964942
0.318291769325335
0.32673322454682
0.297111138986329
0.296207241993449
0.300062002928452
0.323561766446092
0.310880423694169
0.316757266808496
0.336827218941334
0.287887199119908
0.309287452704473
0.315692524196197
0.341184636967168
0.362643445654406
0.294705207011273
0.284309159372891
0.326241056603771
0.340183099990926
0.293537404782346
0.30520583336941
0.265870296608939
0.28632688802092
0.293090257951894
0.278336689115626
0.30121360192484
0.304297126952921
0.308384855669513
0.353273429704042
0.35713328494786
0.341174987810137
0.28412972505033
0.268462151727143
0.272300328598875
0.277071975482595
0.276376427243852
0.271745900191254
0.313973185670976
0.28849843385342
0.274635870814616
0.342013653224399
0.289172463760369
0.284033402107151
0.282026418395894
0.287065886006507
0.291694211415498
0.329365905859295
0.354527214530461
0.325911143327601
0.326993633592886
0.341467539719924
0.312929712975325
0.321491908345023
0.314195213685909
0.328842689498913
0.332119579735266
0.353580330924166
0.344834733294338
0.351570527251351
0.353034853415795
0.364796069272545
0.389761665634638
0.413810122454648
0.377997683475772
0.439963787551884
0.418790623337612
0.501008269185335
0.433094845604864
0.432187970615318
0.426353938706602
0.442421845627479
0.448036716656543
0.449273603077339
0.473537946915501
0.513352064292186
0.463446422976538
0.485849684213329
0.47365374757821
0.498960435047695
0.489489062181699
0.550534378978225
0.514090622894512
0.610576105283923
0.57479280709097
0.549552952622514
0.532493526807776
0.523072776681056
0.534026426130175
0.536992697432315
0.525184441192946
0.528963378777441
0.524877363124061
0.565411470103966
0.534710840359537
0.546678599542288
0.537776831577466
0.548365341580279
0.539514540861883
0.560873427677889
0.548985331202089
0.556664195811077
0.558787629602094
0.569032858242594
0.551916053402113
0.703392547509842
0.600867971744568
0.586322155631571
0.579677675239843
0.594207932167893
0.590154003592992
0.603421069560079
0.635183522494131
0.617021786395193
0.608625782321366
0.616944313621396
0.62185079531568
0.622289258926284
0.64012750217954
0.674456871372442
0.62438916174995
0.649102001896037
0.62414737203589
0.691883761234795
0.698213118576618
0.675493995438975
0.677089336208585
0.667949242731763
0.658889879831117
0.661735473536151
0.651650641314885
0.662550177516716
0.66279282228503
0.667265468576398
0.671074367533112
0.660483686380129
0.656238825674838
0.672231826725956
0.649329283305122
0.696491533091195
0.661580627013994
0.670525454823225
0.65791940713529
0.66781624968899
0.644889426716711
0.702087711586355
0.676323785505091
0.658882449647736
0.664542877461942
0.668951345896773
0.679541561416277
0.671622127977776
0.637329315793802
0.66301068847252
0.652207056697854
0.665930498116533
0.652945773132505
0.675008125028342
0.705342057670489
0.680101208592204
0.672526851007396
0.661698546373874
0.671820293488869
0.680550739991291
0.682525900135739
0.689475942440846
0.689521739935291
0.700380744436118
0.695789258266289
0.711456698737693
0.697041386501321
0.722645379551937
0.72210709691741
0.726775973165711
0.697956188865563
0.701692786562143
0.711444099772055
0.705857869255799
0.704605630769391
0.696145219539871
0.683393020399345
0.693618998513836
0.685011705575554
0.681704347077463
0.714267619226678
0.673810149381044
0.689173553992788
0.672563516804287
0.663451459968704
0.657246153856848
0.653277654782691
0.651825327227927
0.64974181203531
0.651792431041397
0.633689300573988
0.637167597252214
0.630979669303478
0.62923278096858
0.634639669131932
0.626665831245962
0.623087606044014
0.62814146565588
0.626776410417742
0.621253072430881
0.619848843602804
0.621190948610683
0.621955947971566
0.619165327027914
0.64044649539015
0.640772102561526
0.648323518986754
0.634031915550741
0.628736674965882
0.636061641790653
0.613373712469314
0.618682285559515
0.611494281494931
0.611539542566083
0.611671729670238
0.621674526730314
0.60841906680726
0.613340507442711
0.606458918988659
0.612406298857477
0.603478893536355
0.609157307311621
0.598392277482214
0.59828796872722
0.600809488669915
0.605182318442041
0.59135136720412
0.60912180592359
0.599833303035738
0.59985852614467
0.60103448600336
0.601180478636497
0.592748272021079
0.596114554181495
0.590401549649618
0.593231351818839
0.593391626570685
0.585908535698298
0.586435897838507
0.596836965242868
0.586351910950466
0.5894596758412
0.582116729811467
0.583409907521019
0.579682776987701
0.582886540124216
0.573691154468295
0.568663871373943
0.565726274291223
0.559434792591442
0.553560640652544
0.553446603488287
0.554089601201427
0.542511273392942
0.536763181287169
0.537877432835764
0.528868839162282
0.537129132644427
0.524160993157658
0.529166048457001
0.524937050098809
0.522455510446787
0.514975796142894
0.515697036680084
0.510473049766402
0.511776872608814
0.510184002185151
0.512663568513575
0.509321664082853
0.512196913346622
0.5110905994258
0.512359511047765
0.510507555815267
0.515246961718677
0.515978174537588
0.514296034713706
0.513065303414352
0.515748120577651
0.517340185611857
0.520877618919603
0.520345525478015
0.528360313523788
0.523361004902943
0.525023046345108
0.533737060797109
0.529832619314687
0.527171112430813
0.536576395102672
0.532004992879282
0.535911657456027
0.543488687918055
0.541924183393428
0.535104064415984
0.543026519120346
0.539889391072731
0.539124918023714
0.538274144589562
0.540199303304808
0.533048032150534
0.53509668719171
0.534505519785208
0.535615441475848
0.52872296954944
0.530713832880558
0.525144254524158
0.527070511112764
0.523024034237134
0.524769174856717
0.522226192397893
0.523484416328643
0.517760652503291
0.519214380947691
0.515673301977268
0.509000522987881
0.508259685356513
0.510040258833852
0.507778631309326
0.506874347975284
0.50152047028435
0.504331167337252
0.502483943854431
0.498674773849768
0.499304976350395
0.498873483667213
0.496323541547382
0.495986736250623
0.491732766069497
0.494117428445521
0.488616124750648
0.483870135104735
0.486344667912659
0.483901010122886
0.479418157516877
0.478213355733929
0.474334496033561
0.468697508774155
0.46701943756669
0.4649170325562
0.45791623666862
0.458991120069666
0.451869901443835
0.456506939223362
0.452617726437685
0.449590955642492
0.449127320507827
0.44501158681717
0.440652089096336
0.44190200423317
0.441487661577553
0.43839890342697
0.438903513712053
0.437793591242248
0.435195337279241
0.437272117507299
0.431871380310459
0.432947899943935
0.431578714275364
0.429634295562224
0.42840258493848
0.423432569116086
0.415899955404342
0.415431507824021
0.405180595883462
0.401446743986889
0.397658018944016
0.388969387961577
0.383973864109568
0.379854857712808
0.374529048380214
0.376209222105791
0.374100399624244
0.375915406229099
0.377273486935181
0.382846750999461
0.387299610885701
0.392187403776307
0.401206686136856
0.4113695455006
0.420618744735785
0.435319075021302
0.451615516826059
0.465113737255467
0.479347727852528
0.498585869748648
0.519159359037482
0.534725165358064
0.554851602081621
0.573196526103295
0.592546461955542
0.615837228056111
0.631972230117572
0.657321742273717
0.678073440645669
0.699793952678463
0.723503611542788
0.746273357211923
0.772428933677682
0.78354277260983
0.810781926227576
0.819854057279342
0.844008207562958
0.870089983582041
0.8916411575802
0.907154255677261
0.914074285280349
0.934868468415346
0.934618715098569
0.946848417718554
0.959264780033983
0.959527701649446
0.94862948089166
0.964402573597052
0.964051035760506
0.958857763910764
0.952467294007334
0.956466351483413
0.956803931177141
0.944950750977885
0.947706330747459
0.953879884345186
0.935935537716276
0.935745815041909
0.937508285739287
0.933326271368339
0.952890290786725
0.946220257735712
0.948358531928425
0.946924834127632
0.955202863104621
0.959047761686238
0.963018067873134
0.970152789576812
0.984624591463155
0.992661618701114
1.00263280362836
1.02454124447251
1.02771606847736
1.04788832958681
1.05854262470284
1.08285785345365
1.09428482449445
1.09689088148407
1.0905378650435
1.10611459306831
1.11435159916795
1.12613665781407
1.13516712948569
1.12527095915539
1.11836314855474
1.1347861164424
1.13389863957918
1.15314955168747
1.13312488882409
1.13438670346538
1.13118024288988
1.12165855156987
1.14053102772523
1.1219638182872
1.14083855731228
1.14239833378913
1.1700367306057
1.16774985829403
1.17905107169392
1.21183276033939
1.22195942320418
1.23299859652688
1.24532285058103
1.24608341708683
1.24109089119897
1.27518292118835
1.29708456239244
1.31891131659606
1.33116854687348
1.30615172197941
1.36220166088047
1.3878262366305
1.42488512255937
1.4122703893775
1.4719711896052
1.43231496950542
1.50205376716198
1.53805411321928
1.61118802282147
1.60865151883155
1.61711578678668
1.64409936612066
1.69492791202074
1.71734243754573
1.72703579811921
1.79366892643838
1.85457432500902
1.7909639463948
1.87688004224285
1.90023081730004
1.81697475376077
1.81969558370885
1.85668885605
1.78338933955114
1.78752962232462
1.78028897924715
1.88246174738618
1.74049152133214
1.88048135281287
1.731550193054
1.84689565591557
1.79957334259619
1.85222853828938
1.8324594136708
1.81663248785934
1.75665436868629
1.87873921020335
1.82702114665238
1.92220714282701
1.8770832853292
1.93911885810087
1.9676349951116
1.94078487228199
1.9919494462278
1.98581921872358
1.88716275816232
1.92577539966737
2.12955757043985
2.15198409950996
2.12461235401342
2.12407700122361
2.00129351807902
2.06658053746899
2.1921099646803
2.306418360236
2.73291473769632
2.40253143411833
2.70248350053505
2.77022227164775
2.235685909389
2.1066803241091
2.16451395205764
2.1964419839117
2.59272640286885
2.81957777483996
2.43941539766534
2.24675039989326
2.85822450493786
2.37063501074369
2.22749516608968
2.42610304548481
2.23391302250763
2.5564391338359
2.2351163997154
5
2.19929456871784
2.25760380987493
2.34574902112489
2.74442237673006
2.58128518388084
2.51028640959918
2.5349946421777
2.19923388782831
2.26654742920017
2.28453870746473
2.38662528031389
2.21015950743134
2.0269924551125
2.10182945372587
1.90164763087844
1.97922807487748
1.95305425649416
1.91774967006738
1.97204836346075
1.82058474464788
1.73769725227796
1.79716793970262
1.72541029928457
1.76701505796796
1.74923776471339
1.75046988805462
1.6742039445127
1.66644305029594
1.60892958826783
1.66086099687881
1.64656780833486
1.64132053142146
1.50297873795055
1.53787692438975
1.54436303625425
1.51210218471834
1.41960459875539
1.33870448451674
1.3211516554282
1.28345292657992
1.21589554755941
1.18825049587423
1.13108262339112
1.06327568404161
1.01446598950988
0.982829983922774
0.933582836900093
0.880112154275311
0.829642266437054
0.799138985216146
0.765609166660215
0.7322496610901
0.694546778984838
0.6686197302213
0.645504118021108
0.614108159917954
0.599206692617156
0.586077278113053
0.559600368656845
0.550988592284159
0.53556215472205
0.526746248780752
0.514208325957855
0.507002057099731
0.501045246469364
0.499295764912757
0.490671780846628
0.497665702714292
0.490432043644372
0.48586478788152
0.486598886020582
0.487818298536554
0.494844251801873
0.496185555513925
0.494132903581707
0.500900274397522
0.502241266568679
0.510384469880282
0.510423894334556
0.513551523057209
0.518845421767252
0.520745982001359
0.516139400766979
0.515780437375593
0.514652002063691
0.518516977261656
0.506405114780338
0.514774710002635
0.513989486339758
0.508703648200132
0.51008268066935
0.509165192332276
0.512492096178698
0.521470855412512
0.513516410769801
0.520408420676805
0.529205265101152
0.519126426237557
0.521940799354914
0.534742454158283
0.531580788401187
0.530171856177554
0.52798048744593
0.541980761147982
0.538659051378178
0.537132139801413
0.541425613990972
0.547485175068403
0.543389037832267
0.541869704811313
0.535621397613914
0.547463664135175
0.534474212430874
0.537704360271123
0.536472601014053
0.544495214224243
0.53679983410213
0.530239638693791
0.540708837422082
0.543915294093367
0.548754808850104
0.54408593005272
0.557832686082056
0.565693853492183
0.567907525122201
0.577520579976722
0.580780311760917
0.594655584701886
0.604011797721263
0.619322208038825
0.637140168171805
0.636694249144975
0.654656027424995
0.670708099474997
0.670885429267688
0.678309939695731
0.675702548964882
0.670449768146464
0.65581568817838
0.669992815225195
0.65314566076669
0.642085668959013
0.63039656397429
0.632363685992727
0.611004198788663
0.615738214240662
0.613022028679557
0.603953687991734
0.590189300144743
0.595620552839723
0.598861828065336
0.610640565925064
0.613781661085165
0.616552401806949
0.613994076584455
0.616990583235981
0.603852261383011
0.598312601944494
0.601671721629198
0.593678067906458
0.598562929125794
0.608267290452215
0.591721159750617
0.594276762245711
0.584880772663995
0.590801836540778
0.581535116146265
0.58696474807834
0.585920010149422
0.583307405392954
0.57524605578377
0.59123470620476
0.566489019525357
0.574680808090318
0.583595042541464
0.576757476805357
0.573531042518319
0.589370400463464
0.571112620575015
0.57483895423735
0.556324430658046
0.570044873056597
0.56073461051493
0.565056407742593
0.556922607784392
0.566677308171556
0.564220770227964
0.565567537611999
0.549266979811258
0.561984519644797
0.550600106089134
0.551371840955174
0.543736077067241
0.538178149363286
0.538931149341527
0.544458261539642
0.548319238969065
0.537968489495727
0.52996405230406
0.532530961385923
0.520018994630677
0.542620740337257
0.543219992472498
0.531552930529498
0.523330115003088
0.526672262945861
0.513851517725329
0.516585638961703
0.52441213912152
0.526849415439027
0.522569338000375
0.532898661281197
0.543334511820316
0.559480502697474
0.540126817816947
0.519563647311029
0.525991899567675
0.542960399363046
0.558565536657188
0.560107338041556
0.544907272865463
0.566594123861936
0.545465525031714
0.565732507917031
0.561353427329013
0.57466864257537
0.563574067416009
0.593972473326651
0.566823239342181
0.590440973511635
0.607014155564636
0.604136071176541
0.594827396749209
0.608906014494957
0.629090005471533
0.628408214279204
0.654298012076207
0.67037277097908
0.656753201708401
0.684306963825816
0.650726222882318
0.721937321721625
0.762558551868389
0.733754836903607
0.758107470560669
0.817526515747322
0.820018300961837
0.822501546464821
0.804720321362807
0.812591694832128
0.831827804902946
0.888435304908227
0.85270384931194
0.854216491422118
0.861875350604889
0.884225577766228
0.820198725867254
0.874535861635309
0.893339553687736
0.919994793870199
0.891220777774784
0.88364715698572
0.831369933256636
0.859641018230374
0.817391743462213
0.862411928202101
0.884561125524706
0.905938059042174
0.914022131986628
0.94372456309453
0.876752218736653
0.898114148483327
0.83977848149747
0.846805105749755
0.896960091354181
0.854342096440121
0.81363779994969
0.8291031193823
0.84976982186247
0.834330845599759
0.858412295150234
0.822275603913698
0.784532701350498
0.818985116477001
0.802324841193028
0.816489310270724
0.807173860973382
0.854072093574225
0.820866317829661
0.835635761591113
0.817897230464523
0.822414758816485
0.768433683597716
0.792941720694115
0.83729801523033
0.845745761274003
0.758228383392519
0.764865352755764
0.80523309368275
0.884421007464074
0.866104933457229
0.824305674099681
0.812819038347339
0.853548558060081
0.81567248276197
0.899390233102746
0.842067159600865
0.790969286236544
0.839658073492931
0.926776752741172
0.873054145909286
0.87661914461193
0.823978774985245
0.802483674688293
0.813002157029541
0.901570374736607
0.857092364887802
0.890761726653087
0.820861692606413
0.879672873350207
1.00084234375928
0.94330973303615
0.897128968475823
0.968808952689298
0.962881727246251
1.01206788830929
0.976238518000046
0.911554540867996
0.992775634723559
1.1155757918923
1.09438817949517
1.20174177600314
0.954504456946117
0.982622010783586
1.0833859246521
1.02154579770782
0.928097987596389
0.972505355931222
0.939590970637685
1.04913367725697
0.995436885146841
1.05002276985527
1.30984770852383
1.08113084649885
1.08313411955408
1.4450835784446
1.21779545196992
1.141512042574
0.940419924939175
0.956246902201879
1.29651106974371
1.18478692065978
0.945799163267376
1.09025461481076
1.21429675056308
1.02472200048304
0.968011914994166
1.00008495795268
1.05558504518098
1.45436285086183
0.971811527270233
0.918074405201218
0.945530587352661
0.854942564298259
0.925377017064289
1.21421313649756
1.23921252008994
1.18957312407975
0.921624026086437
0.860040892709309
0.988965119459697
1.08889866845955
1.31017712504522
1.54604918085966
0.953633338340747
1.11340990012523
1.23675805178773
0.627389449930997
1.86279901213197
1.54307539267792
1.06494065420303
5
0.940774632944315
0.821810827324938
1.70020263520839
2.16709559530197
0.727357992273247
0.947412486043811
1.59738224824578
1.17209584854703
1.00813809448055
1.34148689424566
1.44331098089216
1.3232357590315
0.955261068162895
0.914673027957318
1.41222852217499
