3596
4000.36533379555
650.420452594757
1
2
2
0.0822669071352205
0.0916655839307493
0.0866894846186498
0.0949319398321406
0.0873138846311177
0.0950573670613334
0.0765006344721347
0.0918160100608049
0.076540287575195
0.0961000094104195
0.0803756416350541
0.0851622475387016
0.0720087713518446
0.0927254326568313
0.0825965142939051
0.0929666361743714
0.0704245379091277
0.0872008038197479
0.0766226496156882
0.0897322199523716
0.0805513606465386
0.0947685545811588
0.0772497518135371
0.0855334849305289
0.0863022428367171
0.10149463374524
0.0796889942817731
0.0862608503851959
0.0825888673543702
0.0964960322366332
0.0789582440693404
0.0996240980979057
0.0878055722384786
0.0886526249893903
0.0781759018773705
0.0988679625962143
0.0740134085738642
0.0873757036384867
0.0729000461746359
0.0907728620114936
0.0885575423894533
0.0839573306533895
0.0787143539077434
0.0893275321815043
0.0835501208271363
0.0933499730289648
0.0749660097410643
0.0885457645269876
0.0814215571799414
0.0911355885151243
0.0791189139577221
0.0882002796180481
0.0903952657244497
0.0945580977750034
0.0846117502267401
0.105519431139767
0.0740368894312316
0.0912522775258794
0.0771622117354159
0.0859974881902522
0.101191858808566
0.104443497735637
0.0778246733122895
0.0909019048063514
0.0762033894339814
0.0980471802185257
0.071929841981194
0.0923318511133531
0.0761296343714772
0.0967777373528139
0.0634709757061245
0.115809094417666
0.0906501763270202
0.0975232649366081
0.0839644305054684
0.0944252564130214
0.074814784639033
0.0956740423166721
0.0655257284511383
0.110766071243172
0.0870451734429857
0.0981793212550291
0.0776553857640872
0.0813134712530428
0.0789301543655709
0.104033693335311
0.0672382741614943
0.103112977924438
0.0998926707901882
0.105752549012997
0.0763230533616598
0.0877021890611545
0.0752751965669125
0.0812259634588242
0.0721430138420201
0.087430945142782
0.0612587338016893
0.0946211773954309
0.0622094372438615
0.0970897231329845
0.0868327572890318
0.105598071963919
0.114257607940161
0.0824284743255019
0.154677301978376
0.091994364341052
0.088745988629386
0.149263983042332
0.0756360879916366
0.0908513122668512
0.0728497329864642
0.0943249908480588
0.0737245922533113
0.102809072904509
0.0545884610096594
0.122864381523089
0.108992275453716
0.0994041838375542
0.0703220173351406
0.0928401756143116
0.0554723964889882
0.133214462140078
0.108217146684775
0.0895204994525058
0.0954850882427229
0.088377525202816
0.0675779978291385
0.14507083015832
0.103232875819815
0.0876182720005431
0.0708089809937804
0.0802935625740889
0.0657504264823571
0.0821717066340393
0.12548688377051
0.0884161785887202
0.0835922801413195
0.0900021695700147
0.109817672473892
0.148889456923585
0.0841032383716757
0.0949002745008529
0.0634105304756946
0.0967595653620842
0.117695032799426
0.103737584049488
0.0736279867243007
0.104829526404611
0.0854633779331156
0.0799290898086294
0.0702777287383758
0.0790972946865996
0.100682530831594
0.0993161846620692
0.0377704041861947
0.177350307184303
0.140889031140757
0.113248167066542
0.140803957839075
0.0804419389819893
0.099484670461505
0.0767196568559665
0.0863775958869732
0.0667924324255621
0.0761582754412636
0.0700702842514093
0.0932988234756667
0.114045894926158
0.0759383295224636
0.0925976862666394
0.107523211082007
0.103788464762492
0.0723109819452745
0.169639687143732
0.0781505021197853
0.0870059377191391
0.102177252282759
0.100126062395836
0.0662091991709824
0.100539131969057
0.102723739698988
0.0792485232240493
0.0755317701301608
0.0773142568718468
0.0865197242701585
0.102411395849767
0.0776353146777678
0.0797104756621094
0.0779480144365385
0.0790075673681976
0.112272668019693
0.14168025964346
0.112034732971797
0.0869405177103158
0.0831818767384625
0.0551638973455123
0.117353900210459
0.115966832220732
0.0745293352782241
0.0888318571707917
0.0716479423919306
0.0755620584375326
0.0665666119164108
0.076234615103601
0.0738932961579482
0.0704591764749832
0.136987410426043
0.0957472251205148
0.0774191341920547
0.0730556261198563
0.0934128933553399
0.0878706844606016
0.145073739485061
0.109877453854937
0.0756633463682463
0.092554995351216
0.0749494744137064
0.104972702987252
0.0875348936693036
0.0766222369137241
0.0727057802402932
0.0797074173346623
0.0744956185388626
0.0754103547252712
0.0717160670596164
0.0786126840497082
0.0779135723334697
0.0879743020696174
0.0720019060071699
0.0780461246086072
0.0833884006550828
0.0845043999530867
0.0775117512503849
0.0869466847611057
0.0656204087857278
0.103728432007983
0.105724741181886
0.0818073423911575
0.0791519788290964
0.0718528994429361
0.0747147036245161
0.0742480266449896
0.0743542058509376
0.0763740667263493
0.0788124406925599
0.07866536318385
0.126830411694836
0.0751945883219669
0.0916721704346482
0.0641211602281179
0.102135699895824
0.0972224167407715
0.0801685851729945
0.0730314988274358
0.07898913115526
0.0685220761308134
0.0832647142234948
0.126380016742941
0.090772536989069
0.079905200508351
0.109617651171967
0.0862964865590484
0.0730323426963844
0.0914606121686773
0.0687576579361431
0.16057290069866
0.105412310540548
0.109842569205644
0.152169320905405
0.100629033318321
0.0993903154528528
0.0882450375851684
0.0551431228134516
0.217993516270567
0.115201969483875
0.0864163430399525
0.0835942609404144
0.10864661908039
0.0677201871223444
0.101494024459287
0.0854602067935236
0.119972330740676
0.12001949074802
0.136857957113316
0.161710989252261
0.0714880950388805
0.137529403086922
0.111712485098205
0.0837822902469637
0.0861760772317752
0.0844380547489759
0.0929084822398382
0.107722156285948
0.108737566423036
0.0937126055331319
0.0952419086435297
0.0897167894480442
0.134440481272388
0.088252823998807
0.0945154702790888
0.0827698331127112
0.10649730811078
0.0741840663910016
0.0934484478091255
0.0793707810397514
0.116763492488691
0.0786817085420461
0.0983396189141585
0.149716474043636
0.106812241145545
0.0847887771364166
0.133996663190969
0.0853079334103998
0.0925418883447725
0.0814296120070791
0.0956019892007854
0.0747157662681631
0.086002455430187
0.0794374888385924
0.135696618264388
0.0901672107398954
0.0971549709784096
0.0834799562388105
0.0886684411309096
0.0956603952506823
0.0962744009893042
0.0851957429031109
0.0930359011879548
0.0918478412249958
0.098283279685241
0.105824999214502
0.142427025491573
0.0820304245963941
0.160784962049116
0.133595212189364
0.100654975936496
0.094537062810174
0.101372753620218
0.104355300137709
0.0969771663305267
0.0963369195119174
0.0984155852130502
0.106860168928453
0.125493247953798
0.105070716812086
0.114756376268021
0.12706111213003
0.191713593258503
0.171523270449972
0.121612158064453
0.116503885922433
0.100535333980968
0.162877016575576
0.158727029734522
0.132336342592335
0.158583178062274
0.106517224443502
0.137524377789137
0.10718922317224
0.128057688175337
0.112380358411296
0.132113384011749
0.116916051215512
0.136506140353151
0.11747059314508
0.136687847192541
0.122078626809572
0.150508218989354
0.171026975800943
0.155760442674075
0.129922844454821
0.15318175809442
0.129788548388023
0.19200119137414
0.182687626663738
0.221991278736219
0.198100804433454
0.185394752766122
0.202743440928837
0.163039108698295
0.168260487460011
0.156352750438958
0.168391083985986
0.178509981551556
0.175299491062716
0.169120743493735
0.171867509570708
0.178931893237549
0.175951622993994
0.173680284544241
0.186639269996263
0.185318051578269
0.217718777769674
0.199254820188314
0.197833916665607
0.194654307873643
0.228066860064382
0.251677467982102
0.244816413717389
0.214794048727826
0.205133972728758
0.211723045639589
0.205900546174689
0.222362364343039
0.208800471135167
0.243829273642085
0.225653951188295
0.288888103992336
0.253736061828883
0.261920662826937
0.253975457640557
0.233757755734346
0.268286250478238
0.256384628412451
0.264157208991571
0.288021011634685
0.249743021488602
0.254847005215498
0.288150343532655
0.28902903883197
0.263219915176222
0.308073323440771
0.251726033590976
0.278207538226774
0.266238884653592
0.283888638349537
0.272355130936583
0.29751012346443
0.281743014895019
0.292940302945502
0.296909440454423
0.3090626263685
0.300858008990246
0.326317604478936
0.3215952189797
0.327941604105333
0.329556484467786
0.317522972646819
0.320327446056057
0.322373248760443
0.356405053291438
0.374770070350357
0.348021034620575
0.37525748684994
0.330361551041998
0.353009708153081
0.345829692698603
0.357961675589099
0.350059634771871
0.378916247754363
0.357923727231531
0.370516382501248
0.36721281899662
0.397907522473172
0.378187255351155
0.39747962318108
0.388462858436505
0.396501245456884
0.399703269336386
0.406851136329078
0.392716003276855
0.417408256794127
0.449222850556729
0.478114443428516
0.466181892269396
0.467545991504025
0.418582008220463
0.435747660609998
0.415391722538889
0.458448525502934
0.454596699536983
0.485512275672216
0.449941357223122
0.456647399283174
0.444078498296473
0.467002039777321
0.46530934159475
0.498597397784118
0.472688953517008
0.516638240558221
0.503100035634196
0.507464521688978
0.491250213689967
0.498643027492575
0.517426305300828
0.550676601001257
0.511946343613263
0.551760012319756
0.520620671440801
0.54391686570606
0.518201761181626
0.563552311223527
0.548295029203396
0.553994613116804
0.55686528698842
0.592346261620316
0.546626499426278
0.594322683075555
0.55880029442199
0.594426082372055
0.596705115830883
0.587029956506404
0.571238920773049
0.585905776928564
0.61175719863123
0.627598615484013
0.610554241449202
0.627447114388195
0.592692524777857
0.643944624890423
0.647375014721992
0.671826522647991
0.63839694836047
0.672320416229324
0.638543035139031
0.663285417409224
0.656080951853656
0.694184853631329
0.662505580176401
0.677793355900788
0.653308839274553
0.719827213052869
0.709296727216691
0.696310939064398
0.712484004446349
0.748241099574562
0.706077505734124
0.733921899404606
0.733101709418734
0.750481237876733
0.720655186752325
0.741205308486362
0.70883598787889
0.779545030140815
0.75488324280309
0.737629775584051
0.76723812030838
0.765392777670687
0.75829205406715
0.777177760261925
0.774474199031303
0.803455492369811
0.762067122885064
0.823508742020727
0.811047315871823
0.846520460130748
0.795045954966208
0.820194593208856
0.826678797096952
0.818421458354542
0.823683185711164
0.865703953755544
0.867388477268143
0.868752204742792
0.810574447844447
0.853740085077686
0.855284255147801
0.889145780945204
0.89605226380313
0.964180304279146
0.914192426969095
0.898850292711408
0.898426265607918
0.876230598161861
0.876647702115439
0.913016410091616
0.854367967348782
0.884462519161215
0.877731928137561
0.933762309567616
0.955244975050811
0.921416541964233
0.927091945312783
0.955211978507808
0.995716210768407
1.01969240461202
0.974644950232716
0.984075823135423
0.949758298050483
1.00561281402408
0.983896400468012
0.997468149965951
0.965322520220623
1.00592916528538
1.00945994542591
1.07204325226577
0.978677859638314
1.02004612260611
1.06373795799704
1.03284396854222
1.00950286366946
1.01534373394644
1.0429399820274
1.07961050702707
1.11376172787531
1.09546819629248
1.02841067685773
1.0765297331258
1.0526967233802
1.09740410724131
1.08783668374965
1.09090998923218
1.10817160268311
1.12366468041788
1.11513724376534
1.09346820986769
1.01373158395285
1.07537457005721
1.13115109944059
1.09754442078534
1.09966164161587
1.17543664908147
1.10416704551389
1.19166056398171
1.21361705951341
1.18247640260865
1.11529344839153
1.14355442346036
1.23126924470762
1.24483855107831
1.12941174755667
1.17831603283969
1.22135904537726
1.19914221291124
1.16295539311399
1.17967323335517
1.13180860722494
1.28942250965238
1.18619729454731
1.15609194256978
1.16508255377107
1.07958879803368
1.09193564376684
1.22126915343839
1.2610690041827
1.29162137324748
1.17616646005343
1.15377480422456
1.2418335883952
1.26047720766312
1.13665791169282
1.22374801870681
1.26337324638229
1.16768714362451
1.20327522358517
1.30104789519319
1.21968493537648
1.25520900648246
1.32618594891152
1.4144957005302
1.2870554027927
1.19306140383193
1.23063717579221
1.32830422594669
1.32632713710799
1.27655612560825
1.31522974827313
1.37895188931047
1.31012005244314
1.26974792703704
1.32550907151806
1.39922202560492
1.30652760575178
1.32747276323054
1.30512389778623
1.44128259454517
1.35082228244633
1.20311112060666
1.24361592396047
1.37806023476823
1.27298184217613
1.28568962514928
1.24705414527389
1.28382836519529
1.33169515392939
1.26511469099836
1.34578215416113
1.50604247448079
1.46591278228253
1.34487330505169
1.39991975238014
1.42685038702494
1.37192951368759
1.37475592991045
1.25280336849632
1.31578094722495
1.53324102040678
1.46191115958163
1.35964442778331
1.44321102163485
1.46962404603481
1.33156911709277
1.33489198948339
1.33125504205763
1.27139099343714
1.30936899660637
1.36459640054489
1.37978318679507
1.34903978770954
1.38246224564446
1.45778186249171
1.40925494330309
1.29225518774045
1.35370513237225
1.33465742168533
1.30920989674584
1.35252063468657
1.38702181029877
1.34571773391813
1.38517827202337
1.47173231059679
1.41344670265555
1.35091442841649
1.36723869062136
1.39921589724119
1.45522520644278
1.41637992185141
1.40497840357777
1.49533253128983
1.41746205776943
1.41215412305305
1.37578979034603
1.33016639382876
1.4623698179149
1.49522650231038
1.47044433883207
1.43788308114834
1.46666414512181
1.40850456865041
1.38104550914602
1.30438112329947
1.2994162253347
1.38621488287948
1.41663762478822
1.47735447098524
1.41964008647517
1.4042640129535
1.42450501844444
1.43062020199039
1.50252353115604
1.43079236432708
1.42293462614292
1.39197451734973
1.33454708710319
1.4006858249716
1.38957052095152
1.36937741536152
1.43038601669324
1.41927974015336
1.43014443483792
1.40601559514259
1.35583056978833
1.43089186539842
1.32825567299865
1.29675612944168
1.41437968719831
1.46675882524772
1.46535064647123
1.47686362997763
1.49097558400447
1.43508283039751
1.37343132942729
1.45740644923239
1.46355341932705
1.33831466248766
1.39539739375558
1.41068602289743
1.4092820065176
1.38812243937147
1.3232822804946
1.35369450229784
1.38244785450311
1.41955525059425
1.38336174006497
1.37433658589465
1.36688221518394
1.41760491655553
1.38161460232418
1.34661538431583
1.30865179498275
1.32731396995319
1.33974057623509
1.32531956574976
1.41421013182616
1.47775146492699
1.35384698979588
1.4069213357977
1.44153992054127
1.43874621080174
1.49524819920331
1.47497799264454
1.38119373772378
1.35683571780462
1.27686487960285
1.26853405742302
1.31523035867147
1.33671930274002
1.3112088398676
1.33889879386297
1.33099103852619
1.3824324920344
1.35623921194507
1.346764660818
1.35604340459103
1.36973877586519
1.38392104777573
1.30702285529433
1.26378763916768
1.31168595243286
1.32462625212705
1.28727245383062
1.26209167037049
1.36504116362791
1.33213385155002
1.33279913680262
1.29542792348044
1.27238889257087
1.35992129702518
1.31417803714152
1.25415326280286
1.2252236644386
1.26273932346683
1.33608735045042
1.27651931686464
1.25080140563763
1.25062612615607
1.29280164955323
1.27161162906705
1.34268568712117
1.2750877330061
1.25841775439881
1.21281535741417
1.22357811446069
1.25035666623251
1.28026839765036
1.23825497305145
1.26438798982797
1.27056717587194
1.26093715562415
1.28221768291383
1.26426196135287
1.22697435542459
1.25620984220924
1.20006715959228
1.24140330659535
1.18728463826282
1.12382204970599
1.14618722016495
1.1872708404795
1.18633216327055
1.15886731084822
1.2012632753483
1.16334059508606
1.13641708554096
1.21930866452885
1.19257037103097
1.25129198873173
1.17161026560898
1.13136939949839
1.16191925366986
1.20280115789889
1.14378061364607
1.15891639460774
1.16793631399849
1.11162653635938
1.09579215654545
1.10438198788472
1.12694443109479
1.14284403452349
1.14142082886789
1.12396846931846
1.0753037207
1.14289931014141
1.09940051561699
1.11110586365816
1.07138087934557
1.08604144886018
1.07178660505109
1.06214517725741
1.07955337987769
1.09402529995914
1.08864513887035
1.05541305946794
1.03948401856978
1.08154160269483
1.01103157999159
1.0427756887347
1.05076450142235
1.064627648687
1.04080646261307
1.04683539010052
1.03869428571698
1.02954345298495
1.00227697973281
1.03695931705486
0.995747115490758
0.999738939298916
1.0093065513992
0.985145150821933
0.95740610817956
0.987889056261966
0.988445975391388
0.962920390611411
0.947214036874392
0.962584155388152
0.979203943149614
1.00382135944726
0.952203654501089
0.933338344745485
0.931110025446565
0.945118597190358
0.944632945800598
0.947382000886261
0.909101331831474
0.897809789964925
0.892746623320315
0.905392406795364
0.908113555197311
0.914887352303169
0.91032074256572
0.898860034649465
0.863840313030888
0.861015690358969
0.874238366541516
0.883635739534509
0.868183815381594
0.885098120660461
0.855352893258869
0.840992590596659
0.855274376975738
0.84035357774595
0.848792886895103
0.853592488053137
0.817256280560455
0.833944316348845
0.839015095793429
0.818702668250283
0.800373847970759
0.819172087441216
0.790692363846635
0.806049350196109
0.807022910865064
0.787734601377566
0.805695408136729
0.806405931005714
0.777098307273531
0.787617924569497
0.779610092244071
0.765037843003284
0.765311484960243
0.785207772530377
0.759942088299088
0.759208606083246
0.752028200766306
0.766387511305877
0.739949046693133
0.74491577528422
0.735089521941247
0.724090734306549
0.729106753940293
0.719110858977475
0.722355237929442
0.716624110211586
0.697989500963547
0.715017973494431
0.721202619479887
0.72831941607152
0.715436841877844
0.702802698499163
0.690375339909658
0.707796620241348
0.691886621131236
0.68252360214237
0.660757710569014
0.671828853643772
0.669239821847104
0.66693839756993
0.660870258989887
0.662723172001754
0.644916888119174
0.645799697108595
0.655819269119403
0.663091679680888
0.631254439126683
0.632224504999878
0.630731131751221
0.643061366050786
0.640016064652389
0.621333021428459
0.624570955303841
0.630447136002058
0.620029209127284
0.611299058523856
0.60394568511592
0.611362414399573
0.613253932811044
0.6095927887346
0.602891051662214
0.602606149986753
0.596079840248633
0.597632533498239
0.586340036907538
0.59070505448218
0.577530757038031
0.578862660520996
0.569159567432876
0.578841913241251
0.572461366594286
0.568889061927838
0.559101547469729
0.563510099383515
0.555593549576883
0.565921778848022
0.554318279805104
0.553507706138217
0.553676604224115
0.552725370013316
0.545263836737228
0.548605956857429
0.535677187863709
0.537056990766105
0.540338378701773
0.538166993925954
0.511376439536775
0.52311550549911
0.519958704465359
0.508454016688923
0.514704804734141
0.519647950409312
0.513245609367419
0.52386784431604
0.508562649219306
0.512993274038717
0.503749137223479
0.498955337909956
0.499149247282229
0.493389351115537
0.490555577263667
0.494645426974813
0.492092676249863
0.485081821605257
0.484493190733335
0.482350212087081
0.471520672038059
0.481088739012988
0.473226998426527
0.470477315598686
0.468230252269212
0.470642483938483
0.465032586947995
0.462339945404685
0.461540741802143
0.461256170542467
0.44990981734822
0.456338666020456
0.450029911513803
0.457978819854438
0.446460192019546
0.459612987307466
0.451176050940125
0.449760751198786
0.447555953302357
0.454947592023007
0.441674120649301
0.441305569869074
0.437194664103972
0.439040586756715
0.437823257402142
0.439793225389416
0.434897269337548
0.440720724192974
0.427820837896462
0.43348055334902
0.428991833659384
0.431034003169385
0.426251226980989
0.434369743257102
0.423235498401218
0.428780478090716
0.431080208111856
0.428879693856626
0.428225888285689
0.429066190973722
0.424030538790801
0.425555588663321
0.43376911043808
0.431317767369409
0.428973382898547
0.434747001221422
0.436192808877514
0.429945046892221
0.429163198847772
0.427231375093701
0.436480567387402
0.436666391379906
0.430213167136944
0.441393790323285
0.442828754020774
0.444395186220643
0.447978318619361
0.438755823430559
0.442657467964119
0.454753565730198
0.442476257792283
0.451839285865282
0.447533892533598
0.45379133122853
0.455284836563017
0.471657337187237
0.465742319446995
0.463305147236422
0.46564707009039
0.463883704586999
0.472405188920975
0.479453910527067
0.468736923000133
0.474041170944715
0.472955373603366
0.481705817796589
0.47618787739535
0.49095433378411
0.48875890525785
0.495307792582785
0.489331217517045
0.507996271600031
0.501598347283566
0.514994625098826
0.510747273217679
0.514271281138799
0.518273023114907
0.530685287416449
0.525693585267314
0.527794229950059
0.524950532039348
0.545573852027751
0.548399588775266
0.552931109368389
0.542646513677846
0.569111399777752
0.562836455921026
0.570848993908233
0.571957481151149
0.568527377343914
0.576961533080414
0.571228852815809
0.566038938794845
0.57656109216853
0.580817794751523
0.585260568651819
0.588988503531077
0.600407085663012
0.575094224789584
0.592226007044784
0.57471635792263
0.582393952355652
0.571683947951518
0.589361958202218
0.579312071459426
0.585631216955544
0.580003910163665
0.591614969993978
0.564789348835783
0.565676332729127
0.566793994486326
0.583699410221572
0.5798039109796
0.576328105958306
0.564129769111999
0.559361432833567
0.561094501752185
0.569626959229171
0.57280353162861
0.56658515149956
0.567921745195514
0.566089871602652
0.559197119242225
0.579090821767497
0.567455388301598
0.565218150886143
0.564244218357171
0.57398410756941
0.559364138172333
0.56879885331392
0.559601363264192
0.570270039490678
0.551116544961841
0.575492359307244
0.56943439963529
0.577672811370793
0.561766320073936
0.570095314256056
0.569335863851741
0.568557521932527
0.569360858081102
0.562590282090625
0.557421217530357
0.562965799295135
0.566434937056271
0.555436692649356
0.545466759711314
0.55228818861727
0.543714903361014
0.554677533157596
0.550150970873855
0.555161130663804
0.546176325612186
0.537326958161426
0.53513341769576
0.549580186534643
0.539177041857913
0.540692318927407
0.532073715749196
0.531527007296789
0.521493230265106
0.517903626533683
0.521545825461193
0.505056755770894
0.513232727655935
0.511702392139281
0.507384545234118
0.497957102775942
0.492194275320599
0.497902426416496
0.488064996569643
0.489218308242123
0.486053353622922
0.492659128595841
0.485355580291214
0.483174987856809
0.466933937813717
0.464880537920479
0.454987935067593
0.458148015964259
0.456651720065221
0.455442782128997
0.454343773975381
0.454220077595154
0.44794737275928
0.447480140260395
0.439330763768082
0.439225560762043
0.435192797632098
0.444851756829535
0.426836662123937
0.434639780121623
0.429882513595426
0.423611429376239
0.408829693473643
0.415633637040631
0.412242233919252
0.415831614358636
0.410028706264631
0.408275197663685
0.404817286260799
0.404125756760849
0.406558063972733
0.405990068098938
0.404047085849939
0.394317815344618
0.391851550421268
0.391999922239414
0.397333731384416
0.391412242897957
0.388301041723666
0.382091589951769
0.380842468675897
0.381027508047916
0.38121929998849
0.384554261263765
0.373109062854784
0.377751463799751
0.372628459111576
0.372789546949211
0.367992920875416
0.371077539354743
0.360263180900536
0.372462201041979
0.36781305954938
0.3652424327908
0.36104749296422
0.367175585026462
0.36035628310517
0.355184571744429
0.359243709703278
0.365497386912953
0.357814353368477
0.358589260363379
0.351949414203037
0.352035367321657
0.347996242119329
0.348265593155088
0.350387038221401
0.344131546045627
0.344750094516908
0.343549513121916
0.343648238164665
0.34045668375815
0.341049467364898
0.342768958856572
0.338173178668268
0.337804083417996
0.32954572424366
0.332158357370889
0.333319322258182
0.334789267078057
0.327944834396503
0.328868090330963
0.325012619912249
0.332789080410985
0.330062321117319
0.32775440830406
0.325138765893774
0.323598787703851
0.327450888771706
0.325167729195835
0.321088683550957
0.322833481612244
0.321866499849495
0.318466779335917
0.319987779108871
0.316889726726218
0.320924502998417
0.317693382055888
0.315717529697625
0.314158124003061
0.314299217524105
0.310948451989851
0.313216510156554
0.317425854307059
0.31413339281482
0.307666581238995
0.310077523940642
0.30796254321654
0.306044879352879
0.306574750511164
0.304153850216734
0.308964700745613
0.304716857646048
0.305671178755667
0.303106614951465
0.304420397022596
0.301736524722232
0.300072152440486
0.299704801796096
0.302974876928845
0.300502240447491
0.298787376873218
0.301862317582135
0.2974838268966
0.294270330355294
0.295458229618833
0.292769244280315
0.295584091658004
0.296345572932732
0.300629073956666
0.300569848398256
0.295104919098106
0.294997700770974
0.294097459324333
0.289752455535952
0.295615726014717
0.291680063373638
0.289856988071586
0.294811066726057
0.293055375498811
0.292979369207916
0.29126883236771
0.291477108513324
0.289100279774832
0.288979700061054
0.290732627478879
0.291719363801177
0.287036654685061
0.281068334612778
0.283369332743208
0.278726574146753
0.28477300596734
0.285449105615935
0.280156064125942
0.281008369583091
0.285779455072353
0.283883748607633
0.280150931718274
0.272978938726064
0.279682711593705
0.280089166302136
0.276588271182358
0.277570425492214
0.278480388608487
0.272693084027993
0.276062808471201
0.276045536671424
0.271377365515757
0.268295093569286
0.274082387630809
0.275340303656082
0.269479705700103
0.265820544433741
0.271703863079076
0.267190700146784
0.269668397528368
0.266509973290803
0.268469477515114
0.263029689198851
0.264272518312568
0.266894324271649
0.265699255746695
0.26440127854322
0.263626731673211
0.26030075117241
0.262383646976963
0.259899689650756
0.262378976764927
0.259559232532158
0.258964626440756
0.256227131608572
0.259260415196849
0.257179349780695
0.254653123162404
0.250911580496368
0.255143683146544
0.253734339738582
0.257327268172264
0.251529361876522
0.251140097154167
0.252047969527509
0.251876833124927
0.243433810506787
0.249218974070298
0.247740521104062
0.245233243756195
0.246473761855097
0.242799085182276
0.243405803716702
0.24249078987578
0.242397640210951
0.24460380151189
0.234350179312521
0.2364989360834
0.235421742904283
0.242263045289101
0.233351102760381
0.234405025106056
0.235116251827637
0.231587435980711
0.232327375194317
0.229206858774191
0.230449639982958
0.232456564061533
0.225550214133099
0.22797731836449
0.230419066795389
0.225383073555202
0.225976079027404
0.222478105159335
0.220770819240529
0.222135538050123
0.221662792572865
0.221352093345408
0.221342501920059
0.220847469359866
0.215127923045466
0.21512427045119
0.217547959375162
0.216438900142747
0.212936783337346
0.210804548831459
0.212509596274561
0.209743558680551
0.211061741621982
0.207004105639622
0.208557978598229
0.205485092312291
0.202030631782213
0.210405587564118
0.204252208482175
0.204168321630843
0.200953229589911
0.202019212377932
0.204312160848382
0.204498562975943
0.198263633636789
0.201317144917286
0.201552390730135
0.194897177055615
0.197359875568387
0.19597386926413
0.199679685453431
0.197243093878384
0.191865378628429
0.191698221860765
0.192950163560254
0.194622696169484
0.191353177418629
0.191765817438909
0.188974020841578
0.190272198644187
0.188543245837307
0.191937027277083
0.192832016686139
0.189285418023851
0.188010451178965
0.191779917181616
0.185257831795805
0.181496394243196
0.186443634858498
0.182653628805003
0.184627340000023
0.180405946332247
0.183340776735342
0.179562363381232
0.181731183037692
0.180327816413234
0.181833936540966
0.179636090627319
0.179137498666385
0.177583792211195
0.17902193913565
0.178868250825111
0.175781014645339
0.176705705326315
0.178215137791765
0.176138855108672
0.178118302593959
0.174483080386278
0.176348073041088
0.175360074840427
0.174379991798577
0.172110575678754
0.172121082659053
0.170894646123127
0.172382603627204
0.171459206262122
0.171524372008754
0.171260001839495
0.170765881446147
0.168276880541341
0.167653638327732
0.167950831730905
0.17288177708661
0.170797434269051
0.165514772688135
0.169663746410156
0.170507592316259
0.166156373751483
0.165818753171549
0.166417365540181
0.170204712964147
0.166896161563285
0.164826740036054
0.166553264704297
0.167224411337303
0.168325182361409
0.165331809601948
0.165746116600796
0.164361225110071
0.16410138834369
0.164238220758585
0.164562118688256
0.163011843577051
0.162924242177479
0.161835210413767
0.160713534648983
0.158492923932895
0.157168658873477
0.15990523103604
0.155569145976074
0.158684586712114
0.156317139018222
0.157430854166545
0.157695935327094
0.158708540603419
0.155061920603401
0.158023039680055
0.157083761383047
0.154525566373977
0.157982138086415
0.154876567588181
0.155298509500816
0.156391991185389
0.149554868818512
0.154117118615405
0.154625201047978
0.154799058721551
0.152535150142535
0.155425776329348
0.150521444159803
0.15205569478193
0.15168475809365
0.15136705969618
0.150061684792667
0.1514533259441
0.151141294967433
0.147963650373061
0.148241729306509
0.151154055933477
0.148553553733713
0.148385705846803
0.147727787033737
0.147503374918815
0.146531296128889
0.145578292075801
0.146535719976521
0.147551896973297
0.145996127028091
0.146702184638786
0.146859665978227
0.144117940637562
0.144939088973926
0.145249969169794
0.143429746449101
0.147941432300329
0.14305038222878
0.144659594374439
0.142341779013167
0.146200464919867
0.142753885023222
0.145203006957044
0.143458873255382
0.142957825507889
0.140494601329462
0.141350615036023
0.139512670105734
0.138625160657178
0.136086712184176
0.138766252407324
0.138387623188422
0.13727746841106
0.135941637738209
0.137425041535269
0.13601035890425
0.136596745712495
0.135553776405609
0.137100895011545
0.132998740757094
0.133614375872438
0.134297746471208
0.134237583510662
0.13158032329138
0.133374289436688
0.132630795750081
0.130281126844299
0.12969394187883
0.133958198262962
0.131422618352658
0.127868107458732
0.127765781774011
0.130835991796994
0.125727174900395
0.129062484386595
0.127131046436299
0.126800293400339
0.12613627796563
0.130213701229133
0.123338383486067
0.127526368531468
0.122458217305718
0.12434814791721
0.119563545332124
0.124860913831078
0.122121723435159
0.121657606105555
0.122103757231152
0.120991185841464
0.118669816343663
0.121604426035005
0.118906593628508
0.121716695586351
0.119364048480609
0.119531521076291
0.117599128218138
0.120305618909784
0.116875930699656
0.118269651153959
0.116911137954108
0.117087014898959
0.114900854972965
0.121827541466085
0.11181929306109
0.115587177475147
0.112829176832057
0.111822750123518
0.109965921035442
0.115108681801196
0.111635536169809
0.114439482827914
0.107403580823708
0.111678161138452
0.111207660577225
0.111393648306447
0.109707611866433
0.111802385641709
0.10797511730007
0.110006696725247
0.106808890814514
0.111213758919708
0.106338953252114
0.109456449107975
0.106247831972534
0.108590271323586
0.104690477766032
0.106730391439567
0.103434413904706
0.105448711158072
0.103254503718199
0.107409151212758
0.10359317555401
0.10737070868891
0.100677935720396
0.103183091473185
0.101704427341232
0.102954577083764
0.0996339482463498
0.10540777395947
0.102719468897383
0.104370588786299
0.0998238210152742
0.100884182776456
0.09998240284621
0.100994738732985
0.0986817494150536
0.100709297227583
0.0983875696403488
0.1011737378311
0.0962530504954986
0.0999690380909234
0.0952723699861642
0.100119687150466
0.0963285163663056
0.100914779545297
0.0968722559068097
0.100744153866896
0.097889237056103
0.101660057771794
0.0977537746949612
0.102492960726426
0.101169773956371
0.101862826731872
0.0976414196912338
0.101155359573228
0.0956656833071523
0.104181287632072
0.0968030059556203
0.098885342202408
0.0963085234088337
0.104035263234533
0.0948858158145414
0.0984476840316238
0.0925985647912856
0.0967806013680661
0.0837522871104876
0.0964320226185587
0.0926029929523727
0.0986498917560974
0.0866018446685687
0.093845112163762
0.0906148794683115
0.0954540842879621
0.0825271055071519
0.0964205170846447
0.0881511758921588
0.0950666045272128
0.0906775095454572
0.0926719354273629
0.0836792615128633
0.093881477141075
0.0847879911518978
0.0995115523252208
0.0836554123486644
0.101836152229555
0.0874856092900574
0.102266890501911
0.0832717615396497
0.102828750097948
0.0817009814261241
0.101601940048603
0.0787545849658176
0.0956255927500806
0.0771893175149557
0.098152911739791
0.0769664961258246
0.0983383928760254
0.0787187704853704
0.101467281763289
0.0779124046853566
0.100271417716422
0.0744209623324353
0.0945042332762295
0.0761609962933725
0.0966142368908578
0.0821059885142329
0.102486486053656
0.0873741602099633
0.0892211296232883
0.0861429696405529
0.0861991785885438
0.0956253585427588
0.0855539247959029
0.0946504866399785
0.072445246765822
0.108436522199513
0.0737255112578672
0.117419284523604
0.0591445341479336
0.122619532393166
0.0576830782279558
0.123544768197581
0.0590081470124304
0.121981673979701
0.0649475316806102
0.113902445662699
0.0752270746075999
0.103905001645116
0.08342624065824
0.0943551257480369
0.0887124730650615
0.0889433362879337
0.0913101938158235
0.0859578986720663
0.0879665244838841
0.0871841929755514
0.0864986927096824
0.0926383024221292
0.0806426376232504
0.0938361661017368
0.0827630533495061
0.0918259309912229
0.0837799882837265
0.0897728991060323
0.0846518561133961
0.0885700632863194
0.0830257403342412
0.0859387216563687
0.0840807994057402
0.085964148825444
0.0823068817882766
0.0890048804676863
0.0856428199045339
0.0882926712289237
0.0852988018778999
0.0886676155155272
0.0852058818478896
0.08765458141736
0.0834503693176318
0.0890351632195161
0.0848249525274781
0.0861077980724022
0.0826413107344376
0.0866521158286022
0.085865587002805
0.0867153220364583
0.0829258682818587
0.0849861209031937
0.0840017243051731
0.0874342037748814
0.0836792297210078
0.0877227221916284
0.08718574446398
0.089535689078209
0.0870885165070042
0.0895698996719482
0.0843413759624728
0.0870540641500297
0.0867195302871892
0.0853316881045668
0.083620010596124
0.0882816302886413
0.0864624974972562
0.0878522625149965
0.0865796299439319
0.0895651045306314
0.0848828707467651
0.0867392117575386
0.0851870005312926
0.0860469928739744
0.0844421838881879
0.0878592129609941
0.0857203625712434
0.0860679792500798
0.0884423385452614
0.0875938558483403
0.0849206496531058
0.08678351142987
0.0879560506705578
0.0879560085159112
0.0847029498344814
0.0881668817324147
0.0889757848867303
0.0875548213123051
0.0859126379976776
0.0887365063494322
0.0854683595403483
0.0875647187111165
0.089599973333072
0.0864769057442142
0.0858404104339549
0.0888689900311779
0.0879766964856696
0.0874183462689981
0.0887453720275019
0.088233666286294
0.0882153609111983
0.0881448604141404
0.0880094134021363
0.0870940743389301
0.0873204232560813
0.0878982529172804
0.0892468870493257
0.0893724619926565
0.0889831659961976
0.0891023294881004
0.0875087374963383
0.0873875119251062
0.0878802660062994
0.0897170738470858
0.0911463814003053
0.0906144873254352
0.0913254331793385
0.0913084422296965
0.0914550453842723
0.0916682447212085
0.0897524900808496
0.0900148455424715
0.0901813080141918
0.0896498614091236
0.089694167989461
0.0901522591212045
0.0907148948437371
0.0928194953480108
0.0916804044048684
0.0921264094109971
0.0917770940552808
0.091620222081488
0.0922850207630885
0.091823968149698
0.093064183901787
0.0905706035789711
0.0918568297219512
0.0927791244318212
0.0910342269411953
0.0933320672013884
0.0925723069072466
0.0918164677999597
0.0919730378915473
0.0933702545224493
0.092675054223176
0.0937447076568644
0.0923274630103554
0.0924081886237035
0.0922750760501808
0.0947140899183567
0.0938531164170027
0.0915140635256681
0.0938227488086088
0.0945378845035253
0.0931894396699419
0.0946509419793398
0.0940272121798582
0.0924934698579052
0.0950179847151052
0.09482246241734
0.0945429502676616
0.0945072413495351
0.0945301816710142
0.0965498960594471
0.0967836280244744
0.0978878066031253
0.095901334123573
0.0967391765497039
0.0974660622233633
0.0956421350532688
0.0980386343505307
0.0966167645804323
0.0984759661115002
0.0987924665673085
0.10005371883278
0.09770424126981
0.0977140456876984
0.0960826548447965
0.0975324845167612
0.100944827847638
0.0990877549244707
0.0982137768135483
0.0996524154677643
0.0977222916893555
0.0972908550655885
0.0971118311665584
0.0985641142065335
0.0978333954500943
0.0999532382163432
0.0985887350768558
0.0991812937863041
0.0957178181546296
0.0963426657685639
0.0966852321112266
0.0977872324642085
0.0971509401457031
0.0970212710513666
0.0948351118083556
0.0962692158217787
0.0958756883398729
0.0968142871113236
0.0944163472035189
0.097462021268413
0.0957658043006818
0.0962436283662211
0.0955740775212895
0.0959212834509868
0.0939649400493503
0.0976368693081276
0.0942219608499596
0.0978608439267083
0.0941086354027796
0.0940344604590415
0.0946773737848797
0.0941508929227941
0.0931046104115141
0.0967176043487747
0.0938917710182851
0.0942000305734107
0.0925268362371705
0.0918508153058644
0.0939515075236337
0.0948358622198
0.0938951403358187
0.0937828648556385
0.0928812093250628
0.0934463223280248
0.0933389130560132
0.0939666527580394
0.0926866423686613
0.0924148684154825
0.091779795844975
0.0925248987662509
0.0906046473519153
0.0930999155980571
0.0923751598295254
0.0922712369043606
0.0940832520568544
0.0962724808937885
0.0932141098355082
0.0943974370887762
0.0922362834563312
0.0903079626983859
0.0913045026215147
0.0924285130982164
0.0906038760129877
0.0919581837953671
0.0921412924333889
0.0948962132422369
0.0931551705931022
0.0914596972769289
0.0911263182862424
0.093019014478623
0.0909239552767997
0.0920516685409219
0.0886335271970753
0.0901768128111183
0.0911199928055398
0.0911453500340668
0.0919793840101941
0.0936200760893965
0.0902526474312394
0.0911662123364383
0.0900627120477614
0.0891107099691899
0.0883980443629964
0.0908047361346821
0.0894567594906852
0.0914419708142974
0.0914142227986768
0.0880058342513303
0.0881604857352194
0.0901473090001943
0.0889138053791708
0.0925195377730058
0.0937417862431099
0.0924375242016598
0.0899946980432334
0.0917322850157418
0.0890550408411967
0.091818277035403
0.0901266856383426
0.0888207443654073
0.0870424714121211
0.0902421737528934
0.0878313710919542
0.0901654497398966
0.0880451205346148
0.0901544344837252
0.0886714431085225
0.0877623336520045
0.0852660854172797
0.0894297572247164
0.0881071604146333
0.0874937326551641
0.0883452326970856
0.0886710821658552
0.0870121306838978
0.0869168677303619
0.0842648631647796
0.0867124124480633
0.0886153450993112
0.08737967694658
0.0871185789149257
0.0854074444449094
0.08258508729724
0.0863990213720486
0.0853590163769814
0.0867634550419328
0.0830902807521921
0.0851980758481729
0.0846260896012968
0.0833754884833551
0.0821127860061807
0.0843225319717652
0.0812325002577147
0.0817717043731989
0.0831507649727069
0.0835234985355118
0.0829284925387254
0.0851360603818804
0.0792208597876206
0.0804321566054009
0.0805103188888806
0.0798482557201125
0.0816326488997144
0.0850461201324415
0.0841542476952992
0.0845049101645308
0.0769390990008225
0.0803374638314943
0.0767823504525011
0.0804081004980014
0.0777251227782702
0.0793104238469455
0.0751809320012436
0.0757679605492122
0.0757055418052102
0.0776537460793003
0.0747216827445384
0.0780355738608357
0.0743971267482687
0.0770917577094361
0.0761106544188424
0.076773375308842
0.073779755967317
0.0772784408377874
0.0720928255201043
0.0753148026814653
0.0734562862394005
0.076999540084882
0.0702764020877137
0.0779478483085372
0.0794500477473503
0.0873194031468857
0.0754332607344547
0.0730627292964572
0.0741115607378444
0.0775219044782958
0.0730006031938449
0.0739026521028948
0.073229817527286
0.0721926972099353
0.0744146456846694
0.0735527623833997
0.0729354732336282
0.0737039250265711
0.0718187637396281
0.0748446161637555
0.0741206144914908
0.0726668552471945
0.07154755759004
0.073317264253756
0.0705041634457314
0.0716228454861639
0.0709831508621242
0.072765728196718
0.0715755049101299
0.0713431773216906
0.0721868665456674
0.0812374054773868
0.0797298255058693
0.0738513092121844
0.0716963150624132
0.0698432643397979
0.0693367018963921
0.0703527386258102
0.0704552044686491
0.0711806153786727
0.0700878947625365
0.0707067363244294
0.0701843719602684
0.070870527736846
0.07173305954814
0.0710361964930633
0.070129533280528
0.0701785367924349
0.0673121049481264
0.0702825207888117
0.0691657698627705
0.0682541944778056
0.0702323791839349
0.0680800833966796
0.0729427618384556
0.0701861497452694
0.0697469300276401
0.0770921497243125
0.0858981354373829
0.0751877599533316
0.0671044027551679
0.0712613843074954
0.0657829999252721
0.0700693754277823
0.0659408642291447
0.0703002568607623
0.0661616167518045
0.0703520429484351
0.0695349946764261
0.0713845135560126
0.0701570098756349
0.0691033584122462
0.0660826853845971
0.0696544044142839
0.0642260305064391
0.0691934932031767
0.065058006162991
0.0671963664438515
0.0758148209920086
0.0863250026184572
0.0756921320227122
0.0704810374090929
0.0658291228876284
0.0739712477554222
0.080801941190711
0.0836123566193953
0.0631339265502125
0.0706812589426207
0.063714873832696
0.0688692624859276
0.0641627587144016
0.0677298568973612
0.0672338953331662
0.0773245800136935
0.0683621331866282
0.0720676298988785
0.0678321585338081
0.0671657067443078
0.0644955061986791
0.0680479745737693
0.0637746121706494
0.0659309213296033
0.0632665686080561
0.0672884154744357
0.0655850864979656
0.0682247490491458
0.0652927531143241
0.0676084043839077
0.0685139309296795
0.0788826070012422
0.0676323935906917
0.0688744089509829
0.0658740509238219
0.0664322849716576
0.0714134273334292
0.0841232318436648
0.0682393542359985
0.0659002131601817
0.0672391662534702
0.0659510607699098
0.0692721565480642
0.0657428665402039
0.0652049148487911
0.0659548347852192
0.0640142465206938
0.068634450242926
0.0674284067146748
0.0674240739165267
0.0673725692584473
0.0660072020196925
0.0662885412726805
0.0673925897808631
0.0652395425974213
0.066849626132362
0.0640123020007823
0.0726488035482362
0.0784733942931445
0.0976860298835856
0.079421552699696
0.0818313641730252
0.0713688210846781
0.0684313691457667
0.0647382583805573
0.0688070367869535
0.0664755178159901
0.069000498961214
0.0661369903391472
0.069754774327342
0.0676043057650875
0.0680077894528931
0.0658313729247299
0.0674160753686422
0.064310891503909
0.0641985619882617
0.0627371767077881
0.0669586350050039
0.0657729241609651
0.0642938905169449
0.068912032732782
0.0767056096278547
0.0785802768901966
0.0668583680282484
0.0766542351954368
0.0888409121481214
0.0989299050157785
0.0747627812406647
0.0741602078515215
0.0701643248428303
0.0638931194132066
0.066565426398803
0.0694597436816926
0.0740971951042018
0.070019868173359
0.0671367852064998
0.0678102539410902
0.069893491380217
0.0672263726746053
0.0695822666262676
0.0823444247107335
0.105186345556395
0.0827464257870332
0.0691652803946777
0.0688009402989658
0.0818963193064093
0.0941417716662448
0.0770427552396039
0.070724801464842
0.0758122370168669
0.0633052521421651
0.0706342142144725
0.0651008269570696
0.0712963328191128
0.0724263257739994
0.0755958285302858
0.0671731896430192
0.0698866579168713
0.068213368837162
0.0723912674162364
0.074620382578207
0.0857733289330926
0.0789964899956351
0.0744127706734994
0.0743634837952141
0.0765083995375108
0.0704544315552662
0.0750833577311359
0.0675822323407135
0.0736561357292214
0.0825827348777931
0.0874297225872511
0.0802287238235186
0.0900636637100331
0.0817661071964994
0.0753787511264355
0.0750654308986819
0.0899766917511257
0.0758266182575517
0.0805257717276328
0.085379872598755
0.108479665413515
0.0983133865546106
0.0921535703553113
0.0827229188388503
0.0766902577004799
0.0768795621628435
0.0713883630702359
0.0836925288077577
0.0848171122458944
0.084741564439553
0.0742913239155637
0.0785439565647174
0.0884716408006337
0.0949058208367096
0.0818011510418041
0.0837850141433464
0.0760322824455111
0.0833521238208492
0.0923849015534823
0.0849714579803005
0.0875870726542419
0.108641432216144
0.131203834130149
0.103357072744875
0.0876378512797988
0.083687651834577
0.111693057359254
0.0927530781474385
0.08060227521806
0.0858411328165606
0.0813275954866601
0.0805695884434141
0.0913737807018027
0.109184248533857
0.0961231764598627
0.0832844310398436
0.0883035802940312
0.0899503747697145
0.103092982963802
0.0996975316203241
0.0860490176012086
0.0895052985366629
0.0848551602229314
0.0992175791109766
0.12691919844161
0.116889322118779
0.110793673476946
0.122946717136641
0.115778267115649
0.104337875996373
0.10835224312322
0.100894948713527
0.119015010171418
0.117504989361198
0.100952793500604
0.0951465244787288
0.121975710199851
0.123178044779895
0.109118045898921
0.101059561538814
0.106927280098388
0.108597349410963
0.155254643105425
0.168065205640995
0.143033589948984
0.113258451440898
0.123102889751084
0.133081192517118
0.122186018562693
0.109394171284237
0.114244827745588
0.112086395677493
0.113429328700324
0.1191274181932
0.128516112264747
0.123527546505877
0.12068856841467
0.117296844799389
0.128564312742529
0.149734949538748
0.19461338299721
0.163493766150915
0.155602632082381
0.167299643333973
0.167588054826073
0.142389043317174
0.13828972549784
0.133032906760147
0.151603481270898
0.143610736393509
0.140597578204915
0.142842781626261
0.166903632592244
0.167242088315077
0.174319607087388
0.170859482232288
0.163688565485979
0.159695490581437
0.198417141746388
0.273117044047233
0.211683419249777
0.176997091151869
0.199547830620794
0.194125451145456
0.25433133482466
0.198100598346928
0.189981190351938
0.191102928266013
0.196523360787368
0.206447173172235
0.220739782411949
0.221710988774381
0.237227912800019
0.220316580614631
0.235417419393775
0.245903311527618
0.345504105898775
0.309079288788677
0.277089862056476
0.259401017987762
0.286143636889643
0.279256983833643
0.272501242093731
0.271492193583241
0.285068395919223
0.301236943664918
0.341953975809347
0.304707864942917
0.308363258018052
0.32597120857395
0.338607028418596
0.327514794863796
0.375252596225063
0.367937634789856
0.350767900908045
0.347247688023552
0.355742467664468
0.359229149618344
0.373561675643443
0.390797302914636
0.403923154013706
0.376064885778363
0.389327464025249
0.389325224286607
0.399844616440465
0.399960199795529
0.410333987872165
0.408117143101781
0.461821180897662
0.462593061118026
0.609515021547621
0.450862365076325
0.427692181452241
0.418745837700497
0.434051859937018
0.455216025489438
0.464244166401105
0.461314496053664
0.456535111467498
0.421284694320981
0.432150865554621
0.433599688097712
0.437177358213183
0.430069441259037
0.438208872760108
0.432105055602664
0.471625035318436
0.437571663484163
0.500496651610364
0.497871428567065
0.448035694767689
0.431078264103729
0.434546583847267
0.421196782485135
0.43090756739003
0.414716955949986
0.438191436934957
0.441863493702556
0.420442585591934
0.412886085137416
0.417974530741167
0.435874043923791
0.442600449968342
0.410157872303941
0.410892929693651
0.392192186066736
0.399239069252655
0.392301189527685
0.424382359607956
0.4392278216492
0.401929006297979
0.383738355628105
0.388895587717598
0.37008264574536
0.377586040116344
0.367955649774142
0.381838268201562
0.36916439315302
0.372541028662205
0.367547830823791
0.37059834040432
0.355498401271285
0.363064198328532
0.364658122265871
0.36121073473983
0.352324115305555
0.353100710781643
0.351818920458273
0.356384925255106
0.345053823170075
0.354938300396221
0.354862141083919
0.363260558693459
0.350568694286443
0.35704428447522
0.345739092342809
0.348228344460821
0.350731850346783
0.352062253303616
0.339137506901445
0.343775533898126
0.336622029304019
0.342406236219701
0.338242539405013
0.339643217162989
0.334680426377841
0.341302759319456
0.32858609777635
0.334441680287444
0.330446167546846
0.336448154177272
0.337170740806622
0.40901547035488
0.346452445742966
0.332376117268663
0.321295615736176
0.321503744111004
0.317352250883728
0.321296559828888
0.360441251965101
0.33790349308134
0.31114322172059
0.314330113046774
0.302862708180679
0.324770919719642
0.306326303392241
0.297786059816323
0.293584728014625
0.298866220698449
0.328728768800023
0.373194004671642
0.394311495644258
0.379801414922192
0.308501819508734
0.283951663973872
0.298226794346931
0.31258620806321
0.270071407432215
0.277029562345685
0.270673085118546
0.330122433146927
0.286465571685407
0.264814481139875
0.258296646597968
0.265233763924921
0.293989815224625
0.296708564000997
0.275002035880256
0.296265985735282
0.299741558320488
0.296156355640289
0.320518182203804
0.324796143990021
0.277415403483987
0.247707740767866
0.250438587620579
0.252085792326246
0.257942585951492
0.311892548888963
0.255482950446128
0.260902637656955
0.232831714703291
0.233933677222939
0.241523293379703
0.265406015302016
0.243783449312284
0.258585482743453
0.273911923674657
0.230856819378764
0.252562516979311
0.264912936637425
0.290546752008133
0.291283538781302
0.23357823923801
0.232428145395833
0.275729881853164
0.284151190189765
0.239332774352965
0.24721844445226
0.21217173935654
0.234119286408807
0.237220228556861
0.223974269039954
0.24839385280322
0.253177304842729
0.267812927240186
0.297932718022851
0.30059920095476
0.290209908178934
0.233573774322857
0.220435911747914
0.221553537462086
0.227842890824988
0.222980103792032
0.22671356498765
0.26379029688295
0.23222208547406
0.230283569347003
0.282889019432038
0.240043460575606
0.233530404913483
0.228294997241148
0.234709315938604
0.242282348798981
0.278161241633427
0.293920539830632
0.269495954923315
0.269479791613185
0.285964242191172
0.260816630699929
0.263351319595437
0.258091429391644
0.270088031912315
0.269745666468997
0.293940728396816
0.286327615775951
0.289187077217156
0.292838008322891
0.301974073482079
0.327334860996165
0.339418024760018
0.314380410898054
0.371772641514833
0.355234154638901
0.417624865543806
0.356602649084399
0.35835356911751
0.357306617092544
0.367565473440428
0.373916899024833
0.375252786033415
0.392564255641882
0.433622168385947
0.385661072257484
0.406404135072354
0.397751234792555
0.412933935059895
0.417781972244312
0.468274112789347
0.450724103399704
0.510806382909988
0.480985236549431
0.46888285808505
0.443459508109043
0.433256946720004
0.452198644211557
0.449501890899375
0.438229716502679
0.445038692574569
0.450290644607626
0.483269125625327
0.448896894760191
0.457862407924333
0.449638622085458
0.455794105888066
0.456176727877328
0.461993429484446
0.457221662135087
0.468267038892808
0.461641698740777
0.482421793934002
0.472012474106754
0.574275596513899
0.493663794365151
0.500801474368537
0.496623252476655
0.502150428445435
0.497768089754366
0.510296464789731
0.525750065119091
0.511793049472671
0.509181337243698
0.51702031527742
0.508641528505136
0.525422829911057
0.539314453816115
0.560299995830601
0.51888229074034
0.550758312763625
0.523672285198501
0.586493486187987
0.584060150190244
0.571986379492104
0.572070360186878
0.555175129170433
0.550268787631007
0.554305289639909
0.548731058746258
0.565187583183314
0.556302940076494
0.554067857533789
0.560692395528527
0.552755771534899
0.552600601475428
0.559563918780064
0.555629273929473
0.586713449947063
0.552252353778176
0.554617184127608
0.542366335655289
0.543116203008626
0.545830245659008
0.578860978301249
0.566197941279482
0.552080926665959
0.547051586925882
0.573037933293269
0.571223910237335
0.568750423392712
0.530271537629118
0.554017843907414
0.536950526150103
0.556468071089532
0.538126548695551
0.561240690672993
0.578426372303747
0.568055427487354
0.557471531890537
0.554776801934238
0.560052439070935
0.562873418950045
0.565390211480969
0.568878419799782
0.578098234344086
0.579586342759501
0.585674942946648
0.580434793558461
0.589646683297918
0.602057702441377
0.609487890417794
0.607636529995707
0.583340885430001
0.589328649212415
0.583205418886143
0.591620714435691
0.594530026117646
0.583068339399116
0.579196605722747
0.5770180149301
0.572781841205032
0.573419709102267
0.609000125652842
0.578737142090503
0.58206152538733
0.558751244271636
0.555010652749587
0.557708997231555
0.554471385484766
0.553206961768964
0.545562880925619
0.551369899080947
0.539382563093446
0.539005325343027
0.539963081910571
0.537903656110705
0.532156255495636
0.533613175566242
0.525958133198532
0.526288399089158
0.537280679303402
0.532282245092849
0.523451607415709
0.522709500230994
0.524490425415264
0.519243182635006
0.545416398015707
0.548905277305526
0.548837294448288
0.527211036606472
0.52909493930299
0.529785850892906
0.515643495214733
0.523230732563154
0.514301920048046
0.523989346570529
0.515622987358147
0.514387816702324
0.516108222449644
0.519012706017622
0.509322247613094
0.519807076877443
0.504925612010131
0.514258665533011
0.502385413425529
0.506348079997917
0.494815973088155
0.506626095335651
0.496648306199223
0.511940204446766
0.498779607139706
0.497455911990283
0.496267996507462
0.494812975558344
0.496956685478068
0.495646561750095
0.495161365363856
0.494635289367064
0.484025069891314
0.492158493883578
0.486201797366671
0.492826566233045
0.485272119785246
0.487554251673108
0.484603833364839
0.485633261208798
0.482080611824804
0.480782362399814
0.477734624642879
0.474412951172479
0.467520521009959
0.466270619105057
0.458537470489651
0.4651032926321
0.455136928430432
0.450072366838573
0.449496933939464
0.447698751223116
0.441620803153486
0.438185361261145
0.437736198342866
0.437112915723217
0.431526086712987
0.433370232476887
0.428357158897083
0.427411377013186
0.421693308810118
0.424537387343191
0.424709176789151
0.42292753871304
0.419252799167066
0.424387176137007
0.422316242706415
0.420910885390579
0.419701757632667
0.420564356425544
0.420151829317077
0.421748569399069
0.423968389690581
0.428871028949522
0.428803991944306
0.425630674802344
0.43138948814628
0.432222905749253
0.428309759593134
0.434219209350029
0.437090122700408
0.436592076146346
0.439103652475785
0.439703764706017
0.441985155570167
0.438139685498483
0.449128434667564
0.445262672254105
0.442570397863736
0.443241481924218
0.441453991500535
0.442410600300994
0.442002704264688
0.439533984270625
0.44023263743618
0.441847227710869
0.441877430715579
0.435787845371575
0.434919949671353
0.434427198793483
0.434570074495068
0.432699457437795
0.427987821274555
0.432963370048252
0.42983767887699
0.43086248606735
0.428047632044141
0.425757286336507
0.425122104379796
0.423032871375518
0.419068144266438
0.421826875788239
0.419823269443808
0.418078616626858
0.418867691798751
0.418085221853412
0.413638414329875
0.409110830380868
0.410297228364055
0.413450866192605
0.405536714356487
0.40611622607658
0.4016196619861
0.403817177406146
0.397475687038268
0.396895114998896
0.393861330366276
0.393240821115293
0.388495193745851
0.390140465480976
0.384675035072555
0.384089826754744
0.380092060504859
0.378159118892545
0.376434005577565
0.375605636743936
0.37162095980689
0.370980098942994
0.368673303493891
0.366369505398544
0.365124016303063
0.36518240778428
0.359940431760318
0.360553950250081
0.363211346614801
0.361220755172756
0.358333048417334
0.362503457557369
0.360734825737443
0.359294128639811
0.357946294227605
0.358761468683942
0.353791843707647
0.354133091451774
0.350782089136538
0.343993064562819
0.34099097710613
0.337782808184189
0.335639619143388
0.328981286227055
0.323277903108864
0.321749048470041
0.314473702450307
0.310106707344654
0.307659713254054
0.308577300403764
0.302781639973373
0.308497272331728
0.306546115750259
0.309617942076464
0.313612845784465
0.318124194186677
0.32657758143493
0.331158116088226
0.341372560570417
0.351224016368052
0.364188165663548
0.379040743228633
0.38984671387223
0.405592290748274
0.419120290385531
0.434741154598179
0.455681691480794
0.470258235879045
0.48474330808922
0.508998737501415
0.528445910670132
0.545870766971971
0.566619376366593
0.593334033660201
0.609963683918221
0.633472598765241
0.65056316907142
0.676579260064641
0.696876669787853
0.720215631360809
0.742339361984128
0.75675103090125
0.768710841450112
0.789430901161008
0.802829159248004
0.821049941667416
0.834767501054167
0.844441065533827
0.845047146920454
0.844261174012678
0.857481865037195
0.85089995907919
0.849047300018814
0.862934081205366
0.855138582926599
0.845372437290054
0.829928878591682
0.835275662820684
0.827123546348402
0.824578898223752
0.820582054976603
0.812088306272133
0.815332781783518
0.807605727145513
0.809252199788091
0.810127294864758
0.804946138214943
0.81104805405103
0.8088662338654
0.828405817671516
0.816491539914795
0.827077479396296
0.835751126236482
0.843224853219056
0.851059240704707
0.860429152643183
0.868155690430774
0.883793192020412
0.897627937878489
0.903341202694514
0.917455781919244
0.915951945960008
0.918483604756149
0.93196393149621
0.956339399539252
0.954397350458477
0.953643020239664
0.961950295127458
0.962186320064401
0.96311802190128
0.964212566992335
0.961403341080196
0.968371639003013
0.955940495515314
0.962253371209241
0.956556085439867
0.97044238154767
0.971440734549802
0.977008212602579
0.994368679947413
1.00143076280195
1.0086208618641
1.01213247817636
1.01452432769746
1.02326705121222
1.05145722675517
1.0501793932329
1.05020459784921
1.07631924703392
1.09946330350888
1.08990774706778
1.10414609260414
1.12659716720789
1.12724035295833
1.16140803386584
1.17724702556702
1.19584071973726
1.21560431413801
1.25647034704348
1.28089716425383
1.31267334190229
1.32391243186404
1.3522478702141
1.40791760421594
1.43990139830257
1.48953262832282
1.48548027866413
1.50077861462636
1.49502054512977
1.51119513624649
1.50888492601154
1.53418617181546
1.56538812576796
1.52252723846633
1.55643355302163
1.54826328684262
1.52283654850355
1.50259839081827
1.49735973979359
1.54325187151142
1.54221669906632
1.53314377275112
1.5549615458709
1.50513033467603
1.52288917557914
1.53724847998624
1.51521942939867
1.53684825813354
1.57599296832711
1.58333185617189
1.56584079638495
1.64395085876786
1.6164399377199
1.60235511572241
1.62008629150812
1.6844540452317
1.70952358936744
1.69223297603567
1.71267297340169
1.70810885614326
1.78664222718453
1.77864463593168
1.76686333363797
1.85215673840479
1.92931700295037
1.88496321585412
1.85895861426065
1.84132285949885
1.91140219845064
1.92445883420095
2.07399897064844
1.87283107954146
1.96941152051514
1.84778746307561
1.88877045155018
2.03594835204849
1.99323471995519
2.08232985847904
1.95054953573479
2.01468217302187
2.072076746252
2.10522784555048
2.32798190224601
2.11687487471882
2.36086463090566
2.67529596047486
2.17300471276817
2.21714453119483
2.31618194150659
2.56363299040195
2.248992267498
2.46496438770133
2.16380849807731
2.20794854069569
2.43294355348952
2.18381862334813
2.31943713881045
2.08844672034731
2.10855151203184
2.01255416524674
1.94972942558082
1.89805000680158
1.87792354033731
1.86822576152409
1.90360054204155
1.66466853758128
1.78355368818862
1.62230657237751
1.69261973768644
1.70768668007814
1.67097736727893
1.76276429589815
1.63223130350143
1.60324549223865
1.68563450159893
1.60858436818799
1.60571397779158
1.55481622601151
1.56113009963436
1.48236313401509
1.5027883744948
1.4726914973565
1.40426015704069
1.34450158889748
1.33056247236047
1.26020841117808
1.26271076790377
1.18412167351114
1.14880488915267
1.08590945223342
1.0478494075408
0.986440766407123
0.950545652750233
0.900537457811415
0.86742930335378
0.810356038593752
0.791788709038805
0.734029573863236
0.699153783052832
0.66209872432452
0.633489660950681
0.609092119379424
0.586518838567731
0.562104787342186
0.540938057597195
0.525220067677122
0.512346122045621
0.490084993531006
0.474132805487796
0.466024638871992
0.462416235264775
0.443582036426083
0.439696875963579
0.429214406557181
0.431667248678869
0.425275459160186
0.425163091793756
0.416268021178273
0.420841923469619
0.421722962934856
0.42230750842232
0.421252197179482
0.421725325011965
0.422176993911764
0.42487234146011
0.431141267793184
0.431535874578547
0.43637994409736
0.438286002301605
0.444081976026661
0.446703755273954
0.445461433735818
0.448124666005666
0.449870948468519
0.456340644600573
0.449072042141754
0.453459299598236
0.455631027194969
0.450219337830234
0.458969312906345
0.45959114491882
0.458527415224387
0.460735753545858
0.470497456092957
0.461135522242255
0.463987884012637
0.462738018661852
0.466148007966289
0.470383406837461
0.466799941718521
0.471479989698383
0.468185165059049
0.470412309699007
0.473070166710412
0.468890555673392
0.464212976646779
0.466545878117049
0.46844400453019
0.468084261106541
0.45944115932433
0.463248607023172
0.458187221664525
0.452994267977923
0.44983645893303
0.453997054598085
0.453243063114274
0.456108527048321
0.454286481950413
0.455370176779707
0.456915406937502
0.457573558345618
0.455721056426801
0.47163737633779
0.467029480252221
0.470454631687074
0.478547976430843
0.492190233965286
0.499375391909218
0.51549140542843
0.520805541502526
0.519768353739513
0.534153429441523
0.541941999784014
0.548201183954064
0.54799480584702
0.535907044075948
0.537040490340874
0.530635375888062
0.529707625358157
0.516246870122197
0.520805448650378
0.508387442581131
0.510670257007009
0.497013021274925
0.483954457967603
0.480893412587061
0.489559909531347
0.482993588075692
0.478215379938307
0.486569922668627
0.490166310675633
0.482212023895639
0.493919692331831
0.486545780734635
0.493151690974599
0.488762563903948
0.49076251822712
0.494430962260211
0.487073494358178
0.481247923023338
0.495235468219546
0.47492797944632
0.486458264977481
0.478768915854656
0.485701318209382
0.479889393674295
0.477545895209552
0.482592785154384
0.479548458635108
0.482287513954885
0.49092790694209
0.482532001453869
0.48942087913171
0.476981019464792
0.477237321379773
0.477458484672259
0.476638575243598
0.47221528883808
0.479677748357095
0.465747683990469
0.470357612542471
0.453533584707843
0.459270496648712
0.470292108985327
0.478928991899159
0.458997671561387
0.470377545551803
0.463431207729563
0.475116182752766
0.46615548729395
0.461828953816039
0.464235763580178
0.460750008722397
0.450489884454815
0.445558921401884
0.440294181364044
0.433300302331931
0.430833476455603
0.442869017234674
0.42890853941442
0.440315537951915
0.431834415211986
0.421193445228209
0.424206432014013
0.426884398688862
0.429140545998503
0.439236832772858
0.430485807189379
0.430885143760611
0.423525545303089
0.438391598768749
0.424422621426276
0.432253558992045
0.428664093981411
0.422261562648934
0.427721126892936
0.442716989239008
0.43596251982018
0.452362043200719
0.445465659602339
0.445231163583727
0.433519196724459
0.445191282334995
0.45373918082179
0.468623412274909
0.449268023802115
0.475572365635853
0.469334357622864
0.466765995677528
0.476670282435894
0.49433563494287
0.470078507658744
0.490272520974178
0.492516525118785
0.507134428996146
0.50111967706125
0.53436490353458
0.541100313744788
0.544158391628016
0.562620670755412
0.563611968137536
0.562640723236241
0.589561473233606
0.602177025104812
0.6318065716784
0.615032219034166
0.65101215889034
0.665511940777539
0.684870303846371
0.687786755583903
0.68479462192215
0.682727959062337
0.680609514018017
0.674606028330341
0.697498800686598
0.689093847765195
0.687104292547954
0.691021183387717
0.689215035956406
0.666303540617137
0.702415040228383
0.67369128765474
0.689977592938846
0.699241145606634
0.74076879703047
0.686984395906877
0.693596816275514
0.672227146348828
0.721888700705695
0.696465597244908
0.666493072403278
0.71371929922779
0.680475663531927
0.690856908447358
0.677922494416962
0.674194254600715
0.731045265819614
0.690436078572956
0.708774207144072
0.676187528256179
0.701605789915758
0.676596524911939
0.680391146366227
0.688974053376208
0.68394690471871
0.641744337657825
0.657367852182188
0.623469810405427
0.644494065047232
0.661496997632952
0.658336915068186
0.654662910700775
0.656318104833447
0.639787571736306
0.672896311699151
0.638447506102262
0.668532549748219
0.673505561465613
0.618805670673532
0.657995843044403
0.695249355955477
0.663653615367806
0.695417540422692
0.67169182597719
0.62247876861751
0.697177808508523
0.698101662032683
0.61813089757182
0.688954920655351
0.639102304200904
0.668612349627971
0.730390047688264
0.692093125241436
0.66092853243476
0.705841437996763
0.651497014634596
0.68975452874446
0.688668464079388
0.657756103961386
0.677484524362263
0.760286150613643
0.742586915348944
0.778614095704127
0.735476877588812
0.752801060602923
0.757024496123334
0.844699798903431
0.780413493972995
0.814410939397461
0.883460463143324
0.911376963967507
0.848495557276002
0.900931886067173
0.924820425390589
0.935087433568366
0.811190057148209
0.848570501659834
0.825750761030913
0.878693320461126
0.951203644049978
0.854507242556917
0.765217438802422
0.780909533366914
0.884416126425863
0.829519372566253
0.887019464736971
0.828171189876193
0.772187840708303
0.983417843214947
0.925674896052389
0.958352056424556
0.806269253675953
0.746146638200197
0.836799372061571
0.904860875144843
0.984034033184448
0.964035747497034
0.844592673824549
0.784467631514672
0.968350822289042
1.05712977229381
0.762662030936498
0.87300140838278
0.880905259622892
1.07905264083809
0.836726075262156
0.806249729281922
0.839103129601623
0.901630529468564
0.983530424254832
0.919549861869249
0.723901540917831
0.709445686902624
0.657977696867405
0.878773390270637
1.40839736737009
1.12720210482583
0.649969005905621
0.718085318207051
1.29735818739326
1.2077051140852
0.83875736772799
1.16113809102713
0.773135081299046
0.817231747283941
1.11054434536572
1.16653009167428
0.792994196767873
0.841893222463891
0.941338175244514
0.968943445493781
1.05957305485211
0.931686316492743
1.03669931772231
0.869002436097347
0.568892522842821
