3596
4000.36533379555
650.420452594757
1
2
2
0.0889474864941898
0.104189270355979
0.100725176648773
0.11504101808122
0.102596559449581
0.102051699405481
0.0889616429044154
0.108805002654975
0.0913713848755975
0.107917528750978
0.0947515425484446
0.103098209524512
0.0818881924005965
0.101472660940557
0.0939256798320394
0.0998333304237318
0.0927087556887717
0.106185288317347
0.0957318318053851
0.112246963933796
0.0908572433755212
0.114484789396977
0.093820088333931
0.110279357444499
0.0978603541308778
0.12281855585064
0.091691131775411
0.111613528747315
0.0939081354992765
0.109681429974524
0.0887701359003619
0.107166705628137
0.100451437212526
0.111532097586673
0.0914816994281366
0.103694107135859
0.0880412438815704
0.103520144938211
0.0840131049736678
0.114374900885474
0.107005259688059
0.107697833262425
0.0877548066592903
0.106924671854261
0.092949426376619
0.108287083229445
0.0870508245222446
0.108044968895466
0.0945145780745124
0.101554397860505
0.0956035524010897
0.104071645420461
0.108796028954989
0.114762849057547
0.103173444729978
0.122203018403115
0.0926920487165128
0.0995587190027498
0.0964363100150208
0.101871643214153
0.11898397631461
0.12120188195204
0.0887319024685387
0.107764353714018
0.0867412753332553
0.108574559827409
0.0870196052763135
0.105189531672547
0.0846910781812473
0.118490764489965
0.083070527419387
0.132727532257032
0.101415256554183
0.108124794543383
0.102109685095704
0.112042352023218
0.0928094851130241
0.104282177047245
0.081054326077088
0.124893663826246
0.102735158915551
0.11420695988651
0.0929848239544539
0.101791402675994
0.099253384659568
0.120604413960888
0.0761803565791078
0.119459411434741
0.116397433963041
0.114521038994498
0.088690604154722
0.107113828727397
0.0810131101023046
0.0963520734121715
0.0790008269767998
0.106599946214168
0.0775551360930033
0.107714428294777
0.0783026183596594
0.115668996709547
0.0968266654130418
0.137032829281421
0.130681253284679
0.0960237854571309
0.167797446045101
0.10118631123933
0.119307013286637
0.16038907969645
0.103176226985225
0.113039920363855
0.0786078532251357
0.110664627211654
0.0859244047877664
0.113537059908089
0.0733482257059824
0.138653632858942
0.112298190890157
0.108571153227603
0.0812297961037293
0.105963729025431
0.074144970705813
0.165053169177649
0.108706611850819
0.110773003723617
0.103330240876495
0.108829440201351
0.0832928685974162
0.155047991337984
0.100984366331857
0.106917552959965
0.0859910745992019
0.0991633126896439
0.0831434242658287
0.103660558833917
0.130795368187138
0.0991279695627699
0.0986551331012346
0.106129013678283
0.124986048786595
0.166759448583709
0.097036316847585
0.106043131332343
0.081228964117207
0.121264977271692
0.123502656488893
0.109526771025113
0.0856118702299154
0.12850379339188
0.0874880774073425
0.0976288237050483
0.0835331114270686
0.0982952406490086
0.116134335895119
0.118867966415852
0.0736367273439301
0.209748980920285
0.139554110989493
0.138075942956337
0.145390389882652
0.0872569475342646
0.111341502319145
0.0945653849045268
0.0981552065297246
0.0838636537553512
0.0943809006281574
0.0834103406398695
0.120446101080971
0.132114550169261
0.0897512581722088
0.118228407380635
0.128496938759918
0.118357735462945
0.0845861626061417
0.175966427580193
0.0924110058748091
0.108450838300582
0.116341933624048
0.103127636112624
0.0825648067248309
0.124605244949556
0.109284259357497
0.0993853790905477
0.0919437000031209
0.0944680712844574
0.103345367521314
0.119754777009926
0.0954643110534596
0.101179198245974
0.092101381868488
0.093868260094902
0.135674932638394
0.163787071601792
0.117349134426777
0.103649746629137
0.107932485726732
0.0712656496938642
0.146440818993114
0.126550562847312
0.0935443262036021
0.103203596358717
0.085341672864522
0.0895789430485203
0.0853144362844699
0.0914880198062433
0.0834382005401745
0.0888356767901523
0.147559477356511
0.108578279447026
0.0971091079904189
0.0914515682894372
0.10377863681516
0.109892201061965
0.163051951934217
0.120292213027394
0.0894947619234518
0.103061752517054
0.0928854857590685
0.126297531224472
0.108968865834477
0.091803288749177
0.093653024477323
0.0945515890333378
0.0944742227477868
0.0962775786846479
0.0885592120784613
0.102023273333393
0.0912048452640795
0.0992870698781014
0.0935929617455154
0.0989518344220206
0.104629224366454
0.0989681745778161
0.091569132013735
0.0967586575439262
0.0828594123349874
0.126338469837294
0.121853153279543
0.0979526595575012
0.0926355656432288
0.0952785044131343
0.0909116873289653
0.0956240760883388
0.0939486447052743
0.0910734134741076
0.0949455882762555
0.102289446954057
0.136395252180449
0.0949152222460641
0.110044928110987
0.0846399134775503
0.129842352643421
0.109780428979419
0.101185798939455
0.0877488379123633
0.0994287556709423
0.0904393795691252
0.105719066769158
0.139844776892304
0.0987040112689268
0.0967640052830322
0.123877074736323
0.105219816512672
0.0965114525869089
0.108459738011483
0.0885902190535882
0.191034413073899
0.1138746256191
0.130933723846543
0.163316196949783
0.112350803969934
0.115159150816979
0.108948762126585
0.0917324690277297
0.23815241405595
0.129667372159043
0.107543003576971
0.101358257886007
0.134027925051919
0.0857982929924255
0.117536807832076
0.101541917375103
0.137450608660935
0.140745395053485
0.163598615441881
0.173284445791902
0.0948272768633685
0.16225595112611
0.118903104065879
0.100186491127543
0.101822235758624
0.105873728229839
0.101824502319862
0.122252467094646
0.126274585338399
0.115737815497548
0.111747539361671
0.110980200271161
0.149187355703658
0.10741779956953
0.117659562041939
0.105829231849298
0.12308237129982
0.0897286137376109
0.11493399018719
0.100120391980835
0.129342647472219
0.097306834541693
0.12999839233587
0.160356321918199
0.118433709577623
0.108985970563131
0.150455179919935
0.102697961805144
0.104913979084026
0.09744241616926
0.109053790314544
0.0971234268140963
0.109637142945624
0.0968307623092179
0.154840460844659
0.105690629138299
0.111440727972287
0.108008820775924
0.114807566338023
0.101473112593969
0.119495092334374
0.104183436052394
0.114036222140937
0.109344403571159
0.116086299041311
0.139860060070457
0.158874062879833
0.114275872528206
0.205919163744733
0.137976928311551
0.123506757891876
0.116664118930036
0.117958417168331
0.121837168207124
0.120111169795114
0.116466790627071
0.122559380050469
0.133354028361557
0.148462693701121
0.129933710527847
0.140086774444383
0.150241344915565
0.222755039587575
0.211109346834571
0.147204508255618
0.138867113741768
0.130675334219898
0.185618043609136
0.17710639526299
0.168765405870271
0.178254667118866
0.135444481947109
0.163610066903076
0.132880227815268
0.152151750383406
0.133676669795618
0.161332114895093
0.140844441591568
0.163280752768834
0.147189858152841
0.169007396549695
0.156027593278067
0.182777500135661
0.198242519828729
0.175078293635181
0.164673822950208
0.18677659004907
0.159918453124779
0.237160216135141
0.220987296149072
0.256105418045416
0.216283340083816
0.228138713799704
0.240681793233895
0.194362912396842
0.195927734307383
0.186977292434823
0.197552208105176
0.209703770874184
0.198131122533489
0.200648892092689
0.203346696535777
0.220310525559634
0.209873962932422
0.212370441719933
0.222138599470599
0.223611544054237
0.253931146335664
0.233273984180147
0.233826113377442
0.236506900355993
0.271658136794791
0.315615390903667
0.293224077822146
0.259254797721748
0.251136928843822
0.246326033213733
0.241715361642966
0.265983362202461
0.251489616751593
0.272909569522806
0.269586506131469
0.331460484361546
0.294238875155171
0.311789394633074
0.298863276744086
0.274809167419212
0.312906877106202
0.308415320102363
0.315879124299583
0.332760434511997
0.299589606746875
0.307585226527248
0.336604332224323
0.332533700529632
0.31539075068678
0.351152286569267
0.291998963980885
0.322556068233179
0.312437492016087
0.349077396347107
0.323944404649981
0.345351421427019
0.332202441873476
0.356239423912777
0.349340009785414
0.353686448513661
0.357581084824327
0.395198750459279
0.37644297523512
0.364613512917321
0.361159471975183
0.361410455834364
0.370769442523405
0.371928963412402
0.405672742112938
0.429608423167667
0.415342501735
0.431739251375995
0.379566481888327
0.413635454499294
0.402200856189656
0.423443012705032
0.403539133896735
0.431984791599233
0.411634183289624
0.43853310396996
0.422949478091763
0.433365166040991
0.437365890913673
0.454555888745851
0.451779902171956
0.465232226546915
0.457664849296362
0.487971895323204
0.459114760168643
0.466892784822956
0.507130777009012
0.517215207905507
0.517341916230062
0.534471123363122
0.461120933019003
0.490911794520713
0.490194357846134
0.51156272312387
0.494990033578223
0.525354488344182
0.488755745243596
0.518271785030514
0.516479152475292
0.544284848218749
0.530346613127553
0.574938615171868
0.52559561213434
0.576597621055459
0.540230695803998
0.566633716501183
0.553488479601748
0.570084216413163
0.582632057766883
0.610185965573267
0.554632439132368
0.600135279926933
0.589449805015923
0.596393476913433
0.595682932359714
0.616812124669314
0.596177909266248
0.643750693964724
0.621855614220914
0.604443211814724
0.593457282444814
0.652239167610863
0.632155647672686
0.638050938271942
0.624304718985471
0.677556215985514
0.656838888680278
0.665716058952842
0.638965290853821
0.674182323748005
0.67036115842163
0.704561836783591
0.659079940275576
0.678186282133107
0.663656921383796
0.725483575288521
0.698670849246858
0.769950709830184
0.708665725896357
0.72693737278353
0.700335828566556
0.742353993408253
0.711881000335101
0.744984188676102
0.723304668442303
0.75422558657034
0.741760036268193
0.769641061820479
0.745043836972884
0.807984616715949
0.751633385084563
0.76685997810996
0.753236940230989
0.785054017809952
0.745989650645908
0.789935723527726
0.772292464793266
0.805016058962677
0.812872256521413
0.846109180104528
0.787602395215469
0.813394748920451
0.817639962703848
0.847307812774267
0.795951395527592
0.826370037802443
0.822293361445787
0.872034613879248
0.861411438231348
0.88429209730635
0.855206999931101
0.835567181006807
0.849671375087766
0.889979598340024
0.845040026347098
0.923839686112367
0.889802263535609
0.908605558413155
0.872746419591529
0.93626443435387
0.879642078817485
0.933936417008539
0.917140137385392
0.926669797974815
0.874193243894905
0.911886009041271
0.898013470831022
0.988672629784975
0.890730468596438
0.882937648446587
0.937497782858502
0.94402241589605
0.89807759114608
0.981929761009942
0.952238310090317
0.985910982118476
1.0168001440146
0.964143379541208
0.973421325375546
1.02899335875306
0.945415042782122
0.994966425066644
1.00851380114713
0.975517266164992
0.993056205954549
1.03923829677576
0.932202564572881
1.02654337226984
1.06002564147748
1.04475246620777
1.04537248270563
1.04841822099988
1.04295399721348
1.02609654316719
1.0306801349517
1.10916253787188
1.06864087054282
1.05710105622496
0.996946753979219
1.1130754570432
1.12469904346109
1.09450009268193
1.05256444273264
1.09604064471983
1.02840472046722
1.02577908439919
1.07508906024409
1.16824248453437
1.03118064175802
1.12175144747399
1.16784407885363
1.1571912538556
1.14220855194232
1.15370583677842
1.11602010047534
1.19586182312099
1.12664260107143
1.24829665595645
1.09055459012235
1.16424059089691
1.22484168821201
1.18884754682338
1.10659383088054
1.18971071641476
1.15840191376705
1.13751964454266
1.23662546512376
1.25696080505876
1.1329398213964
1.17018391136073
1.2105139688164
1.21861337105342
1.2463597783035
1.25766182075969
1.19857182687545
1.25983160455659
1.23315542177697
1.28399696220317
1.22898125033491
1.32999390711293
1.30218951912818
1.29902637746429
1.23632482237254
1.2455168476732
1.25399198804726
1.27694155026131
1.2441946594714
1.30188674427916
1.23973394220321
1.25825726988428
1.21919849826683
1.26436444160401
1.28324985946951
1.25434830169673
1.23774345094783
1.35378615347823
1.23354673824872
1.24183815980317
1.26231095464245
1.33915238915324
1.37680396145327
1.30561846423261
1.30054253535131
1.40080395754997
1.34593213268284
1.33910214880159
1.29829602035031
1.34014363781352
1.2556238357091
1.27487216065192
1.36470414213795
1.41517973492204
1.31447278374356
1.35938558915604
1.45301840458041
1.42407871998134
1.34033201381358
1.40622712151112
1.31039983333023
1.27399418988382
1.29764513981747
1.34096593549884
1.42559225600515
1.40638886059875
1.33326917986942
1.43061943402442
1.33390528492103
1.4656460246025
1.47401015554932
1.40389239510968
1.38057913740277
1.3301928110123
1.32119649995686
1.45940957290974
1.43556964310892
1.38479698463096
1.50108239679657
1.44451121567707
1.31994394328414
1.38142545364361
1.45953154002325
1.47923354753387
1.46598380981933
1.45407664387798
1.36386381017798
1.36914797819112
1.4606736198067
1.65026703137812
1.36341113305115
1.35232879115847
1.44612099968716
1.41186637227168
1.47501297772233
1.42564941486621
1.36816974461274
1.38199270128609
1.3753649155721
1.42093348145424
1.43718427135954
1.46686405108427
1.41676146727833
1.52148272456725
1.41223750719502
1.41659435671681
1.39349538476927
1.32719213547434
1.37248243684864
1.4699679237582
1.54487199833932
1.45937644744099
1.39663840084947
1.43920347766505
1.46757168600748
1.44057155960144
1.49872990308939
1.39301849074661
1.43577798075097
1.47067814781774
1.38983273974659
1.51404321403118
1.4454980067023
1.4335838714017
1.46594911789449
1.52547815533382
1.38508130867777
1.3752698319769
1.41005956115663
1.41922432294612
1.47534555263888
1.51958312091988
1.50451083881018
1.45036578083645
1.60673452143453
1.5757185588813
1.44939212277761
1.45090086859075
1.51164097731666
1.57170067144511
1.43347078100621
1.46395415406861
1.44647307161896
1.51844314833382
1.45631419669643
1.35543822611006
1.4002746242187
1.46412468333768
1.46651000191145
1.45664471140536
1.5575013463758
1.48788498060572
1.36919698227585
1.45043141243217
1.4656206404601
1.39261432656104
1.52072839220478
1.48906788954456
1.43544322480008
1.47432395107309
1.49370810995805
1.48507054684465
1.4701444764037
1.44609031047415
1.45948058731159
1.38232598883896
1.4123299368356
1.54404016201609
1.43026301747342
1.43219536714788
1.47028703954456
1.43229922732078
1.44735596654349
1.49930011871897
1.58260069678962
1.47970653983921
1.4196828858125
1.40914792353726
1.43054629846368
1.43882115461029
1.43813556615855
1.48608333791747
1.51064187337605
1.46887435131024
1.44882597945494
1.48788209551644
1.45177991165912
1.40068682666493
1.50524739111421
1.51283283156842
1.4301480108852
1.40475712999115
1.45027148927031
1.40711563090754
1.43125590142356
1.46550828673549
1.41244681369372
1.37302573016121
1.46572256511451
1.47785457703162
1.42072657867166
1.34060379603168
1.42830830971812
1.41173349509967
1.34641206057644
1.36952003600348
1.33694941033841
1.35009407497097
1.35389665058342
1.43129222536783
1.44614212688759
1.38138617484885
1.32651087793233
1.31434645517585
1.47130607919628
1.37502988480907
1.41971275615473
1.46083444739197
1.40675805995426
1.36482301787339
1.35778408924018
1.33945482116437
1.33976376746508
1.340139635946
1.37243633732655
1.27760294888296
1.33667111066366
1.33119264935415
1.36338111680907
1.35656302148752
1.39188158033448
1.36701718285315
1.328117014167
1.36701372109353
1.34799925716626
1.33159845817238
1.32409929561261
1.27964965506187
1.28816635273682
1.31661857209978
1.2869727311946
1.23648285076809
1.3450449007765
1.32014597849009
1.3290316725581
1.34484138895283
1.26834228275923
1.25340308587103
1.25719712613443
1.27722988402301
1.32684561689255
1.34022362130243
1.24419343042769
1.22234200130304
1.29301751060518
1.24879698441824
1.22228319432765
1.20459262812785
1.27630252345384
1.19020419443343
1.18103179592834
1.19943287695627
1.23363233179847
1.22269673590611
1.17374320050164
1.1475105335646
1.22191849531233
1.18848453322848
1.18492444172467
1.19620629192804
1.20298017673393
1.11401098011329
1.17655979424071
1.20408376986891
1.18113849928869
1.16071299560135
1.15281752168467
1.15606831844381
1.1759165366563
1.14705320123877
1.1844393987525
1.1323958360584
1.12647344124991
1.1579303011746
1.13387808324042
1.11034093612738
1.10121497990049
1.10593648382649
1.09111670336805
1.05010812704167
1.07457137230311
1.07200974723972
1.07668667312977
1.04044171469301
1.06618954569881
1.08731707213401
1.07724361034765
1.03818563162696
1.0784695464211
1.05994763087306
1.06381732709101
1.03376349013963
1.03429311666292
1.03769183978357
1.02705146062466
1.01948766353612
1.0456796739013
0.998687494810417
0.996150907853843
0.985513910098695
0.98663415328684
1.01214524686269
1.00816897622752
0.963720170156769
0.975041928202749
0.966066928964945
0.948036000571598
0.9666007203223
0.963109496416005
0.932209257480797
0.951895904119969
0.941359391485804
0.933699438554235
0.947495920844759
0.929972919168898
0.916358222414582
0.899244718460347
0.891194384839482
0.9071027803227
0.877799786424189
0.893370624436346
0.888046317661426
0.894916076490833
0.867481156405327
0.878152542646714
0.865820856878026
0.875911464145115
0.878980322239356
0.873065985710993
0.850947370046599
0.847365278124335
0.824444592294633
0.845384992880175
0.844788758368037
0.827124055789714
0.811594150407934
0.809466937730594
0.822957173039298
0.829161449305776
0.819992237189472
0.809003435242578
0.811108674532907
0.812653592188434
0.802181313356636
0.81065977809219
0.787145514692936
0.772739330214522
0.7659149445519
0.780289589474892
0.775792652020009
0.779417080119024
0.757996483462536
0.762046292365162
0.760650837415932
0.737910514698096
0.750482330115182
0.753157301887122
0.730912426105077
0.734171649098373
0.736249715424785
0.730958241008776
0.717560084391511
0.72270106642465
0.703559500390478
0.704793636011708
0.70446388542058
0.693718673459596
0.684026857404149
0.706309253304378
0.692291620175894
0.694995205942109
0.683545036729788
0.689115388533278
0.690390007515555
0.685028022005147
0.668838347277823
0.668513540648283
0.666362010511621
0.656124380583501
0.654944335561176
0.649749327557711
0.650869177215882
0.655383530097664
0.639575993565027
0.643606738874674
0.638719279249583
0.639349380077726
0.6262449935444
0.622783947760284
0.620185883589184
0.628922765505672
0.613371064809371
0.610424257084664
0.616360478021277
0.619310874327013
0.596677988576379
0.6031885306496
0.599096966230277
0.596989730990648
0.580161721202287
0.579496979111333
0.573846990091402
0.573066020112949
0.576432407207199
0.577467262764611
0.581613734876261
0.574085325221801
0.566444700962925
0.571351976965434
0.566705433689614
0.565351343064744
0.560169368044285
0.559737418781673
0.542245685934132
0.557989564901611
0.542996504863587
0.544090337147265
0.547909857389654
0.538178149306009
0.537587004337141
0.528267841991092
0.528210957670917
0.540406126009587
0.536641824118052
0.525229781899145
0.527247073020315
0.521395314204977
0.512029253477968
0.514182075133362
0.50894711116514
0.512516225662221
0.505061174481849
0.516067988952454
0.497600250762895
0.500811399354329
0.500412758325208
0.506350707491158
0.505506029060419
0.503006978278924
0.492359032946137
0.496628225823028
0.485749534409407
0.49654832850343
0.485251723398392
0.48476544360242
0.487326392746033
0.484742718327982
0.481947144641162
0.485209925211166
0.474484488103857
0.488381613637571
0.480267288637962
0.472621445643383
0.48035480360181
0.480710408572052
0.475512824821325
0.477329254620699
0.475638888737548
0.48239930452705
0.473144700284127
0.479472250635827
0.487722018442595
0.480796548946263
0.479784021875548
0.482565136295346
0.481313073579328
0.479134255341441
0.467181799329315
0.482528513843001
0.482217874448546
0.485188460388384
0.483714706524411
0.491554255352436
0.481435367805707
0.482469990241384
0.488089022740062
0.502980200917434
0.495264029854475
0.49629214350975
0.495809122483119
0.495745536302643
0.502314209136469
0.510461226448506
0.499150988142108
0.506639160523644
0.509493022772294
0.506133486180142
0.508475620906244
0.516029656421416
0.514088072020129
0.509227092079212
0.510730146421521
0.525911550899483
0.525688215277334
0.534781784935127
0.526357329762655
0.537977134294483
0.533799156403569
0.536565326199594
0.542479514013985
0.561531974186212
0.545934770688845
0.552484335540288
0.561031245796515
0.568777392205698
0.566463552319152
0.560407152943033
0.574490436347453
0.582049036858145
0.586833908742853
0.591027487931837
0.586942716164085
0.60451499584481
0.596460465647646
0.608701555076722
0.614249126219774
0.609706681494422
0.615342719539726
0.615168895731871
0.61700113228256
0.633661520245274
0.620528330938835
0.614480826611146
0.617411124707787
0.636421413644068
0.628614366572325
0.632926585051109
0.624156340565165
0.624240375930811
0.639238645706116
0.636672453480002
0.624671342664426
0.628655393849606
0.616895793593856
0.623136372071702
0.617994935912992
0.630567611661378
0.619870853632417
0.612817737792486
0.610165521903665
0.617923468855041
0.615514078772372
0.620927579196575
0.619064398216139
0.615050884055061
0.599030946876112
0.600356782849151
0.608155110213358
0.623434098012463
0.60372689629564
0.616041358177665
0.590637091614053
0.603688495499657
0.599767084409726
0.615339488199122
0.611537517143833
0.602160812255763
0.596626014517294
0.603379728603929
0.606558593510226
0.602420633495422
0.602201856932103
0.61079210573708
0.600522431939954
0.603537747576662
0.600976892675099
0.600636608249926
0.604776395284518
0.599755252928721
0.599612033962661
0.61080182335322
0.591759200841171
0.59038049754398
0.591258088118997
0.593722095569934
0.590201983159688
0.596529063910777
0.57563280908285
0.592482166349687
0.575113326753181
0.578610238804283
0.570566063402345
0.58087961194638
0.574282343463554
0.565832972061527
0.566240975577984
0.553061392343837
0.558748686841542
0.569752233205077
0.554829078231978
0.546138817218528
0.549063047477448
0.544207587914694
0.538461013784169
0.543499622579737
0.530459630789976
0.523420696773429
0.517110826604733
0.522621600919426
0.517420477133003
0.520585884759967
0.518016177933386
0.526794008104322
0.499238588804835
0.507521637091099
0.500433226824136
0.4993680994557
0.493831701106974
0.489055582428001
0.49075814641527
0.480876387005141
0.483504841598963
0.470913639969022
0.475283374803488
0.475329488169436
0.476440732029608
0.470872330910392
0.463215016900009
0.467199255512366
0.463552880919401
0.463740366640025
0.452171080968834
0.453671549163013
0.454483301777121
0.447142047791779
0.446241365303246
0.448304739785761
0.443662947788752
0.439418927373031
0.439905065916408
0.442417758726449
0.433717609973074
0.433482639827666
0.428229605415094
0.430121024487847
0.427792031424177
0.428981345696808
0.422097991609118
0.422093492928724
0.417292642448542
0.419736832925258
0.415508164958274
0.413736922802549
0.426855358213967
0.417565017079099
0.409785818108006
0.408206084114404
0.40663270843916
0.408052463940944
0.405669388929998
0.404636152307027
0.395957292360983
0.398020423555835
0.401932487335181
0.398895440518407
0.393987408769042
0.398411796786452
0.395175108862185
0.397809808056303
0.382661539904881
0.394882838490919
0.382421549121212
0.385934805252455
0.391543965774281
0.384154271736327
0.381641109206061
0.384587206289137
0.383999739466784
0.382886061822439
0.376869414287314
0.382448613864435
0.378217966037128
0.375841410966956
0.37543031203188
0.378554717537
0.371222283883912
0.372209614403053
0.374504692355278
0.375265552403046
0.364477372280766
0.37069364114947
0.366289248603729
0.367740125026956
0.366359231443944
0.365593608101896
0.366074834220791
0.373447232416089
0.362066669543949
0.362306554253892
0.365540884342829
0.363150621286255
0.358443108691424
0.362573563871131
0.358119479389559
0.354551064714178
0.357143192721076
0.352307524480579
0.348750040239659
0.358797314843184
0.355049533205772
0.362305019438886
0.348517557896632
0.356476910754179
0.350012576704274
0.348248522833427
0.346624689391575
0.349908101437093
0.350678869505045
0.343234563756487
0.345765592212137
0.349111809406002
0.344451711470334
0.340875283133119
0.338202956437473
0.345847248361669
0.341396163570444
0.343511987613494
0.33968968799058
0.343021130506029
0.338525576877968
0.340533648198552
0.336981823660291
0.342346369198785
0.33495439726407
0.339409807395997
0.335142725387183
0.340107472572247
0.341192407761686
0.338677631632215
0.33375521477525
0.33858742253157
0.332759085263351
0.338809516848682
0.333806306798957
0.340133529807884
0.332511170481182
0.335365512191379
0.326257469068459
0.331136014985351
0.329720027489062
0.337449124649487
0.329782422838059
0.335104317130724
0.327675345164367
0.330116150234327
0.328707509333752
0.330041419163007
0.332791414113268
0.328058162113037
0.327289687252011
0.323491791682169
0.323397751448016
0.32442209554891
0.326211012735986
0.317396655571591
0.314449703357964
0.318426822137853
0.319054589961356
0.322615535428261
0.319370263745931
0.32208847045797
0.321086295232373
0.315455982314045
0.314465096332019
0.324842739630258
0.31599218035865
0.320434673209916
0.309690564464597
0.317428403980342
0.315372184559478
0.316676472528555
0.312872573522715
0.309990533728884
0.311659574497171
0.310349128934119
0.311553950305036
0.313337994562259
0.312126135890121
0.313015357237018
0.308170206928978
0.304913563699487
0.300674010410039
0.306339680327101
0.303711464613796
0.304766013709441
0.30185885839872
0.302830201697186
0.303590279192819
0.306643988302766
0.301616288464008
0.298237662566025
0.298312244976107
0.300292345429652
0.29975259911313
0.299474982531159
0.297796213124349
0.298567197344904
0.296746904524966
0.29901361559722
0.29260656964305
0.297338082360158
0.297655807729542
0.297078962107559
0.292663001491273
0.292407179579753
0.295893222094278
0.291551409838169
0.285086110812145
0.292455027946421
0.291983613847214
0.284116694281012
0.288300521628029
0.283993117594975
0.285353656473275
0.2835253512506
0.28182638092823
0.287756365908576
0.282025258044608
0.280836484545653
0.277061503321985
0.276267515899976
0.274760217955764
0.279766545150321
0.28061865765435
0.274467636255035
0.274361937163527
0.272879626973154
0.276942742066862
0.276526295630015
0.272594164017908
0.271918997691795
0.264803462220771
0.264887179735317
0.270257914825882
0.270894482687924
0.271220091406912
0.261107494857179
0.259023560111793
0.263871260173271
0.265638472560941
0.260297796000864
0.258221477864252
0.258376385413463
0.261699707066601
0.256527153378812
0.256724171941063
0.259820447243946
0.258055328878139
0.260196605019568
0.255219191038363
0.259779461498598
0.250594177392807
0.256829373115839
0.251152027988147
0.253755614022732
0.255952236874271
0.254148614088796
0.252221121854031
0.251273120680971
0.247416171201083
0.248851623528637
0.247369282197841
0.244000456705452
0.247991142436056
0.24363264079928
0.24596376523298
0.24339830766927
0.242949641574109
0.246676195920298
0.244147659735613
0.241744782202735
0.243300984736032
0.243421194810396
0.245166160414309
0.242688475444308
0.241240612347895
0.239441616364925
0.238504230613289
0.234841314567279
0.238883136775071
0.233074209143407
0.236170129224958
0.23766434841293
0.236689447603665
0.235642909120903
0.232705662706297
0.236196459147547
0.237595955667459
0.231980032658708
0.236786564707307
0.232421950930792
0.234600985573478
0.231549648565212
0.229534748126505
0.230211146464367
0.228727716021921
0.229265722836145
0.23133919623306
0.226924493776069
0.227166444737482
0.228649259794068
0.225530110919315
0.226602500833065
0.225309855615489
0.227604541619792
0.227165801335938
0.225663588036785
0.223605488050407
0.227542804924086
0.224577952517869
0.222510342256371
0.225799286322077
0.225264523885213
0.222707403637117
0.22008787414392
0.223001560149418
0.222998030507548
0.222572122353631
0.226761933726104
0.223883191985296
0.221253911025794
0.217521090916485
0.219128520446827
0.220252349047162
0.217993973046738
0.220818896383752
0.221257511694159
0.217734493680535
0.219033236888546
0.221074813138806
0.222411203005729
0.215097328825873
0.219581217303994
0.215501970313654
0.220780211352015
0.218190768667679
0.21890029353173
0.213015052856093
0.21661857995291
0.212270445916117
0.210945155617303
0.216650258862761
0.213974014220541
0.213122481206751
0.211581387783947
0.210032272499194
0.209409566781777
0.2108329792588
0.209325482073294
0.211117977878126
0.207419063416562
0.206179797698893
0.212352929724995
0.211402396677205
0.205632185855402
0.210351047864881
0.206881692500743
0.206592930917599
0.20600647557244
0.207230752087919
0.203402010696289
0.20869375572759
0.203645094480883
0.204114357718904
0.204030063738323
0.206501415064782
0.204687780483592
0.204677206550192
0.206818052338113
0.203143721694911
0.202336842963001
0.204192018990318
0.20437851117888
0.201222056952929
0.199594753220362
0.202010733354627
0.200254813995557
0.196743935851124
0.200693281738674
0.200196585418812
0.198822802438365
0.200362430806054
0.200077564457383
0.202938614982506
0.199339578309765
0.197884220737956
0.19565544464145
0.197977147080216
0.19535313946543
0.199615258379283
0.200795745515206
0.198728071806493
0.194889891911765
0.194844490855794
0.19492014979539
0.199634926648175
0.191081949495161
0.193173821829939
0.194478647918844
0.19444971668496
0.187811943707879
0.192643993629899
0.192291105769896
0.191661951722781
0.187832504401861
0.191567198642073
0.189402506512967
0.188763963753839
0.190549943184733
0.19114872252889
0.186012741690262
0.184731509629854
0.187112279526295
0.190024706156379
0.185615393374238
0.186804030233553
0.187439644476975
0.185473801240186
0.180054528542061
0.185682291015669
0.183730306125941
0.184514744267031
0.181962307163215
0.18572226725298
0.182878144997233
0.183100306135832
0.179442444670891
0.1807208602569
0.179494309782851
0.177578605943503
0.17835732400925
0.179082902781243
0.17732481304202
0.178520631300354
0.175445606588156
0.177614502184835
0.17602504137371
0.177385846077015
0.174379246796949
0.175302239427933
0.175402773956846
0.175384688110299
0.173610907513848
0.174723992493384
0.171968443077367
0.174235692718885
0.172404471663817
0.172369688310495
0.171699755316628
0.174074466383686
0.169008170444829
0.170704915057577
0.168805070660566
0.171861434711461
0.167664170941228
0.169546295634463
0.168953948566458
0.166112648118787
0.164486561022164
0.1683889344782
0.163624367430616
0.168602166361311
0.161085854045311
0.164197163867286
0.162523716596882
0.163627151819325
0.159562537208868
0.161909579050929
0.158053863431916
0.162273702865684
0.157376328422819
0.161886516984452
0.160325978097482
0.159252975109475
0.157749586088957
0.158892031578358
0.156895722403488
0.156947877126791
0.153955144854082
0.158032291599017
0.156451706691352
0.159417907926195
0.155188585289354
0.15475533183466
0.151834248652559
0.154784993287895
0.15108748848508
0.155610766614128
0.150604952613986
0.153840755373635
0.154217758295451
0.153711375069316
0.150982784763686
0.154228739227378
0.148811258047169
0.149924981166919
0.151471697306214
0.152696801363383
0.1493229845242
0.151998005529425
0.149666706377943
0.152668903960619
0.14735538447294
0.1507086440094
0.147359842073294
0.15153515338843
0.148829824708311
0.147748730859717
0.145460734275317
0.151571149510181
0.146075652265066
0.150369085634883
0.14811778611495
0.149409274086862
0.147836695167674
0.15161091644494
0.144655914446341
0.154360297526124
0.149700334027682
0.15495934271212
0.144085800012777
0.152966818058179
0.145070862517612
0.150592418957277
0.146175528193561
0.146908401457322
0.137766506550842
0.145320790700644
0.144173858075226
0.147839658245834
0.13428709863677
0.143244607264632
0.14309218840721
0.145561483419425
0.13350469332224
0.146875788722875
0.135408361172467
0.142969874525297
0.139133298454975
0.136853784398095
0.1326539517626
0.140726876535455
0.135252154016756
0.148115730433089
0.131687717317686
0.148276348621653
0.137736384579832
0.1479154591221
0.130388489158753
0.151744747585239
0.129694884766743
0.150246230881991
0.127459411113194
0.144041508179211
0.123828855646012
0.146216346116091
0.125779188605782
0.145457195352061
0.125359281804772
0.148993820087884
0.123118145510705
0.149382967054676
0.122742505817036
0.145306791491206
0.120082255280444
0.145032512947061
0.12784307718874
0.146169812475
0.133719553719635
0.141409604104993
0.128943249355368
0.135509796736346
0.141937305876059
0.134399044645706
0.139389121796548
0.121464121673867
0.154906868047714
0.122895360796733
0.161744920516137
0.108318783365026
0.167795447316356
0.106927491024263
0.169242547920246
0.108404136078701
0.168122696167776
0.110850070234887
0.163369998386906
0.121852494420739
0.153631288684066
0.129079648166074
0.142790683304026
0.136693976559332
0.135823783728234
0.136319592033993
0.134784787916556
0.136140367237651
0.135711934044065
0.132666736769214
0.140035523296771
0.129074634117769
0.14030887127569
0.130988047710566
0.140747119970935
0.129825216361149
0.137761894451274
0.129429378233123
0.135188900264919
0.133543111909565
0.136974988282852
0.131809993760638
0.133626919546682
0.129893564040694
0.137694780819324
0.131809679549701
0.135413299501243
0.132345777272601
0.137016922544881
0.13026990836197
0.134776932712229
0.131068266251354
0.135761124667504
0.132437285529849
0.133141509527485
0.13108923217466
0.134121648940553
0.132160281552341
0.135949456257403
0.129660942074957
0.134078169284949
0.131792006047576
0.135847563163185
0.134100017338673
0.135600382931496
0.135717115864523
0.138789981603719
0.134305537579992
0.137272543808291
0.132468550810775
0.13699641247862
0.136120250885282
0.134752559140362
0.131467462320201
0.135736700225417
0.133565893871093
0.13579668872002
0.134419941752002
0.138232661228784
0.13288894202931
0.133234066550392
0.133440002902276
0.136599531947993
0.135171197745796
0.135540943305651
0.133715452872188
0.135790444103132
0.134276937839513
0.136591154442306
0.13661380083604
0.135129747524048
0.134848051239228
0.13537607330178
0.137328432323784
0.135462156729899
0.133972664060144
0.134875615596305
0.133584531107158
0.13750076885582
0.135508311597965
0.135766289899695
0.136368971742007
0.134612400357436
0.135066489995578
0.136407685640731
0.135330192343855
0.137801689044146
0.136285774387951
0.135899778580736
0.136251460345345
0.138728275401311
0.137540704384334
0.137451719121749
0.135804849862656
0.13531577728645
0.137397183269112
0.139120500821534
0.137456638377144
0.139279313910232
0.13966542280136
0.139323027933239
0.136641615386885
0.139223086610288
0.13964323459942
0.141590163666793
0.140352887281236
0.1401510138273
0.138609279394408
0.139196608176196
0.141031068643435
0.139952672621037
0.140611109722543
0.140188543797731
0.141089869986475
0.140973150664373
0.142914986401145
0.145419881834619
0.142657838237228
0.142707839083344
0.143367588543486
0.142567946836255
0.14247305594131
0.14170704670969
0.141563764474687
0.142887444270947
0.142325085440693
0.143062406367694
0.14188238462787
0.144278979608474
0.143997085075707
0.143024625380935
0.144481669784729
0.144064697899309
0.141959347902429
0.146020988072715
0.143954810745738
0.14362254271822
0.144535270558092
0.146005817451783
0.144533034269181
0.142610553887793
0.142712744560759
0.144594156768061
0.14498378270765
0.145618574274282
0.145675884246126
0.14622291430937
0.14537303573354
0.145131507793932
0.148329574519962
0.148588194304385
0.148849339097264
0.148255089556548
0.14801878574859
0.148912203656415
0.147661164468979
0.150723640219101
0.150852821056242
0.148290683318986
0.14979953126979
0.149020799123021
0.149993398857986
0.150803067056665
0.150756209291213
0.149038099737961
0.149565657435194
0.148908532899777
0.149003947413311
0.152310081744917
0.15296406763024
0.150930603052538
0.149663225617765
0.149521736104045
0.150258742352881
0.151109934857395
0.152707362137716
0.150695067818501
0.152437125968293
0.149473079703027
0.151567710876231
0.149709474137883
0.148420163090094
0.150555957634851
0.152617244299012
0.151270974379936
0.147904890867783
0.146940548711986
0.150244754776543
0.148777258324655
0.1503758490688
0.147438757092534
0.148538568961822
0.148327740833071
0.14795295889119
0.146499808315182
0.14565156397597
0.145157570553814
0.151062701007023
0.146766082093178
0.149690953940398
0.147312212344443
0.14775835020708
0.146646730493294
0.147425390021566
0.145728773959039
0.147371332042584
0.146636214342767
0.148138130673481
0.148081446991275
0.143627853170828
0.145404654423386
0.148682328484869
0.143524438507632
0.145430277443216
0.145792975778707
0.145163807124927
0.14580829342377
0.145556818467368
0.146182484467854
0.145606956943533
0.145142098168832
0.145644659964684
0.143663526146578
0.144271326511974
0.144472311528511
0.146066267106514
0.142864564026192
0.143737684536653
0.143997085554523
0.143748327183197
0.143502416338536
0.142483543821808
0.142357868232975
0.144699834913326
0.143303374122714
0.141415218611101
0.143789359685373
0.145973494598051
0.143149752699639
0.14306683095391
0.141803985050963
0.144959938105178
0.143487300938782
0.14313487372314
0.141615062625979
0.144435141457216
0.142240812046739
0.14177301612236
0.142308858733605
0.143540095555386
0.141675724531024
0.143214991954962
0.142325222089968
0.141228517417784
0.140910171487852
0.142176560102157
0.140643190506872
0.140578480516548
0.13967958860234
0.138863439750318
0.138519002194009
0.139264786394933
0.139155323297976
0.140803417998672
0.141487382998981
0.142206380369261
0.138160840736036
0.142110766098449
0.139763488521526
0.140992962004296
0.1360183191425
0.135485339902091
0.137334872736514
0.137485424173828
0.139428370649956
0.14049252431804
0.136573053994417
0.140341826912368
0.13728233994416
0.136772417940154
0.13672191697944
0.137131152114142
0.134634127439658
0.138526810444114
0.136595379335291
0.136240635241058
0.136083100688163
0.135731057865269
0.13416313193974
0.137447930280992
0.138748441727214
0.134941565176706
0.134897520333814
0.133994174269095
0.129569168585808
0.131164888377677
0.131509281924374
0.133055550183957
0.130046086197683
0.132116558096852
0.12952072209795
0.12890292397748
0.130113173096103
0.133137401686456
0.128540143934712
0.128372684830279
0.129483206073868
0.128006025177875
0.127866091741462
0.127723377171712
0.124131463067979
0.127483284342521
0.126196916699748
0.124922124779944
0.126969171300109
0.128355985432902
0.128332828471407
0.128710324140794
0.120623005400642
0.123263508609244
0.119590623841832
0.124143084062496
0.119198120226647
0.120792063976419
0.119653368553949
0.119657767894452
0.117903843046777
0.118999300243535
0.117358013244111
0.120091493985069
0.116674111621186
0.118161330553295
0.116347192566563
0.119525732377288
0.114155526630264
0.116871550937795
0.112667033311695
0.117085888774788
0.114268379806892
0.116889571731913
0.112249340776797
0.119578467350687
0.121441923576018
0.127362182174148
0.11455221995317
0.115169017513663
0.117284772176839
0.118662312340846
0.113522887513432
0.112888912202131
0.111459674653289
0.112268465087882
0.114379943367101
0.113176688381125
0.111436328196917
0.112911412941847
0.113172538004373
0.111798819273604
0.111379416444317
0.111347118581543
0.108832544809208
0.112777527802992
0.110505988190447
0.110476257902141
0.109791869958009
0.110903099772466
0.111247601939519
0.113060042396135
0.110358113344243
0.117589372416183
0.117171497184353
0.110074364437284
0.109269755382123
0.107139540760917
0.107242670287167
0.108309586429009
0.109274089794305
0.108640242533359
0.10757209537052
0.107553726034594
0.104917625441231
0.1090114810847
0.109924731237513
0.107620542282202
0.105304144705436
0.105153201570858
0.103465612168537
0.106814525207932
0.107105724244825
0.10558954168848
0.105919268308395
0.103361310671889
0.11007583563225
0.106911793760887
0.10554172196242
0.111875102055238
0.12197172095311
0.110158582052177
0.103554062595361
0.108014414725386
0.100847668435413
0.106550228712891
0.102344601416344
0.104670221214452
0.103018536117131
0.103661030246471
0.103024643960754
0.104787318730788
0.102644396703135
0.104721725632485
0.0985198642331575
0.10410412313255
0.102028884080064
0.10319748496602
0.0990243196142764
0.102625142645067
0.108068037906114
0.118520821874274
0.109085672874705
0.102980254785224
0.101776977569253
0.108767157469298
0.111670788025437
0.115688786488742
0.097131850333258
0.104974660204207
0.0962138258723054
0.101845174835553
0.095295675997598
0.102288485716434
0.0999574967812717
0.107618949176186
0.0990908180949603
0.104108984518311
0.100588083944237
0.100480273682889
0.0978780022243888
0.101089155463655
0.0975554772868156
0.0981414439901557
0.0947524049213539
0.0961366542146932
0.0952579362673741
0.0985020154306126
0.0943875491929821
0.0979190065428674
0.0999694478627043
0.109559393650914
0.0958037315284703
0.0998635396225442
0.0965473655526575
0.0990978406827227
0.10477976430486
0.116081400001017
0.10078328967178
0.0970123038189746
0.0973061717074505
0.0959679518750516
0.100065252122144
0.0982518671767778
0.094821361987115
0.0956966407529173
0.0937649465205084
0.0955293529552515
0.0961393897119057
0.0945313170267342
0.0962756646810329
0.0970431391891596
0.0947312455490199
0.0968879056202297
0.0942975708228829
0.0969726542092604
0.0951531370624975
0.104380823108648
0.107988274306934
0.126222321370951
0.109265018215548
0.112176917586915
0.1010873283356
0.0991320765028801
0.0963267250090896
0.0981546507529503
0.0973128189954901
0.0994980809178694
0.0951617806859624
0.100010712132247
0.0970137838164055
0.0969988605545781
0.0948241835928873
0.0944836966776901
0.0921529102946345
0.0933272317753745
0.0938099750041934
0.0949411204128095
0.0938830677313041
0.0918983771284645
0.0967938671654901
0.106072440124189
0.103983977180325
0.0932321906783897
0.106812459816265
0.118323948798782
0.125901283232553
0.0994854194784111
0.100981941059698
0.0981912578631795
0.0945457408481806
0.0952004650870558
0.0977925590928228
0.103245056594315
0.0980618126583152
0.0963483855655038
0.09662718817916
0.0983832601391396
0.0947993360067997
0.0972800976901449
0.107831836366852
0.129055852491476
0.111059834375768
0.095987312003439
0.0970878580603405
0.111679071956732
0.120069088193871
0.10395015951929
0.0970641095952492
0.103440674631715
0.0932650809810151
0.0984123960211887
0.0921570699546481
0.10057111574966
0.100163171017658
0.0998007438265202
0.0941234804071144
0.0972672971756848
0.0953875671394537
0.101569105156659
0.104326113551081
0.113486635912878
0.108367775015997
0.104414945376945
0.100850304858563
0.104411665321305
0.0986254604445054
0.105680901993138
0.0959985784198798
0.101249222030496
0.11271406154571
0.11759185575068
0.110573234527395
0.11959752311284
0.110744804143118
0.105116587531014
0.103632878655341
0.119851525622274
0.101681757656043
0.108150176733025
0.111873055734444
0.13741801187503
0.130570368436005
0.121690646813519
0.109574801842032
0.102341595986842
0.105756596058339
0.0985581669914674
0.116729448975517
0.116254341054509
0.114911478497122
0.102805440301474
0.109399689330307
0.116978404022462
0.125112329269233
0.113088811075107
0.111630370016545
0.10315002847319
0.112794388774118
0.119601413708005
0.114239809078769
0.116493239422447
0.141270256367063
0.1580770306062
0.129188887595602
0.117949540252232
0.119803650894456
0.145518390229114
0.124747434055281
0.112058126162246
0.115683713433097
0.111144864875171
0.11276293742757
0.126240292371496
0.143748275845378
0.126048056278117
0.115518791777919
0.121309146483978
0.124216747212285
0.138159536636649
0.131439512777121
0.117324828492775
0.120189256188542
0.116743911538161
0.133231486894744
0.158288944758405
0.150972558840622
0.143539539273717
0.15638600880564
0.149189858185486
0.140355459586222
0.140398453885977
0.132068220694668
0.15333155969098
0.152437686619263
0.134287492578037
0.129674685965341
0.156310148177224
0.15722869232451
0.14605574532491
0.135519525633492
0.140673981686802
0.142363796464293
0.202299620894284
0.205199995680343
0.174931146630275
0.147874902622812
0.160458518132788
0.172004057356596
0.159887434202756
0.145299426487189
0.152762308462365
0.148830943963624
0.150090165906808
0.156526895182306
0.164493184616051
0.160113933975596
0.162767174890786
0.160632416291759
0.167153742373172
0.193633169172862
0.241035187902837
0.204335974459345
0.195462870875995
0.204920783181201
0.208044219424981
0.185021846125035
0.182593149283125
0.177919593584519
0.196848313434714
0.188331051288344
0.187570625847502
0.193738943285053
0.219472255722899
0.215047954351806
0.222973225337441
0.218241384369314
0.212592469231881
0.212272053435808
0.248391553483715
0.298503372031141
0.268284023282758
0.226696306089349
0.252652011593799
0.247672496404026
0.310318497564096
0.25559137357364
0.244140103031903
0.248701561039221
0.256347381638259
0.261294777511143
0.280477502868811
0.278985587100436
0.294540578962595
0.279955799754834
0.294216746574198
0.318304925920045
0.422393027509675
0.367600009174759
0.337537243619588
0.317120721893439
0.348396338661431
0.34453495581492
0.340895207845478
0.33796754997656
0.351423035361297
0.365929787278911
0.416124173018603
0.375869576014599
0.375201162375299
0.394801883933227
0.413769962030997
0.408336742337131
0.428626606559928
0.448513691366764
0.426153320047408
0.418262290811827
0.435556712617961
0.437337377186843
0.448463458188018
0.470730891763236
0.482105300785339
0.454809827011764
0.474275226392004
0.468515990198597
0.475678191799312
0.475922486640812
0.491623552145663
0.495638501749107
0.556084356435461
0.556807581854187
0.677981876669661
0.551623018080369
0.513962797918632
0.510701009177854
0.525077852436422
0.554903686002253
0.565605293209055
0.556196171596216
0.563562615441038
0.517393813600305
0.534127061111171
0.525433338627907
0.529305646820277
0.530791685485139
0.528425032967375
0.530530434736802
0.559285803562564
0.542745333358365
0.587871025276833
0.607797266353074
0.53928945216169
0.510763684604555
0.523370810938533
0.519582302689793
0.519657351793129
0.507818931696839
0.533404804847637
0.529947512829975
0.510607206250299
0.49810085485326
0.495938211319814
0.532034734104877
0.536026969376242
0.487932990608495
0.493175668271492
0.469983863483131
0.471512617067773
0.453921931370469
0.495319707901783
0.516848121557649
0.468679768258412
0.441919563368598
0.455069530792768
0.436737521610345
0.436298002421192
0.431982214702988
0.443820225141972
0.432594639060153
0.431973870515295
0.427863921593791
0.423400293973508
0.409690066846339
0.413962318935224
0.410369187944036
0.420463737457982
0.404468155093832
0.403217644419111
0.396696432565366
0.401643855608669
0.395892696032761
0.39989333566045
0.389834355030213
0.401451553252951
0.388400457220736
0.394699769961401
0.388247736621125
0.388267030195644
0.380769373906337
0.383322731748645
0.378900188507666
0.383409650239494
0.374565909571078
0.376266826377648
0.371611854408772
0.379335935354646
0.371217827247034
0.377243266877605
0.367281779374516
0.373934360039111
0.364436118780691
0.376386135908555
0.370199857341714
0.443554946231079
0.38553591412762
0.363837915010878
0.360661148183732
0.360964726571581
0.352757392423152
0.363774379750651
0.402470830235855
0.37616978115702
0.349841100533009
0.351538560284133
0.338661864150549
0.362789606236961
0.347673619300388
0.337958379968561
0.333261426466906
0.338567441650162
0.360025473138266
0.422413012843188
0.416668341298412
0.419416314995577
0.347224636304901
0.324097840523416
0.345593985101482
0.358157595695679
0.313611960783067
0.321848312998728
0.31103974049
0.374909476117107
0.330920922700691
0.309986407842435
0.300237306123747
0.303215910493708
0.334824842922426
0.334713142747518
0.318230186884685
0.331735610955023
0.336184940037635
0.342091979350395
0.381389997082987
0.390477268844601
0.325534307863294
0.294070536329951
0.293868152269495
0.291842767466205
0.305468067413071
0.350641277243883
0.294509614779489
0.30165389582208
0.279321139619375
0.279090213339127
0.279642211230345
0.305008912303023
0.290475583163388
0.307753576941046
0.311069607840923
0.278086745089047
0.296432099072556
0.300673176485216
0.3408450216726
0.340264508476856
0.27607680585433
0.274984437230316
0.318405476681691
0.325662089362041
0.286688492147398
0.292361205773353
0.260865767685166
0.281313352891199
0.279982804859202
0.274507381465713
0.290771616154986
0.300426812550616
0.309584093997228
0.348931957105012
0.360939343837087
0.33814503806507
0.277875508019686
0.266125134256135
0.264948015603061
0.272536687448487
0.268408603591477
0.269551726261926
0.309778051871124
0.282777863708597
0.275433515030785
0.329393600825173
0.286224526929331
0.277965903294085
0.273382772356984
0.280116406707705
0.291166498360027
0.325844530554139
0.337151740455243
0.314850907311148
0.31748934386795
0.333045331919561
0.3096771972927
0.307935891577148
0.305005518958772
0.313838681758501
0.318072665767455
0.343901549349217
0.329340660223023
0.335494817336217
0.342150667965185
0.351105274949448
0.375875734750576
0.387720731000555
0.365927192018068
0.414893789959311
0.407741366201065
0.470308470852883
0.411460280241918
0.409600234163016
0.410536705146498
0.419066093182793
0.422122003491786
0.434647750020233
0.456856192829591
0.487999284297608
0.449641580916651
0.470000737654611
0.460371357573522
0.480390477537564
0.481321715629409
0.525594940774081
0.50852092779082
0.57494878552322
0.550548394361099
0.525435503185662
0.507355661230537
0.504191041542337
0.516289240579239
0.516607186112983
0.497348946381551
0.505051328885716
0.503038904071681
0.548368319858613
0.511397150826533
0.512532747607665
0.512782284674811
0.520476591441707
0.513394787489109
0.527586136036194
0.5247822921677
0.525959986376355
0.525662364528947
0.537454635765088
0.526668686500145
0.638333597079275
0.565078148009531
0.555271018693346
0.556135900326369
0.557989552481385
0.5563268507219
0.570156751784983
0.592079480915659
0.580815703195883
0.577670870180951
0.583578051680515
0.574349398762986
0.584380165056696
0.590210753450947
0.625912786797622
0.585527590828883
0.605959633565256
0.583874044811932
0.633178071418201
0.661794848037232
0.628423032045943
0.630878204666011
0.62249105518888
0.610539707305433
0.617551224991058
0.608603856555229
0.625158877810033
0.624382696173012
0.61668551382252
0.622915738151596
0.616341117370508
0.613703974818659
0.625674307611433
0.609378507394149
0.659047719052247
0.614294535841126
0.612775883093444
0.60325948087715
0.603087272516727
0.59699066547283
0.634820235641312
0.622262734980572
0.609780512911727
0.606063741244722
0.627961693476813
0.633526838954222
0.622517662501545
0.592618694776611
0.60303987964069
0.592466391459201
0.609774297356145
0.597199748506876
0.620532618601575
0.650041526693947
0.623222538202361
0.612522363103638
0.619131529235082
0.615230509539193
0.618367646522731
0.627310981096433
0.632141108165808
0.631676160805567
0.636147679131659
0.648199713792507
0.642836478551411
0.655664691853056
0.65822979388618
0.676144586158749
0.687317307793344
0.657043922872588
0.660401695397362
0.656754653760257
0.663994889755117
0.669315757539679
0.663444352989099
0.657256189677302
0.664875472091097
0.652865333397222
0.656131530718271
0.685775381119064
0.664191683468035
0.674350937150484
0.656441388208239
0.634103794011722
0.642989657956985
0.641711270112772
0.644159629114919
0.642388706946785
0.641959777674353
0.630109112026185
0.633135385016939
0.622119975307478
0.617477179242574
0.623072506746817
0.631651817304034
0.622339852777572
0.622840723724289
0.61136600854904
0.628428206925983
0.618259412877546
0.621964831987129
0.618618954880541
0.606855826063393
0.634644741119996
0.640587512811381
0.643068491592367
0.631692892582796
0.62501614450408
0.630040552345331
0.612808270454253
0.61767839642465
0.607526843163245
0.612383457085359
0.601697859213374
0.610400329644539
0.598277180237826
0.606672881553047
0.594282230665955
0.610731048172722
0.599374147298165
0.59983260413232
0.586924790820563
0.592449570155754
0.584545523854019
0.59008312267578
0.583230840135154
0.590688224069189
0.581057970335301
0.582435716341081
0.572197274367992
0.571911393033657
0.571365818059474
0.573508261644602
0.573697996497211
0.57096576020537
0.566277496018695
0.563275811002453
0.564543461724157
0.566086930958062
0.55878790288619
0.564986092534937
0.566807701902994
0.564032947819602
0.556576044797073
0.556032666984751
0.55210546756898
0.550138307332721
0.541156064103009
0.541691919784383
0.534978766968423
0.539319255785258
0.535898515901981
0.530881341757561
0.516968765444599
0.523971788108305
0.517629126127075
0.514624317922724
0.504830927942714
0.506352092495733
0.507628361645114
0.507838753567225
0.498199786697179
0.498182186130979
0.493448491099238
0.499670346631675
0.496196632094844
0.495697165007546
0.490282408485871
0.494799955911308
0.491963209403881
0.489016565647688
0.488155770918584
0.493845003344616
0.492651398295765
0.495398738461935
0.495562242368967
0.502104806135595
0.499293514393741
0.499385842721065
0.501770258506408
0.501258103946516
0.497388252396579
0.503161689445388
0.504310281185627
0.505714857999157
0.503979679068579
0.507390511833025
0.505877229833971
0.503867808102845
0.511765504785265
0.513232687885163
0.507159395843722
0.515223278084488
0.510789456412854
0.509202217037649
0.509575514471044
0.509007029445861
0.509165186370136
0.513919221618672
0.505603539818441
0.511629966586912
0.502776027372404
0.504729560590098
0.498662028614688
0.501301614523852
0.497173588278777
0.501137799295874
0.4948789218557
0.500291999074632
0.498375403104455
0.498415712817139
0.493189816864209
0.491765989941067
0.48996350976032
0.490147805985076
0.488559299007666
0.483956783590672
0.481228877542568
0.482915751599312
0.484861069517227
0.481250019720945
0.475765080998048
0.477808050451251
0.469850195852492
0.471415338675169
0.464897604454149
0.465183416221959
0.460643070367706
0.458118505783199
0.457433549937321
0.453884556007718
0.450077820662756
0.446503436016498
0.442802444930143
0.439616740925701
0.432821387094544
0.433399254133458
0.431326756850267
0.431153572776617
0.430684504341191
0.428513132164791
0.428712077073529
0.424775971375579
0.421773038887939
0.421104099785618
0.42090592276996
0.422186185448707
0.422902977427475
0.422693240781447
0.419896684195475
0.421683986226411
0.421126299102771
0.419212892549958
0.416700782438015
0.414138189263653
0.410400542969911
0.409887771871326
0.404223685088826
0.400973866541525
0.393813886427219
0.390087932731054
0.383940759573988
0.378815514526812
0.371289348614805
0.367373464824787
0.361563257700478
0.35754837533953
0.350894465730829
0.351097110525917
0.346479614827236
0.34387135908945
0.347609941214018
0.348653734525086
0.34816289044038
0.35350852149985
0.358832149650628
0.364814993252628
0.369271804859811
0.380989672645591
0.390871277447365
0.401456380695306
0.412659243299153
0.428778935010235
0.441142477062893
0.454582974164963
0.47532418918932
0.488120202575564
0.51012391624162
0.530022812633106
0.5501087091087
0.569088526740185
0.598852641539333
0.621486836171646
0.647816538269637
0.674130821830779
0.697392470240248
0.730982667960859
0.755452525031464
0.78724410548651
0.812292861914251
0.830268639741175
0.865107596380595
0.880203437466807
0.900656580571563
0.925570767809078
0.939065154155346
0.952539961838074
0.962374423805166
0.960734893499744
0.967692928278888
0.976476329040226
0.972339619518598
0.969166108361094
0.969493195099851
0.961312850192494
0.958770509705471
0.952244818366674
0.926289489022107
0.927856738421754
0.902800679864095
0.910952108018283
0.912232392581275
0.895095360329627
0.886291942331647
0.88593157047143
0.879704974285753
0.886075615758146
0.884048709661857
0.88329656430101
0.88658508533878
0.889554316851965
0.891679874090623
0.895516239632457
0.899392557729814
0.912530614603881
0.935094104470804
0.944739892964645
0.946638184219263
0.946011878865331
0.966878431491364
0.961438737055922
0.975618946261743
0.984549331464527
0.98624872674032
0.997300796766996
1.00036451672727
1.0080911675647
1.0234128565436
1.01504205104041
1.02233609973317
1.02223117758976
1.03573365118143
1.02800287550586
1.0235045949369
1.02660734579241
1.0342796268115
1.03899904489053
1.0417327707585
1.04945956624957
1.06137137136661
1.07295415559763
1.05572817615652
1.06426771601469
1.08093041772378
1.08746696300246
1.07626558155013
1.0893807224836
1.09205539108246
1.08609810525362
1.10211141246972
1.11174113341897
1.1270881796832
1.13874200012171
1.17200520873447
1.16264716000295
1.18565039930724
1.2256544923083
1.24759253577401
1.26448523112299
1.29677656866172
1.35098377142219
1.36588049882713
1.41100378825837
1.4087531186879
1.43620219391499
1.51420437170544
1.48900821224188
1.5316017008879
1.58093384503556
1.55359741269814
1.55790880291273
1.54664104075278
1.53785169725632
1.52602216117894
1.51341717508111
1.49114662598874
1.47635738359365
1.51239601453023
1.47907933490845
1.51215049698103
1.46396911401378
1.49872098929416
1.48288676847155
1.50249576314725
1.51267325155317
1.5425733863433
1.4941259232955
1.492585582692
1.50499552298087
1.61905348691371
1.60364426344262
1.6041153657257
1.63463521585054
1.62102913221262
1.66686543009876
1.66334694856706
1.61732941407436
1.67201444304495
1.72467132843028
1.74519572040551
1.7626462060192
1.87432738247692
1.8444222476682
1.90051230879449
1.84853218545155
1.98948990120602
1.77648748420055
1.87854681633487
2.03075799692084
2.0585327628491
2.18760388442715
2.03454421735724
1.974790270527
2.294042122763
2.20824095214601
2.20505725140143
2.11332176697035
2.52502816562734
2.18369978258267
2.65964723571257
2.23739922285587
2.43766060652087
2.33773514963926
2.05787920427494
2.39112585224607
3.05631757231768
2.03942634403372
2.6993431045441
2.26143902167411
2.45533247741839
2.22446164116011
2.30309894309501
2.39345065705659
3.28857488504896
2.38270984761352
5
2.28050618536108
2.29495033008038
2.50132780328879
2.09329475660357
2.04231059943573
2.20987487954861
1.9845564136658
2.48008994338244
2.21924736554342
2.10607920788301
2.13432133626607
2.16661181792196
1.95458173112792
2.55083014823968
2.11030997556681
2.09487571582855
1.99114195694148
2.20715957769281
2.02978422608142
2.08407390019284
2.03572801417314
1.90871502886963
1.86086599850071
2.09547567421545
1.8410891490243
2.00818105124349
1.75826209775871
1.76931846845358
1.68613759730363
1.77873366653557
1.66458209755831
1.71025072937012
1.64489011430377
1.60201434579208
1.48877508309087
1.50067529273792
1.42969469548946
1.42846502831666
1.37595726217541
1.32178640279445
1.24922377886004
1.21073551978308
1.14747596436651
1.10027912221133
1.0664001227428
1.04030161597209
0.980742034209952
0.950675017942108
0.909116813768242
0.885735383499271
0.857077024186433
0.836261826199542
0.809392342973651
0.794782874567967
0.772616717227487
0.750470109379824
0.738870706641229
0.722372213913132
0.715016653703495
0.714522781973432
0.690860916993158
0.695566141366815
0.690824400253161
0.690104270538055
0.684275114922211
0.681033356458786
0.687144812406659
0.694879534430601
0.691299886521927
0.69174139823946
0.692623982383296
0.696857117673304
0.705290109923789
0.714543493987022
0.697897957448652
0.707825069572436
0.716830380203134
0.73269394045506
0.73274531516265
0.747645303959311
0.748126818822017
0.741838225495776
0.744682201891507
0.750754341263388
0.75363517512636
0.740599509127934
0.742315985672989
0.741981669346597
0.740920440429598
0.760042716762232
0.759645767122015
0.771121339225584
0.767776602940201
0.760974304609027
0.748210322526477
0.753169108114215
0.749092310279979
0.755316841744735
0.747355395032103
0.747373556185789
0.736192644491705
0.745841473572809
0.753258266799216
0.734254800125332
0.717024323209014
0.72270820253058
0.722070367885779
0.716521406732427
0.720142118320732
0.717966511107752
0.702258768335085
0.702306710813145
0.687036816688944
0.709516935568331
0.695871017482309
0.710158208405306
0.702691547095158
0.7010338095107
0.710340000236814
0.716698730659109
0.707190355207245
0.738229671309805
0.750192451518826
0.755405154416293
0.759997497211779
0.772170934395527
0.768265666614884
0.775445758016704
0.755288610189031
0.783749673321543
0.773548026352535
0.750927187759271
0.733491856735891
0.718200436513124
0.719413212046926
0.733066312596331
0.707506738036991
0.696977313809422
0.697059432104133
0.702601829680287
0.695581893637046
0.700291401423083
0.712545878165997
0.706633014003192
0.696803650832571
0.70981969832892
0.703143929749026
0.716856981140153
0.702598570302574
0.721616971358015
0.715440631787244
0.717758143707597
0.703762772752938
0.717139319154758
0.722404676355954
0.724404946441296
0.724012883412157
0.734281882944467
0.721120294556094
0.727043537072916
0.747022667344912
0.755356117286637
0.741132437399819
0.742563265266295
0.73177335466737
0.749123988296416
0.743282803768406
0.771816892325296
0.751940873908926
0.748307300538635
0.732864267367937
0.747302710785952
0.737492956768222
0.76176987397665
0.760807934848016
0.76104329481631
0.748127344804005
0.769813431616971
0.761054659132958
0.772581708002927
0.749938592963313
0.749098203014116
0.737536741271715
0.744242874219094
0.735024128249856
0.730285390160153
0.734183076458732
0.749056464241104
0.706206389704277
0.732428872630056
0.738084355291805
0.732476711042094
0.688956177196366
0.704667898987618
0.698043169001863
0.701788659221203
0.695284993967551
0.721861406121363
0.719229203091021
0.700131521882821
0.689131857448432
0.704561689791981
0.703901976194696
0.706900968499408
0.699654703497331
0.706306027207657
0.69160955138815
0.7034138383392
0.708488282610776
0.721499597764335
0.710368003649902
0.701624629410405
0.729021179030551
0.732535988229192
0.707031716984852
0.740067580451651
0.731913250208248
0.74657657408794
0.716694071279822
0.747092372684401
0.710430273174693
0.766208069252844
0.740841822580961
0.770730721551327
0.751584627630099
0.753205405405749
0.770985241696655
0.784234519095705
0.771278582484265
0.809652575680921
0.814283329949406
0.839766735028879
0.82240631198808
0.841940780711155
0.84733294127456
0.878876586602473
0.87299404525528
0.916384824053951
0.898608913402129
0.903177022745233
0.88903446603467
0.934701672978913
0.911973634721595
0.991216820130696
0.986031735859708
0.975627786767545
0.960470164941233
0.999231165714218
0.942107470977564
0.992990116607453
0.984738664363786
0.978042954954454
0.973591628136384
0.99344354135952
1.0052186223865
0.975192347594634
0.944781515747026
1.15373465100518
0.990384944334601
0.969539022998591
1.05626147577184
1.06037528494746
1.10463636444813
1.12394824754575
1.04923798337244
1.0850156525856
1.05544965574141
1.20018943533193
1.13550506732691
1.09410485592737
1.0401946649175
1.01629917322354
1.05999509033564
1.06675378255474
1.04674595244744
1.02957509950772
1.0440079290091
0.981889470024403
0.913062505179205
1.04795826047295
0.940700062715202
0.907871719043824
0.998325116580046
0.99741984361444
1.00976531510726
1.05782261696956
0.967920499072026
1.06207148092665
0.971230642943289
0.889364256104654
1.05989704402476
1.13523387590189
0.963855534443659
1.07651899920149
0.945916688543734
0.948890532779983
1.02028133468366
0.953504879001542
0.994296605314054
1.2359476290772
1.06062594937832
0.977448250401061
1.04955886534912
1.17274438206369
1.05054667415896
1.05361186961493
1.10694087864275
1.12197807099988
0.971613202718792
0.981272025792314
1.1259610717445
1.13488446497676
0.852993694491499
1.16897450604006
1.31821720135013
1.12970766512721
1.17571097172632
1.05172629004701
1.18861446555336
1.39114534464568
1.41441115100539
1.12321964428361
1.150379178311
1.44914868264194
1.3575767155634
1.73858764127774
1.39033357621091
1.24784262736554
1.17845603294071
1.02595711317497
1.09495323187638
1.40099011375653
1.26085169591315
1.24080280255181
1.22826273349595
1.28324020626519
1.47740658963653
1.55403938106505
1.14944263429107
1.27999451719736
1.09612433858365
1.32905155757688
1.97938909386095
1.37865054267371
1.86515310062391
1.47903417265006
1.07997504184758
1.06515758013536
1.18828058739016
1.10223049660393
1.8349172676524
1.6768762007258
1.07211401919179
2.01516865425995
0.993789001741085
1.04179989767421
1.94546271760221
1.15496651382869
0.9207760790023
1.27586687257948
1.30112994088781
1.37713244886979
1.22383165873557
5
1.31381141954589
1.24117395505665
1.51923042503885
1.15699795974005
1.38483438976787
1.25118635885541
0.924621839308589
1.02392152446745
5
1.1896745721407
0.668668978911731
1.92418322838321
5
1.12534248628414
1.48736520039181
1.02273383815825
1.07395056364859
5
5
1.74499290396442
1.15968554354864
0.927570367629922
1.42779922880249
1.2947602149779
1.10002466889109
