3596
4000.36533379555
650.420452594757
1
2
2
0.0813993109806473
0.101421848116637
0.0900467231756684
0.100196959049972
0.0869618189417974
0.102571447259743
0.0811847553828719
0.105252587165204
0.0866355105051227
0.102056181450897
0.0909304439124511
0.0972936262856141
0.0797495258109346
0.0948823048483415
0.0844668037700466
0.0946311537438641
0.082223124692688
0.0988400577291747
0.0886085597497617
0.0964757000129144
0.0808700275189888
0.103591945002905
0.0818523304119474
0.0867060006618033
0.0912094434282415
0.104797804563039
0.0899838169813073
0.0994844355356206
0.0899083236203603
0.108579700921611
0.0859598180148294
0.0986806401764253
0.0898663325416597
0.096921399153333
0.0779327503830813
0.0967723048197403
0.0830219448404676
0.0980956309551382
0.0795549052912457
0.10512960954771
0.0958595295407554
0.0952082913680146
0.0845910731534197
0.0990337405729097
0.0916342951251843
0.10158018433535
0.0808523751754751
0.0992817354943705
0.0856391955923677
0.0984308077300366
0.0831773594989431
0.0910237036330463
0.097267985561675
0.102591907423854
0.0884089748179854
0.118512210851165
0.0819281777288032
0.103361078707202
0.0847739964689599
0.104109103554843
0.109978484321703
0.110034218431725
0.0854571859054063
0.101916608725871
0.0810765537782261
0.105899142660399
0.0784079574835512
0.0976672820244215
0.0830655819407074
0.11089455282875
0.0825450001190602
0.12634130724329
0.0852759492005064
0.101201946654781
0.0936076162131719
0.0954692738519828
0.0828214022373908
0.0928584321254875
0.0762486173773365
0.114531306541443
0.0911979823982363
0.104878062382607
0.0855377017942865
0.0877636164243799
0.0874648034961923
0.113476161654965
0.067793627565654
0.118608059931647
0.101268715420514
0.111675595383297
0.0774756426920532
0.100719292222738
0.0725802892777644
0.0891447207894908
0.0808309332702779
0.102231334094596
0.0761298581618025
0.104077893635502
0.0640257166360753
0.117003913776304
0.0863665971853652
0.12087545358184
0.124293269187773
0.0911658332706229
0.158335706384575
0.096527617811813
0.10681532627064
0.142822472513759
0.0911766627059315
0.104870108963589
0.0744881750274451
0.10251581609943
0.0765895017324395
0.106603560377795
0.0644261952430597
0.13714684818536
0.106048773025205
0.107455910250263
0.0782909060437592
0.0946944301311063
0.0635413516062247
0.155487113936968
0.102106538060747
0.0984115285802176
0.09550805070709
0.0951101133416124
0.0752745855806448
0.159619619250607
0.0966864861814696
0.0975409671899262
0.0793194824604475
0.0900735901533073
0.0728286231622157
0.107481931941167
0.127752023370451
0.101154536185783
0.0902056473251807
0.0845489891479627
0.12923005814747
0.144776798380271
0.0954701548730317
0.0974867240830142
0.0681090055629007
0.112018182941777
0.11230831035642
0.107335099236443
0.0793752212626259
0.118971300688075
0.0761775457591654
0.0830869112450322
0.0704991765570018
0.0898142141847772
0.109942574454921
0.111239966035556
0.0518647488768722
0.197026308388604
0.117243730110258
0.139697559324444
0.146034956213197
0.0845269122216611
0.106368693811173
0.0817638122944339
0.0892733976454267
0.0759904447770516
0.0808957592872453
0.0771178548557286
0.103461730017466
0.11619799686477
0.0805385520853453
0.100409350568573
0.117159555395173
0.110489844042294
0.0774017875366214
0.182466346551308
0.0795874969955761
0.0991160270728537
0.107975373573415
0.112656828087729
0.0661601413557184
0.115902608066897
0.103158557807032
0.0941506456018788
0.0813003981617842
0.0867620423486463
0.0937491037179262
0.112665853690032
0.0850986353207149
0.090939156344986
0.0829902448337184
0.087070695712402
0.113356667362451
0.157153999663295
0.113801855784567
0.092345523586248
0.0866979317435708
0.0636241195768172
0.129726427301531
0.118734101540905
0.083043249896439
0.0822515749369114
0.0738263738258195
0.0774181878983531
0.0711458291750959
0.082806272905152
0.0723506686456838
0.0838668929481001
0.134006250515703
0.0955456658283729
0.0820812638368885
0.0764151033669101
0.0918118142166078
0.0891594299450086
0.141792207882398
0.113357713349419
0.0884721569804314
0.0965400115349432
0.0787380065732104
0.112401745801804
0.0938511463835306
0.0812618756290313
0.0759060073223693
0.0882962056470069
0.0791291375168078
0.0852823922872366
0.0772000917168325
0.0880984028477246
0.0854030752199504
0.0873013306997156
0.0791784093377002
0.092368087965329
0.089677940256227
0.0870266688266694
0.0769045193934269
0.0946069471211361
0.0624900059482441
0.118574915704281
0.105795201331731
0.0914394794209703
0.0752527544753574
0.0824297413933953
0.0776368938434305
0.0840410805865374
0.0777182482225747
0.0837000188309112
0.0811983117189534
0.0802962576448916
0.132763315110268
0.0846978734913608
0.0885124266836082
0.0714749868056344
0.118362512159152
0.0958930650202294
0.0920937827990521
0.0811040299825014
0.088811384784392
0.0762740697021348
0.091512288416075
0.125554054800769
0.0903268033413639
0.0874031001020562
0.115476912245615
0.0955191875394644
0.0858689757971001
0.0913911853802935
0.0781677979780677
0.176637806313234
0.107368656648997
0.111228050630043
0.149235597069422
0.106593910820412
0.10971996947502
0.0942094767266916
0.068093348867719
0.219367276931453
0.121031384760878
0.0972126661695538
0.0949183040872573
0.123129606069919
0.0743571516290283
0.114333294758926
0.0878548912617627
0.128327570559919
0.114448947581305
0.145754433325822
0.16235921666019
0.0731473421753675
0.149048283683588
0.110039183558864
0.0892094687146432
0.090075640740276
0.0913417739032555
0.0954851687598121
0.11320863098011
0.110469961563946
0.111322168836915
0.100047406746331
0.0988399057701819
0.137454957918366
0.0987560462778817
0.0996126486287492
0.103057138212801
0.11081328132882
0.0780805201746188
0.0966538478001126
0.0820755702908168
0.118559509863789
0.0851397216769049
0.111840296704053
0.149488635959151
0.106520332093669
0.0986365121438279
0.140555022567484
0.0879382777875138
0.0979490557857319
0.0829899623094401
0.093810502398604
0.0822953944843655
0.091271261976346
0.0873452288526413
0.136138341590785
0.094998992161148
0.102291841167212
0.0893606153109607
0.0929333471314802
0.0903923275277915
0.103189541188579
0.0982463501955347
0.103720537600443
0.0964361369036648
0.105846357449793
0.130985639683729
0.147869866120059
0.0895666150574813
0.177843183607777
0.124981984068695
0.111887067682897
0.0973493972762282
0.101195741180144
0.103549698585762
0.100321384579208
0.102473045810906
0.105264573015829
0.101179926056648
0.127390913797047
0.111497370681332
0.120390598875437
0.132458295264625
0.191794559423597
0.193442505094642
0.131013898806675
0.115154364049192
0.104002625319511
0.171601169106419
0.153408284827999
0.151108492846902
0.158447641671691
0.108933120576275
0.138900834868691
0.107996123607316
0.128324058611138
0.104684739268502
0.129550491708011
0.109707138441939
0.13748079933392
0.120426752785538
0.139467274356333
0.120866068597231
0.157365088465204
0.162670257061186
0.145745440987927
0.130837651593055
0.155709426624949
0.13082411114382
0.196418436619815
0.164415600089025
0.230893160231165
0.17768733349928
0.197749083472651
0.201090980394444
0.154627800264404
0.158824217007152
0.149920170440163
0.157734097588682
0.169595188107888
0.162945156858863
0.159578206704796
0.160844230393433
0.169530154683242
0.162890686481045
0.169125537918061
0.167846523751863
0.169602745489751
0.202715151545407
0.176542744776698
0.190399910574956
0.181008481383413
0.220656008486472
0.254637053194683
0.225208519025666
0.196719912053641
0.193704855973271
0.202008120949847
0.188532627297622
0.198309642686652
0.185179611364012
0.2232812208009
0.209761066123696
0.264143741374824
0.216781576090373
0.244107715617848
0.234622914796174
0.215193025474112
0.249701762675017
0.232272139257076
0.248320998615809
0.27079683243515
0.225325281228694
0.228388798235695
0.26890963745885
0.263417695679649
0.242647655453145
0.274803095193055
0.223315962607117
0.261651384647077
0.247848264124198
0.267364117224259
0.237551524508513
0.273236750002778
0.248994282844828
0.267431090349205
0.274912205357381
0.269346577401247
0.256223540339596
0.308718256090694
0.279071988390343
0.286408954229552
0.282182715257069
0.26386508571388
0.286345929263541
0.283969308528668
0.327964557280675
0.322229177950031
0.3234993662787
0.344441097520035
0.283398052684657
0.31668837629394
0.301582863145327
0.32640143164683
0.306420893068162
0.336836235029756
0.321768657616706
0.33905130822836
0.321354012482449
0.35772497470252
0.338394597356128
0.350211567078676
0.34514517972705
0.342264780875439
0.336968337223329
0.352808832705081
0.355248535096807
0.364931689915143
0.394658472478528
0.420235570650102
0.393483604839963
0.437451149715597
0.38151629826058
0.39128852436961
0.366981052440845
0.395634101316397
0.379710655021121
0.430181821426011
0.389538356248992
0.411216383151783
0.384789114101494
0.424220988232132
0.398349291007534
0.427417673598225
0.415177360323838
0.435595366449439
0.427887725743656
0.454838052215417
0.418000296083518
0.439561765800005
0.437129193060697
0.482403095029864
0.43987029269129
0.499210802429289
0.451150840191816
0.470427629435179
0.453125872704727
0.473060722686135
0.473054435497806
0.494993347940734
0.466081695936183
0.498936466877168
0.456150782360383
0.508580233623255
0.493137102250155
0.503545769328272
0.490081424567331
0.504716101520193
0.506776050599492
0.536002177054161
0.514648684086546
0.541527733183953
0.531005446482974
0.568390526156029
0.513251290561595
0.53601214635033
0.559996435165388
0.560278626682087
0.528477552049916
0.574348775683493
0.52874592994021
0.572300386328281
0.551646719006235
0.582957647589704
0.572143615178904
0.589748942340302
0.552181368520042
0.589324460072272
0.563234594036649
0.619177528629559
0.606961114913668
0.618876277886903
0.620525782123317
0.625519860698866
0.58907790489867
0.637139165454355
0.613975522853094
0.612165375803803
0.614726609601826
0.660601953310697
0.636896065618992
0.664606826896085
0.623218916396783
0.640605885200746
0.625549496592705
0.685122410819783
0.67825574922382
0.673978042482495
0.673585059893334
0.715773300681542
0.684405745070215
0.680533580222201
0.695206756745859
0.717119922086576
0.671547532608794
0.702133983725271
0.69395920230496
0.725321536638971
0.712603196733219
0.74298330065529
0.724425297939014
0.722367868137844
0.686044022411372
0.714258542950762
0.69277195512293
0.75892718974867
0.733266268812695
0.743133138294896
0.746599398484855
0.767571097562068
0.745347657399651
0.7734264181009
0.742547648086696
0.773169706506094
0.739852684784509
0.790222579019857
0.776862845385294
0.776941342699546
0.780465317445466
0.788509305300674
0.81092168710085
0.819172535752744
0.791206561265525
0.848799936576487
0.810079719076753
0.848967761895475
0.814917073472042
0.846804221977569
0.788734186451819
0.82825716898689
0.773322337827923
0.854051599966209
0.825294606873536
0.847116491059579
0.816412108870701
0.853303401272412
0.86920798996454
0.906167471985032
0.885430311632041
0.868777546313019
0.842619767100007
0.898245196328056
0.847871989968188
0.9041834457363
0.85480838874961
0.902775993155821
0.874823436449992
0.860452765215721
0.866904797474889
0.858190526062354
0.870710133735012
0.94686448409114
0.91104381478648
0.913125609802047
0.883283910439384
0.923920958096255
0.887182193737341
0.973177373653086
0.975435410887131
0.971194118326013
0.955344822456026
0.941664264374182
0.938491316189485
0.947472329774038
0.939148990658096
0.964020234330988
0.974063646924323
0.990259080230692
0.918081157282231
0.962888126610301
0.925235041632277
0.939977668713863
0.944358216886259
0.989511607408131
1.03155768620237
0.996944087039385
0.975519746717094
1.02780712369962
0.993561397460485
0.984547829867114
1.02839002508714
1.04547372703581
1.05620758713446
1.04994010260684
0.964158551700107
1.06181716965666
1.00728687589047
1.03073850127097
0.996696386153495
1.05516820797409
1.01725936647168
1.0655545939927
1.07035847442021
1.07719308102856
0.998441955536939
1.02437939890157
1.0762211102694
1.07367403229052
1.05408057639035
1.10962503244777
1.04908238268587
1.09333872511337
1.07458278685053
1.04065784185787
1.10920131816213
1.09175432712198
1.10102120389597
1.14242485094104
1.02835925794753
1.12214422963973
1.04790180503385
1.08582047245308
1.10000849048271
1.16612383622321
1.15983624300304
1.13786026534578
1.0904898027802
1.08315412731784
1.08558665139411
1.0989853128075
1.07408840601416
1.06767663654675
1.11788784949707
1.13977679836523
1.13160331178144
1.15861699083658
1.09565426961447
1.20196745233453
1.1227406131658
1.13273678561762
1.12498001208326
1.18870799621508
1.14147744084109
1.10680771465513
1.1676668594598
1.14074205780061
1.07477793070259
1.12716608905742
1.10381794867648
1.16341033171691
1.09114159773621
1.1204474643542
1.15508279238942
1.15739436315054
1.16829806682762
1.22534482407534
1.10361832599557
1.12953020738866
1.1688881240646
1.13820126160421
1.11195106864945
1.156919667302
1.14575742347516
1.14519264988254
1.1857973239972
1.18700368681318
1.17928677906011
1.19785005556791
1.15689639140168
1.16811800246564
1.15928258089653
1.21535054761914
1.19755006717129
1.22299586003235
1.15789830645661
1.20882279677541
1.17552300221912
1.16439767866214
1.17882935190259
1.18160628955544
1.19250336018651
1.22258096925651
1.15645893543437
1.10640178864549
1.10631936465395
1.16394189763151
1.1686459175493
1.16671283084863
1.15417894142416
1.17157183610656
1.13835279744504
1.16329555896441
1.16445293025214
1.23764560760786
1.21084570321563
1.17739461696735
1.15185772755268
1.16065892684214
1.18015385726669
1.17816247826091
1.17447020335834
1.22537811296138
1.16294323006882
1.17114035625676
1.1357772038621
1.17392177337889
1.21147684933273
1.18020323088091
1.14390898843569
1.19775854379443
1.1361027412621
1.14099252615346
1.14797880645975
1.17163967697466
1.2014647189798
1.1908037707542
1.16816984348407
1.17558629446123
1.21069066682098
1.22207815027766
1.14819502374507
1.1901675111098
1.20358188995214
1.22908398656725
1.20435581585307
1.19363677856978
1.15973256400873
1.13490605524536
1.1741925638728
1.16655990791901
1.18464390516666
1.18974522599729
1.16996694189231
1.13669419133374
1.14879727596356
1.17187873396892
1.12584914099952
1.14187890346052
1.15881865828186
1.1541729625064
1.16763868878919
1.18234817238136
1.16560303413372
1.23691396940281
1.14990024635106
1.16314293645233
1.15189802726608
1.11725319526577
1.13782222387051
1.12505597722383
1.13333869739421
1.12778373415496
1.14225574989779
1.19591968960511
1.11610351287452
1.12792658624189
1.14337042137178
1.12516900774493
1.16427790156335
1.17072594367321
1.13630483434079
1.18284414984379
1.12817958550293
1.08413450102633
1.12414186571853
1.13695110750547
1.16390999193616
1.13454129433977
1.1011243998296
1.12630380386645
1.12201142052022
1.09252584880416
1.13136390114453
1.14102022063485
1.12146939955979
1.14932421987048
1.09524563776518
1.09131523924495
1.09243298812263
1.14902136717168
1.15986693608583
1.08646750568194
1.10051750710803
1.09364936944121
1.08527468136651
1.13907441987978
1.10042910310353
1.07286278570409
1.09639691196369
1.07279201950637
1.1049532003718
1.10977449450113
1.06458555193496
1.07631497766679
1.06987173306319
1.07766934482564
1.08799524610792
1.04603874249939
1.02457166755291
1.02542280404456
1.02964648752612
1.03864402344013
1.04315238396294
1.02558482441497
1.01632957091708
1.02284289194058
0.998405209668564
1.03281957924692
1.05835568337385
1.04239969548751
1.03181957421801
1.03896165915728
1.02327242807706
0.99429513931848
1.00359478383268
1.03737170161549
1.00989126031977
0.961362777773141
0.973457816465016
1.00092588919292
0.961696066666167
0.962695826390984
0.978539533921255
0.991805470186698
1.02441288237743
0.984280804165421
0.971177014138403
0.964969254909014
0.96484209001426
0.955507165663011
0.965074257250212
0.949512834304947
0.955458383086561
0.958919375824045
0.904622915983612
0.922578729171137
0.929942305254734
0.912017842359507
0.907749849541386
0.904462645203829
0.906746277812953
0.935803611935933
0.942993018571367
0.920222196685662
0.914197797526755
0.917336724352897
0.924688431994886
0.908780984049367
0.89447393989083
0.897911004675877
0.899903289923846
0.873744104735137
0.859696462866233
0.845665360238177
0.84860732113958
0.854996026746515
0.86433817681135
0.873118746403028
0.853152536459696
0.851286339055594
0.839146258785169
0.836507074803734
0.822874713267872
0.808822218605194
0.816325837311063
0.821885758304032
0.834979205899428
0.832639348166779
0.820913072962786
0.818874530918784
0.79869262154125
0.801185370904628
0.799603877987214
0.786878517773001
0.787448924000611
0.7599983497116
0.773238565840353
0.771923622956489
0.759453818417436
0.780885899513086
0.772386263718352
0.748760585927541
0.760091999136548
0.753614442179711
0.751061957352933
0.741686891133979
0.74445332104456
0.749078041493553
0.74611983818622
0.731524394418512
0.733516079223215
0.723036437617705
0.719867622726917
0.714085458719469
0.705729233040014
0.71500938532449
0.714027798299237
0.698563208433105
0.681257178869822
0.676413798990062
0.681482959456073
0.686965107519699
0.685576358107751
0.680623216594256
0.676056232077729
0.677495360421373
0.670476625072072
0.676299468007787
0.68187742489584
0.66166914612049
0.649404049247473
0.644251234391157
0.642522683948003
0.652394303631495
0.648098592581994
0.649041438317338
0.63681664358016
0.621934935499357
0.624613051807783
0.629559242938693
0.62322888435022
0.619177173919973
0.616583327308804
0.620544815256225
0.622516833231123
0.607420562189535
0.597609192823063
0.601943663401464
0.594465717060756
0.593487353294154
0.581850169354644
0.571906041752766
0.585298484739165
0.573368662804689
0.573482595402498
0.584381494433277
0.57358819064645
0.555088651805963
0.566763668331955
0.564227317429617
0.554589461789273
0.551841137491003
0.555482046539807
0.547019687594389
0.550290267447305
0.547938601908018
0.54655472470425
0.543640167243206
0.539328971450822
0.541243465408989
0.533981725068903
0.539765957624077
0.533787158675004
0.520984514762442
0.526923965195489
0.512564340145451
0.501656039932872
0.51480248079015
0.519192076170235
0.50600005190313
0.505533477934783
0.498937020848733
0.503641665639637
0.50266242671907
0.500604406194808
0.491819690065971
0.492546432291072
0.491424034625652
0.48622700869021
0.485962478193654
0.47984622848029
0.477974581436339
0.477035158651703
0.469531158992572
0.471593652609196
0.46980217735763
0.476868244141204
0.467804342547308
0.461256430179833
0.456870064234132
0.451691944165125
0.455058845793767
0.44854364945607
0.453611643720741
0.449890112699786
0.447240898613396
0.450160464132859
0.435680935415854
0.442638423997626
0.441708108313722
0.435247545404821
0.439122058528482
0.433198814080704
0.43190161703164
0.436982614159903
0.432156810335375
0.430858882189007
0.421225839629085
0.421206020371353
0.420280399464011
0.418795755130951
0.415188611091155
0.407704178727089
0.410807791894328
0.409478863888403
0.416702308438256
0.407199366292947
0.398388867311585
0.399244564994746
0.397335383599602
0.40363947673817
0.399782830052996
0.40060124528023
0.396089190696764
0.398332696634266
0.394456622099685
0.39654729852942
0.397234825899363
0.394195051491582
0.389554894612552
0.386144678343167
0.387397939197559
0.392225583121977
0.38590500980225
0.387016815611848
0.381766314545615
0.383391151660666
0.385776269574209
0.385257371083349
0.377282749330375
0.379643462291821
0.376952114520437
0.382196851369971
0.378559974792931
0.376800335210455
0.379974509765514
0.375261238232386
0.382670301199751
0.38444035870392
0.38025321351716
0.385475874108225
0.391947279855372
0.391563451780513
0.377042285742492
0.378938843706738
0.383497081082409
0.388818026120959
0.388908439293708
0.387031354890337
0.38844984416542
0.381838784578564
0.386046717306224
0.389564603220372
0.386281639379152
0.395874591975374
0.394141626438032
0.396861504768332
0.395029774319427
0.40033914968102
0.38879222708973
0.396155541649228
0.401659150953194
0.417247269875717
0.406448070854663
0.413416360329531
0.416485663006588
0.409918539246324
0.417140412500139
0.421440277733136
0.419322248237482
0.417936867313984
0.423835786736503
0.431166270469628
0.425815242195858
0.435423310654225
0.429484214066084
0.439831712846325
0.443110608152978
0.448342873563398
0.442558265768507
0.453793692490307
0.45459166472548
0.451823496829904
0.467244769105008
0.466578066862423
0.466284625859529
0.476965168912382
0.47000655041581
0.480850778002967
0.487774718747393
0.491778148737321
0.491002413628171
0.505770483487474
0.505724394505511
0.505833732752942
0.501354336270324
0.507843527288404
0.512525636782665
0.516111674854539
0.520237411841556
0.53700966599511
0.536573585192249
0.53066201322023
0.529118547768165
0.532982501961539
0.523001475048981
0.529681844198792
0.542417130375799
0.542488495356014
0.539023975059653
0.531573719029735
0.530452565805848
0.551550922233915
0.534456920323746
0.540806953111217
0.535529540149288
0.525472540207468
0.51934667991914
0.517964511527867
0.516640233005319
0.511981706724411
0.506651219303294
0.529583860298105
0.509361403928242
0.509855231728627
0.511580544576879
0.513483343531415
0.505552875220289
0.509022370037473
0.509113991869492
0.518082227334489
0.509153130132924
0.51344192568541
0.514281160288236
0.511599675942167
0.515092466620613
0.513724249649808
0.503503675160703
0.503003814578599
0.507587465479608
0.4992244627573
0.507727545791505
0.504240756095035
0.506459338549678
0.500873116666101
0.496344690345316
0.498451488438506
0.493960259731397
0.500198295740277
0.496706073115623
0.500984434594722
0.491203736507117
0.497217921838005
0.488034401695608
0.494927330930854
0.48222357187437
0.489155773776868
0.488119292742704
0.482416826796857
0.479265207764372
0.475003638440276
0.470065003998697
0.476818008335676
0.473636165500896
0.47124170790857
0.472069086227833
0.469467453862598
0.463876398386341
0.462623693437157
0.456588692852828
0.459074953063696
0.445013234565001
0.44219013796811
0.437611945600205
0.446514946490127
0.440722040705985
0.434132940185284
0.437191918244869
0.425958130917539
0.423277978918601
0.431474865098564
0.425301405116597
0.422023168898472
0.415603936365374
0.418454037219883
0.416447299966976
0.404466911185748
0.404189684022121
0.402677923572046
0.39557419462658
0.390712891649989
0.39127564841435
0.394825180666591
0.38879176962958
0.388625386668781
0.38738712235887
0.387226915866778
0.382109363704469
0.381715746014024
0.380617805371482
0.382523323981516
0.378655087449113
0.376113573065121
0.372652610343431
0.372180782378494
0.369689911658463
0.36219058536066
0.362710705427532
0.354987308781295
0.362199003781319
0.361365553825441
0.362979715375427
0.360388432953415
0.356008165944393
0.357411317936824
0.356266654230221
0.354543599115058
0.350967673877805
0.351848868473547
0.342100904664171
0.344125236252249
0.34341457921989
0.349262198614429
0.345636327854212
0.346082045030461
0.337120468254277
0.345964951524556
0.333155620145404
0.338257322913078
0.333133352215736
0.333919745240832
0.333407484427557
0.331116961021996
0.327920498644171
0.335762452698797
0.326857751085171
0.325837360382644
0.3245535379694
0.323514486908061
0.321455197290792
0.328638318693412
0.318612320412611
0.323706106016546
0.316695001150815
0.318908536330223
0.320703940159837
0.31958744789007
0.315858229952672
0.317880374583276
0.320256546942184
0.315018225155101
0.31253201055393
0.309611281705061
0.307524124926885
0.313551107883754
0.310499754303774
0.312271935347972
0.306024451994438
0.304396712381054
0.303288321884094
0.306727952754676
0.302677504531998
0.306536138786122
0.304664127148789
0.304909809679237
0.302040880516134
0.305808190624583
0.305229621549907
0.30302635538638
0.297707952199274
0.301768119127391
0.299893021615104
0.299857062852458
0.299472835002905
0.29986124008893
0.290094968457489
0.296343798120844
0.297657357345
0.296025956235244
0.28999389166732
0.295363317683877
0.291065111387393
0.289728090067654
0.291782173182407
0.290710861005794
0.291546882200739
0.288329271739711
0.286042298358816
0.291860128152082
0.28945138053902
0.284787528226942
0.286924549360466
0.286252572038509
0.288191852118322
0.288780581198342
0.286826010111969
0.290721259769348
0.283874929431898
0.283469831986266
0.278593958095742
0.28547882982712
0.282583250704591
0.280606106826836
0.28163936423
0.284244878000448
0.278485807662042
0.282880748378505
0.281225561728586
0.280713357173452
0.28264316855258
0.281787740013632
0.27819683087799
0.281760517132542
0.275394006570303
0.278251971869694
0.275537271220449
0.278194992713303
0.272644334543874
0.27895826884518
0.27213320852365
0.276920134256166
0.276666681004328
0.276333273740746
0.276306609760312
0.277318720993166
0.266666570010152
0.277150340793894
0.278584812044651
0.272772679832699
0.27478598012167
0.271662758157569
0.26702527399205
0.271654986862667
0.270812306724163
0.267854080588652
0.270145941237483
0.267291688504687
0.267853445344109
0.267309558446314
0.262839600374522
0.267239571892157
0.269491999992865
0.270594256316856
0.263257114469931
0.266863659740601
0.262017783485192
0.264316653640921
0.260321178591986
0.262379268693747
0.262609140297034
0.264276102437142
0.264888072429504
0.258567317951639
0.25674112494811
0.260494966596102
0.259918198598345
0.260335487471731
0.262018764141697
0.261062958153156
0.259809715153206
0.258889772260962
0.255307636242528
0.256665965108869
0.255295096629726
0.254825718343934
0.257169725897108
0.256440779655419
0.253207702118419
0.252639369680578
0.250229724974532
0.251813024023619
0.246974638983637
0.249768471775947
0.249097457306317
0.248311123563679
0.244960646673211
0.250072602070354
0.247901260537521
0.249399181889121
0.247818921064484
0.247830624554703
0.246951084168397
0.249363111176671
0.248197098920827
0.244108404996116
0.249198341068082
0.245595815760303
0.242956587214123
0.241259855643164
0.244371377569475
0.239901433339596
0.242559851987118
0.239909940988925
0.239826579999728
0.235487990488027
0.2406671521791
0.238656936998399
0.236585589244463
0.240718110479976
0.238497452250204
0.238359509181629
0.235538497283502
0.234218133449448
0.23298147128575
0.234031549980252
0.230312444013211
0.232222314641551
0.22655772294996
0.229693733062458
0.227894112962153
0.226454884117578
0.22672090940954
0.22533929350653
0.228775451565914
0.226376330938163
0.228697160950062
0.224936267047725
0.22062316272899
0.226557194115722
0.221285059500951
0.221168901725046
0.216588200655904
0.21689172384696
0.215748539986607
0.214445733313453
0.216246803600358
0.21588613952239
0.215990909542269
0.213908230353065
0.214872241841811
0.21374034445827
0.214162871611802
0.213798221713097
0.215292851653186
0.212164867913587
0.215116718268549
0.211283050872557
0.209904940736209
0.209213908303702
0.209374087353794
0.210209291146149
0.206026605712056
0.205445639516286
0.208650677171539
0.206050252085981
0.204801143411216
0.20452791791555
0.206398079563159
0.204400480792084
0.203925514911928
0.204795110472158
0.205349744873889
0.204304891458181
0.201390338870618
0.203723455160605
0.203610671569512
0.200454034038385
0.203080434927651
0.1979217837785
0.198298043807203
0.199616816356833
0.201712786730092
0.199470390921897
0.198289230289646
0.197833441349038
0.196925789290594
0.196981427009025
0.195742475345819
0.197396589738569
0.199644369119863
0.195364998243331
0.197391427050545
0.194058743414734
0.194445219260546
0.191679500414987
0.193453451405034
0.191385453964684
0.198711532032647
0.193940520464128
0.194324114519053
0.191453113896918
0.189834203539993
0.190468382704084
0.186170501078977
0.19115152165239
0.187699396859223
0.19181120791629
0.19032536512006
0.185531802270714
0.18798636797798
0.188184704783102
0.191185259311322
0.185874877833823
0.187260856950921
0.192148338253109
0.186858627441629
0.18713026947298
0.186765298069295
0.188299401511106
0.185195284086888
0.18659364478577
0.184163171676547
0.184244419608391
0.186128332041522
0.185493744262196
0.18521901809751
0.186464266794918
0.187472411223322
0.182780443334194
0.184591243572237
0.184096074180062
0.181678122192615
0.183830579915773
0.187500757562019
0.181964023366542
0.179298445590054
0.180256813718335
0.177808907450011
0.182200616395958
0.180801674633614
0.178305389451803
0.179973483868029
0.179306578153694
0.179927638581319
0.178727973501466
0.174651323214003
0.180181194374378
0.177091477536284
0.178155508524726
0.179145763077205
0.173339894516084
0.173960679052844
0.173808449891086
0.176722248104933
0.175661579704196
0.172193194955159
0.17272012150433
0.173049101032521
0.170144789926802
0.171298927381955
0.172640169581422
0.170889491471543
0.170075737246234
0.1700733058789
0.170586151700644
0.170932197483833
0.170767861150705
0.172732698766516
0.168108179826656
0.171117034883674
0.169924566756699
0.169899570680256
0.173732909694071
0.170510955096181
0.169157817738069
0.168917660405245
0.16720965657647
0.169771048572237
0.164794602853826
0.16716087155301
0.165756877432263
0.168863722482179
0.165637242559944
0.166744693279103
0.164510048841916
0.170008997219041
0.163964876452108
0.169884339506397
0.166706358072105
0.16767900335886
0.163905386889601
0.165697151355967
0.165633497598388
0.160575135995635
0.162963795516536
0.167807239224546
0.162791356442917
0.164843530108436
0.161663766787353
0.163213092314881
0.161525732064084
0.163853954856651
0.161665022779409
0.162992126992214
0.160271247149192
0.159007590576226
0.158887449168967
0.159566415363302
0.157840794766944
0.157893267558714
0.155330350131979
0.156705786884882
0.157748965523541
0.154583020160573
0.154500138755749
0.15814570920025
0.157691076474646
0.157196935762417
0.150952486938534
0.156168528264037
0.152609292410599
0.155662938155132
0.150287988509454
0.155555587792029
0.152266190261844
0.153313804981194
0.152615229814039
0.149986198774638
0.148446609566613
0.151387919211367
0.150745261638134
0.149968400716194
0.146658204113891
0.149437275114246
0.14704074952699
0.147976632351931
0.150817457863719
0.148475909493476
0.144735566052774
0.145205648505684
0.146195123099295
0.146701461164335
0.145831684448228
0.149663991576435
0.145336976440925
0.147474177376356
0.142232209619898
0.142324916382271
0.144116824881794
0.140609392979306
0.142435456437506
0.143174303246997
0.142251921610395
0.141423251108578
0.136825539690268
0.14136530921782
0.137947370842192
0.139076119240632
0.136907523356105
0.139015401170181
0.135283496414539
0.136962038486403
0.132722835852729
0.136084384444641
0.1341559893748
0.135994489994117
0.131434464041068
0.135164769873877
0.130625718995899
0.133514825881655
0.132121799786993
0.13459182986774
0.130746816406831
0.130968697542763
0.128641611820122
0.130192462014555
0.131153976722093
0.133288115746807
0.12643830717752
0.129006018202281
0.125929616881894
0.130687344526969
0.128885559320768
0.127208084797005
0.124817220239334
0.127621118218871
0.123833975994655
0.128255207650241
0.12124441470956
0.125232054638279
0.124249847356824
0.12792048258785
0.12143701003258
0.124137683755204
0.124096240326821
0.125658340279834
0.123171540134739
0.123529348050049
0.122194499035814
0.123975873722725
0.12021290001673
0.123316898015116
0.122556873683039
0.122667917143663
0.12124642782698
0.123781040484882
0.120132880207052
0.123999514878891
0.118593004503701
0.125146410043384
0.118674442168411
0.123737057092494
0.121480235694892
0.124404220056612
0.121063906058835
0.126509977309279
0.11970295765342
0.124490341318889
0.122165627073267
0.124064839974228
0.120800226922824
0.125751119382201
0.11975976437027
0.122011627073679
0.118529592994851
0.120379290164122
0.109894369795088
0.120092906070828
0.119195636577442
0.126009130705674
0.109024023243933
0.117166803421791
0.117326695964217
0.120939697324681
0.110164913773798
0.121782103417293
0.107841808966251
0.114585123569774
0.112791520276093
0.112318418304421
0.109615254057057
0.117566444351506
0.110187448867251
0.120799353386604
0.106580139919061
0.124196651848604
0.1084104613745
0.124414268435442
0.104041347085252
0.124292194277952
0.0995234089716446
0.122705913602852
0.0976861559976362
0.121021364604645
0.0967292353981097
0.119416114864147
0.100927024124996
0.122549027621388
0.0973134334508819
0.128794340097265
0.0996990821834429
0.126427128782316
0.0972180511382736
0.116881106875887
0.0933421580779111
0.121994092091487
0.102425560105324
0.127140639762939
0.103202795177823
0.118512770360611
0.102516155973305
0.111789520462428
0.112904739859483
0.110449696627677
0.11105419869975
0.0982162157213016
0.128548364434673
0.100384330133248
0.131803113346418
0.0867868503929553
0.14046140761253
0.0822165549952462
0.143754319769836
0.0826400639385731
0.141639473342014
0.0825533851679772
0.136273027902317
0.0927514822018255
0.127576989586846
0.101895056797513
0.118159445477743
0.105863094941252
0.11152087761636
0.109187689780243
0.108511377181582
0.107674255471969
0.106658231951746
0.105277569229321
0.112815293507389
0.104555811893065
0.116592874061596
0.102134512299005
0.111577335794397
0.102103782626562
0.112120240458033
0.103138668840483
0.109027908041157
0.104297349286468
0.107762421268954
0.104307033729218
0.107737816346855
0.102487491457223
0.109131449118463
0.102535596680902
0.106600799365076
0.103676289405363
0.107906820666026
0.102269571846853
0.108863650727663
0.101290760788152
0.108539077246115
0.104661159190673
0.105684517640167
0.101238794878432
0.107131219083753
0.105575024820196
0.107672897420419
0.100624482537807
0.108183055057585
0.10497711909245
0.108129108505484
0.105184524007624
0.109349988797861
0.1058959547359
0.110363012249988
0.103149776603996
0.108224104528221
0.105007664427755
0.107308966773004
0.105600156147458
0.108703930444336
0.104276292973439
0.10627312428506
0.105385250822879
0.109384895758054
0.106629235416587
0.108418001585134
0.104390417304668
0.106539785385765
0.106457725422619
0.10832147203046
0.104336220081919
0.109460028305691
0.1040784710819
0.105544795284987
0.106078703819406
0.107810833060573
0.106575966861566
0.106747982943256
0.107532219831254
0.106410971152578
0.106014266569473
0.107249967025408
0.106283171946657
0.107925822352795
0.105175814092986
0.108098531722062
0.106105777257272
0.108429390178727
0.107951304945797
0.107671626692846
0.106852761004461
0.105515528192422
0.10602553034011
0.107891170280812
0.106371271480003
0.108511253430727
0.107733096755673
0.107131630973131
0.106907921553374
0.108743688156487
0.10475273859843
0.10775710576901
0.108137038628672
0.110192098819048
0.10919850654398
0.108014453949879
0.10805967613651
0.108894516230897
0.108456856173375
0.110793779433926
0.109502094333785
0.109266651969551
0.108632574894315
0.109130105849973
0.10895741226189
0.110196903613106
0.108733659664013
0.110156230250704
0.110544636104326
0.109426062073752
0.109717727256526
0.112901460570598
0.113404316202664
0.113172128647816
0.114271095012671
0.113495727935229
0.112291298049636
0.11192932919714
0.109583306131994
0.110771481684419
0.110660880208569
0.110517435567408
0.113081999419156
0.112642854230847
0.110310193005317
0.112629894613964
0.111926499121825
0.113963841623646
0.1133808280758
0.115539911374536
0.109467572809416
0.112115581504246
0.110919319745581
0.112714639054425
0.114619374127341
0.11504937717097
0.114986480115199
0.11488558336081
0.114078631185768
0.11325027876633
0.113432471317222
0.113526755443981
0.112848561625294
0.115964067912433
0.114745150479294
0.114989189776412
0.116419237662419
0.117895109696725
0.116165493217564
0.115319538592063
0.115692496788356
0.117097959147937
0.116382887355837
0.116952336149355
0.118417674109161
0.11580889985145
0.116532275292776
0.118343752043011
0.1188650479946
0.118554596259765
0.118248249963166
0.119604401753522
0.116023064230848
0.117154092466293
0.118431266182092
0.118566994829152
0.116390457648697
0.119198231388436
0.117713038914995
0.118496166855836
0.117583961707673
0.118502785363806
0.11917801413393
0.118831285504825
0.119628560095724
0.118712184944748
0.11854655725915
0.118417048778534
0.116629696726364
0.117805804376672
0.11995334520951
0.117431728561752
0.115539371335419
0.113670324898094
0.118106399140041
0.115479965810976
0.117210736070767
0.116135039650594
0.115819114029872
0.117241225690536
0.115684462249766
0.114508207765721
0.114747513759571
0.114137680108567
0.119348162607515
0.115918617838952
0.117105234738002
0.116068402038957
0.117133208664216
0.114745960272203
0.114177201890547
0.112714830577111
0.115120249538166
0.114220444181611
0.114319671162452
0.116631399694733
0.11480682413359
0.116210229145764
0.116086704471732
0.111075851255871
0.112432435753597
0.114085458158992
0.113691796638783
0.113479597090071
0.11502363337022
0.113298636310966
0.111455877681454
0.113508649704207
0.114626864664585
0.113714040964942
0.115184584186166
0.111640628761032
0.112938789460854
0.112272183256779
0.11412996756899
0.113953254188235
0.111702516799045
0.1098883533662
0.110945815723965
0.113705759904775
0.113675489599016
0.111984039436519
0.112489433623512
0.113197476908353
0.113900417221986
0.113581299543534
0.111329126617521
0.112388740472121
0.113754744456423
0.110876756422054
0.112702340584498
0.110837807540446
0.110587409064063
0.111094800961578
0.110306563100106
0.110574031344446
0.11060617807612
0.109308128880446
0.109954697295555
0.111574323816114
0.109950953366796
0.108786426293272
0.109556188943182
0.111706670186601
0.1119962380919
0.109937677101277
0.111199159059773
0.11069520795232
0.109907483863949
0.109110729205291
0.110590932567157
0.112383205217391
0.112166941944302
0.109250585871488
0.111239360530907
0.108569465387903
0.110284252152252
0.107315161569894
0.107168524006648
0.107984068329472
0.108862480747994
0.108097584840585
0.109938741556989
0.106135499759776
0.110517334456588
0.109059107559473
0.107408041963302
0.107739304770525
0.108376203764071
0.108275340386222
0.109704321394845
0.106998218582492
0.107206151507406
0.107139465244152
0.107572481093425
0.105642169922575
0.106201033600872
0.107968575345384
0.105866683296174
0.106375985162064
0.106389680620711
0.105394957993152
0.104925078450239
0.102938155963516
0.104930938597589
0.102566009205349
0.10342062199651
0.103026435158822
0.102798917504048
0.100197442190141
0.101217479209509
0.100265843773756
0.101094651124596
0.101086389709225
0.101506789691286
0.0998262559933069
0.100282010252213
0.0999547621185442
0.100010842095731
0.0979236844299676
0.0963609501822179
0.0987503065237448
0.102071676892567
0.102462619232367
0.102151410654049
0.0952543631174069
0.0964538861010823
0.0937733269430287
0.0977817966010722
0.0935245184300765
0.0957159122244437
0.092527559712248
0.0918333496501327
0.0921131708115713
0.0950168680207353
0.0931278012222371
0.0952856254611536
0.0922412298584761
0.0926523096795325
0.0901959711012761
0.0937161623879058
0.0890318448695538
0.0914136586915995
0.0890195042842285
0.0899050346433829
0.0872772617157184
0.0911505567293655
0.0859367453652764
0.0931896001068708
0.0932020736630633
0.10252147769519
0.0918657285230818
0.0899755315785402
0.0898940251668277
0.0931705903577309
0.0887411156478839
0.0889478982896952
0.0880861441137356
0.088813434125704
0.0894698491587164
0.0887101950235978
0.0876347471241093
0.087409699097874
0.0877398141825358
0.0895220382078999
0.0865576903527498
0.0864015904446071
0.085555020324873
0.0879199919186364
0.0851836754951275
0.0861934506545343
0.0863891313058604
0.0863894917681554
0.0847278785236606
0.087792946679139
0.0886313219140222
0.0932949434388165
0.0926346115889064
0.0878979057218907
0.0865961765086872
0.0836779641750651
0.084249856637439
0.084582564859321
0.0853556484909958
0.0851847350528185
0.0835642279730062
0.0840569683294269
0.0846211252307726
0.0851909566470913
0.0864113548914855
0.0838751306726483
0.0835701361009674
0.0841437654606548
0.0811197307160568
0.0838706989807642
0.0819798259496328
0.0806875982143281
0.083849956004877
0.0837197132870403
0.0894235919874922
0.0832479122539094
0.0855891305808239
0.090397591769331
0.102349735247594
0.0889262462256283
0.0807907280605265
0.0847167661510118
0.0779177813742001
0.0834179951140694
0.0803448913250391
0.0816185060741837
0.0801031662333161
0.0835269292819117
0.0830155015778797
0.083308353179765
0.0812264539723654
0.0820834658124605
0.0786439294774947
0.0819318857317996
0.078379565471066
0.0816667415179835
0.076972719434455
0.0803769932704488
0.0866897103371356
0.0984545323995648
0.0889301079537437
0.0813570240989583
0.0798396461328439
0.08599767506633
0.0933118165395557
0.095902488546659
0.0732878985809791
0.0831352939438325
0.0749147592846487
0.0839510122625658
0.075649365863929
0.0798766425153326
0.0793944116608072
0.0892361072243937
0.0795146099515068
0.0839813615867633
0.0789249030481192
0.0776357295618998
0.0764980850921484
0.0806142305313785
0.0750248892333251
0.0761265722963843
0.0741889867052947
0.076981608059107
0.0761863948466259
0.0772756568353005
0.0729853661282027
0.0785019294128225
0.0786404638690289
0.0878920258170523
0.0750844806727594
0.081242341664339
0.0768959590856628
0.0774013743459922
0.0819941035064562
0.0948464446446642
0.0793509620178897
0.0751774438363407
0.0764690222157052
0.076525002992799
0.0785483804376005
0.0764010262105471
0.0758225844693059
0.0741979146280949
0.0741291782366501
0.0765114216277213
0.0761364865775455
0.0744922141425254
0.0753349889870855
0.0742217087279639
0.0735746092453761
0.0746712581649065
0.0744392907880242
0.076183871182566
0.0732079177585306
0.0823950746023842
0.0882549904073365
0.10750954071959
0.0891800661964787
0.0931522065291874
0.0803241637639302
0.07853993666555
0.0755486685797514
0.0763457888001708
0.0733951228524132
0.0787515541836241
0.0735929551002134
0.0784976583665451
0.0764649526654621
0.0744864055981542
0.0720594256387533
0.0756491919501932
0.0730522257099925
0.0734043514251668
0.0719846864620451
0.0756981964712367
0.0716011984505104
0.0713057715426082
0.0745435982070477
0.0823203553697986
0.0872953755244712
0.0737599138597776
0.0840644415147968
0.0932570432500976
0.106101195965548
0.0766449748882288
0.0811741342915509
0.0758391320979511
0.0734715812084462
0.0752878384072236
0.0757705809000765
0.0801833577805211
0.0744972150590607
0.0724081608489599
0.0749737986503618
0.0751471588615733
0.0724704837118094
0.0770167953185811
0.0897187796460129
0.107939776373952
0.0900774128339362
0.0748472207757564
0.0779643313226078
0.0858930486367876
0.0986676369945454
0.0822879576980771
0.0737238590091209
0.0826073877867579
0.0714109634352395
0.0763901443810514
0.07081166475591
0.0771572420549719
0.0767152115592598
0.0785675875888305
0.0716823764392723
0.0750675768586811
0.071822708930613
0.0782612407662689
0.0825824376719091
0.089150483570836
0.0846779898382413
0.0799075482453415
0.0775450866118202
0.082635245887765
0.075384647885082
0.0816550330077002
0.0728228197424654
0.0790297260849085
0.0889997606887105
0.096220293459136
0.086558438503719
0.0956933169292044
0.0870642496830741
0.0798586090587454
0.0787191090486793
0.095311992236531
0.0783845725977114
0.0861540275473454
0.0857461238931582
0.112005994992639
0.104425913697395
0.0988152977948829
0.0867275940841312
0.0796614351315856
0.0824427760757539
0.0753634602361286
0.0909614052280891
0.0901911536461532
0.0910842488724121
0.0750216008247378
0.0857971894627564
0.0895439690970579
0.100285603507451
0.0860056948852837
0.0886787381392243
0.0782839951307411
0.0869743236563187
0.0919712323118533
0.089505021867986
0.089763756506703
0.11243305632918
0.131437814129029
0.104529693292751
0.0938598217285463
0.0913447890367624
0.116243544524749
0.0983863659652868
0.0852368082955012
0.09005442157086
0.0823972095531194
0.0882593234244577
0.0977892650839826
0.112936908073177
0.0993260429411249
0.0866407806472274
0.0935138836098571
0.0948341098026993
0.108376373948771
0.102950807492588
0.0851401395606414
0.0910586478191531
0.0882200930297133
0.106992882022621
0.125737137289816
0.125980234040008
0.112405424586205
0.128366827812283
0.118796950382841
0.109762507767449
0.108316342913094
0.103137490372145
0.11970786333918
0.119785492914968
0.102059371108363
0.0989065764436475
0.121028108349158
0.122033754285471
0.109602111542099
0.101185664400533
0.107429130899283
0.105938940872798
0.159652723794578
0.170141941576367
0.137509003924629
0.111154648754701
0.122653921662315
0.128832693500044
0.1176814260708
0.103161488501081
0.109248281333403
0.106447426699055
0.107384235469043
0.112692545967873
0.120114407691884
0.117593528747232
0.112272846572131
0.112798847766206
0.119131501720467
0.143584975543923
0.182364141794828
0.151660206444638
0.146256114756017
0.152350525190242
0.158563148398037
0.13199130360424
0.129400588234391
0.124280075217192
0.141767565206164
0.132172639498654
0.127885207446854
0.135910015461888
0.157663110490489
0.156985108538869
0.160005148259056
0.156584051752929
0.150472278083499
0.147725394395158
0.183045296227782
0.230503737548611
0.200773628056475
0.155969384818197
0.188926579249002
0.176661010017627
0.241083981263168
0.182777871470428
0.172516666532692
0.17190150159642
0.175711101458935
0.180680286147161
0.19429302442194
0.199692774553658
0.211046820502278
0.192947845653919
0.21335681160657
0.220222733111214
0.305399500438747
0.269201211450753
0.241876740387322
0.222945097025247
0.25183617447409
0.242666114726086
0.237246800281692
0.22862943956852
0.245620553985965
0.257004937794986
0.296182906206157
0.264909067468691
0.257266175111988
0.283284198511322
0.288865973054537
0.283261612516972
0.313936558092122
0.325669281477839
0.291033198662758
0.288281412581566
0.290715766475272
0.300798739662833
0.312230618461726
0.3299354169728
0.338843653267968
0.319131860902403
0.327211845971388
0.323602432091178
0.330003613758641
0.331215132495852
0.339901981322631
0.342022671207782
0.395719282211748
0.413710816253852
0.498810388011948
0.386346153802429
0.354975870338679
0.35314623378203
0.372555467233789
0.392691208538272
0.405920108130034
0.392501810708068
0.395429381488155
0.355380663690613
0.364167022217023
0.364064741424258
0.364985962452872
0.359944226010152
0.365622249533001
0.358335432266702
0.386588104388755
0.379482524285595
0.412001463789692
0.429930598990942
0.382545321939629
0.358402007184705
0.366794110510733
0.349965417333915
0.35340594632541
0.344270263503555
0.352690594482438
0.362420353003893
0.344316728624654
0.330187674189727
0.34103173638543
0.357401913701363
0.368912148843603
0.330703445001913
0.334403674526222
0.314368174416291
0.31639648145661
0.311943777078103
0.334507274464591
0.353851911802402
0.320056240987111
0.298389503758606
0.299192308680635
0.288348037828259
0.292056644001532
0.284946706318041
0.292099065721446
0.282815449625427
0.287499716635159
0.278819353929955
0.279844359316549
0.267880555480528
0.276784577686795
0.272737761043309
0.271032130915839
0.26486295768264
0.266508499323304
0.259999896688765
0.265899014827313
0.256775767771362
0.263568588030559
0.259032046898734
0.265662215882774
0.259234946240871
0.255506947916014
0.251115686148616
0.257702066851808
0.252570886796164
0.253864161438225
0.245405165994359
0.252957157645462
0.249348462781649
0.251216535825336
0.244626782237097
0.249698218273897
0.241547746178487
0.247897321706954
0.245499839878525
0.244841547208534
0.239070975113721
0.250523038222198
0.251735877774884
0.298927003822311
0.264565329403515
0.243402786235805
0.242197865309815
0.238967495075112
0.232793310746753
0.24158141482723
0.270646618094438
0.265055685419599
0.240301765077024
0.235318187252508
0.227141411458298
0.253372332747582
0.236279928860629
0.229882495237791
0.227445145317034
0.239716065130996
0.258503583635348
0.314875739369238
0.322458193735557
0.328884014781287
0.245910021767135
0.227450191737971
0.248736551234116
0.257822674853115
0.220586935349775
0.222965811552022
0.221571433295261
0.273143853433223
0.233767535410313
0.219602912691289
0.207876182087058
0.216955733508436
0.249323910452585
0.253245342891252
0.239010995628489
0.254326711947877
0.263207646438368
0.264293420910794
0.290996891876396
0.297865583873547
0.246386025382079
0.210345650567334
0.209786239552528
0.213167136960816
0.224205074028712
0.274180095576783
0.225376592952602
0.226177898338009
0.201194003754281
0.203564329943349
0.204015725063026
0.231098518154503
0.215462969106726
0.226569176950785
0.242463352112969
0.208810029537096
0.220562613581736
0.236775424144385
0.253607507626986
0.270406276060482
0.208245431484168
0.205520323319118
0.244834290466876
0.252499339306807
0.220822529288763
0.224097515345645
0.190531435344817
0.213361671011427
0.211634648848457
0.202019742785785
0.220217347321739
0.227957452956778
0.241004733467382
0.279803994186032
0.29415526668475
0.258170868095821
0.206856364269383
0.191705302237306
0.193958189626899
0.203189390813259
0.192608716928213
0.197517732564128
0.234446639068891
0.210644662365386
0.211338825998053
0.253615776866814
0.211399113064842
0.20056522033045
0.200898068934714
0.205131513999847
0.211116656849734
0.245371796090274
0.266855188753066
0.236761900558979
0.242765891562425
0.249839290330874
0.225465947238881
0.224585306152119
0.221067564968686
0.231755097259829
0.236240757639051
0.25796832395865
0.248290991259074
0.25326623694952
0.252885282163675
0.258672772397662
0.294078146901286
0.298431276633342
0.27762586038926
0.326018940070511
0.312192336587176
0.379560799003387
0.314279155017064
0.312176559024602
0.308969249424888
0.32030169770596
0.320657783430484
0.332699250996736
0.354699648034029
0.379710805793641
0.347623283647852
0.359919225068688
0.359789222500222
0.370760910755726
0.371928452408245
0.421090473264916
0.40857043161295
0.476388379780339
0.436529404883876
0.425941998666967
0.402348484882052
0.386635087369143
0.403240415281194
0.398933971528405
0.393507200989394
0.393864083254239
0.399281576463743
0.429881808417955
0.400136112029535
0.41211707253965
0.393431398031985
0.403430963556132
0.401716755731895
0.412373503215652
0.407940634600904
0.413707106364419
0.401607545436405
0.417453389524089
0.422033572959462
0.509588455382504
0.44450024222284
0.425863102037787
0.435355884845109
0.445815652087961
0.430713702560758
0.444499327045933
0.458945111784662
0.45173908363038
0.440591163766436
0.454272553822355
0.44789100159117
0.450340379142573
0.46085999380291
0.495416066545145
0.455322574823754
0.477729825387338
0.452308628432646
0.508792268766766
0.51529067297354
0.499960021936094
0.496123000846408
0.488424909507634
0.475420743034632
0.473376348814701
0.476805313597569
0.476838428509358
0.476225909673105
0.488332517163867
0.482355879168855
0.478427120758152
0.474560990504604
0.475726422681989
0.476723615502426
0.508565136705903
0.468492820984164
0.475994437664532
0.466223977295425
0.470905475625313
0.466917942287434
0.500720410206899
0.486064611022558
0.475186621476936
0.476322605774439
0.486845998173581
0.486920335257107
0.480524412369964
0.449443922774277
0.465613017976396
0.45357997471616
0.467889309464144
0.454728204620878
0.476679797372348
0.500818564415145
0.477267212051372
0.467850503266176
0.472159693728997
0.469400632002469
0.47969439238588
0.4786170972474
0.487114690542008
0.486297642075594
0.493951310613341
0.493170307628267
0.496632771285356
0.503970330503381
0.521161658153588
0.524858372454067
0.531468382506194
0.508470341648649
0.510827241088477
0.515821146464653
0.521871157220796
0.528240091971371
0.525265447603563
0.51246814730094
0.517331061150751
0.516655147866517
0.522446297717581
0.550304872128428
0.527712023413353
0.528919906213708
0.512102424122718
0.507506688326504
0.512161368337202
0.503821655657118
0.508117677898004
0.499904269732333
0.508211147764047
0.500325458942145
0.496761292289682
0.498003073212793
0.496526886045815
0.498787598588267
0.496845113230095
0.487968836820795
0.490176056697899
0.489716709474958
0.486898506403219
0.486247754997294
0.490268743594377
0.489781623826588
0.482554319319754
0.506822401700676
0.511632842016347
0.511637437460467
0.495566623842858
0.489219534787762
0.495214614321824
0.484249506148862
0.490640218499965
0.480418708449231
0.486146222606644
0.476943583562639
0.483787654539496
0.475305588201324
0.478069445834383
0.470303438494834
0.472297560287356
0.465449361785475
0.467525177088583
0.458562736572798
0.461101106555621
0.455651124877782
0.462337294927295
0.449374257895067
0.463880917504038
0.457938662287707
0.452832694686103
0.444577515797663
0.437403912677129
0.442130874995643
0.435945167210842
0.440737241625164
0.438825129257156
0.435330903320042
0.433955677917383
0.433715965133577
0.429651062749803
0.423810980363648
0.428212206025556
0.426633302877004
0.427029506932545
0.420870850060712
0.426878031126474
0.423445396209209
0.420174302899178
0.416324085181328
0.418826819177483
0.414225249667597
0.411572429746655
0.405690961194401
0.403869194823193
0.396351097593872
0.401394023751819
0.390758068493236
0.393046787123933
0.386235721228234
0.385139665129682
0.387269351350119
0.384512181365214
0.381466549057553
0.377960410398865
0.374611059841169
0.37260055942118
0.372110931565142
0.372440690040352
0.370401068202137
0.374080789220836
0.369403837764808
0.372332486057077
0.37160813455498
0.372699041655636
0.36657268471248
0.369561788991395
0.369254406361139
0.370158665038747
0.377635149443809
0.373530035292481
0.372918177426406
0.377390391590928
0.378443710866977
0.37819586511822
0.377378284803508
0.377843410723122
0.377708885506873
0.376700511069026
0.377248871256232
0.379698547179501
0.384049979537953
0.383730574825965
0.382776095507086
0.38464894207925
0.382519383011908
0.383410025504346
0.381118720058523
0.384552070666059
0.380390920761757
0.382568500472846
0.379282353570065
0.381886704635092
0.37730155340264
0.380896164639495
0.381054339655107
0.376900923603722
0.374416349999276
0.37578160915161
0.378316874539361
0.377273897815889
0.377015950829212
0.374738735933764
0.373184600423781
0.373856790087047
0.37235583653442
0.369723881343364
0.368359561815621
0.370119505601771
0.366845751424745
0.366195172434228
0.365681127109528
0.361184680903856
0.355165803462665
0.35880591363823
0.355272911056184
0.351631768457634
0.347800715375304
0.34483612546542
0.341813595817789
0.340421627032509
0.334817011869961
0.333783827998148
0.328180450827504
0.328734781777096
0.324966936564725
0.322276724942806
0.31823724235948
0.320227989222801
0.317284880817535
0.316957145058687
0.31399792757484
0.314102637605312
0.314328047189999
0.311622015009129
0.313376630683475
0.313406114024405
0.310747073697537
0.31368468405253
0.312204454974996
0.313072074232675
0.313610204215041
0.314028658544134
0.313566014151957
0.31210229422285
0.309480902200963
0.30914896292015
0.304949652605158
0.302473332558465
0.300750373218903
0.296731548851366
0.289068687478743
0.287556407847795
0.282282720909035
0.277975941890474
0.27357845597026
0.270410679976848
0.262679707111772
0.260464164338216
0.254087485636058
0.254677541606796
0.25108125022635
0.250516929881645
0.249488079632405
0.250925067363064
0.25028602469944
0.253421511456684
0.256137050824069
0.261312723259723
0.264399805408772
0.270051029021217
0.278537762734907
0.284997643672251
0.29414388625154
0.305769674999072
0.314612597637595
0.327268781569501
0.343624840055124
0.354768618680409
0.372102807107902
0.392952580021022
0.408238484232439
0.432749004082529
0.452419390602731
0.476376266158509
0.501729225392443
0.531119072616694
0.551858634888505
0.582703144549602
0.606915501182161
0.634958444194419
0.657501313893177
0.685954776032553
0.70492898819277
0.726823652223782
0.742925837814904
0.770278879712252
0.782805085529107
0.801928726836
0.810986999331793
0.826501201555348
0.82220780906448
0.823027355900008
0.81998635380822
0.816459336961431
0.823406137976461
0.817870998957471
0.804425909275882
0.794775479599905
0.780870014164974
0.770300367785819
0.762320613163322
0.748940464540448
0.734253381282181
0.731144997288932
0.720213718412228
0.717076722427446
0.709259904377027
0.704762772700512
0.71177724356699
0.710467251759747
0.70156066448236
0.709172684290261
0.709164253843173
0.710510402366926
0.716994113661405
0.725413991072145
0.731546138240023
0.742498155961997
0.742524732495796
0.752591890479456
0.755310212002431
0.767381700710045
0.764067319681865
0.776321060214621
0.779606339500334
0.783549052085262
0.788070644923679
0.802403366017003
0.805669862692783
0.805418275057626
0.804505903986269
0.814996238609656
0.820780714786211
0.828747026712166
0.828713248394886
0.825531124010543
0.826709766140792
0.835940649899462
0.84732644739926
0.84511283210143
0.845477977940143
0.852692839381966
0.84774751516687
0.859631000698641
0.854866321987749
0.852339909333129
0.852389446641565
0.858933539566408
0.862478007731723
0.86353057546212
0.868639249194204
0.884313959195771
0.889311698933174
0.897536469963124
0.910830125516184
0.933593774199148
0.951140786479406
0.967971305006722
1.00049123346411
1.03147207584856
1.05597121322381
1.07183599003658
1.11182917502647
1.14794005195119
1.17221724965018
1.18947735479621
1.2165672753719
1.24715075993786
1.2177722437258
1.23861784131915
1.22528405130113
1.23791455931797
1.23752681549543
1.21635215499996
1.2059022535189
1.1878313959757
1.16518300180938
1.16223322961552
1.15032514061041
1.14170160185947
1.15394205808309
1.15070097779936
1.14896031301218
1.1522748317364
1.17055560225875
1.16038074157842
1.19167545046938
1.20316042048476
1.22911398355668
1.22323883721184
1.23592193009456
1.25709972027886
1.29093847483021
1.28408848628012
1.34723893878176
1.33477340960656
1.3825885045481
1.37086381528333
1.34306850105087
1.37753497338731
1.40541554829816
1.42174351572288
1.43354758264921
1.48598159477467
1.52829569632806
1.49771987737052
1.58523843034368
1.51265049031225
1.56772788670965
1.63996709067127
1.7041392581264
1.62736134374702
1.63910757386348
1.59746561668681
1.73085968790297
1.78469545135272
1.85110702636707
1.72887119817993
1.87085020627638
1.80800596367914
1.94160550508019
1.8821497581995
1.93603992798752
1.8045943774401
2.00731091423322
1.8046035826776
1.98685918450957
1.92441108152583
2.08701781769386
1.86603525354948
2.15046520337925
1.87643808964357
1.97696215443134
1.97191067489376
2.21927774656802
2.15541732986202
2.09678676212551
1.83276159059724
1.92227641168965
1.89791990073842
2.02991799186155
1.84256865014181
1.93171085810042
1.95084367852121
1.96572141285602
1.83909991322715
1.84475272113609
1.86188840875005
1.97130335602249
1.74132306182371
1.8378967928715
1.76214142482147
1.86437412201795
1.79302852166012
1.79132396850922
1.76111379002463
1.79737684246332
1.70293143036083
1.75350262969199
1.74003699822986
1.72033777292814
1.61544683213133
1.6019017670116
1.57989944120033
1.53553378207757
1.4686120931151
1.47624228007275
1.44103631648291
1.38937159524138
1.32386718495192
1.30714063280051
1.25949060098477
1.23830915664947
1.16384287530562
1.16091862643276
1.07537499545889
1.06049100827751
1.01931119424125
0.976461795655075
0.952763251480897
0.90778888699515
0.869603512833557
0.848077900347159
0.8035555869858
0.787045069777478
0.744555177711645
0.718885903475478
0.685124624899407
0.660108187385412
0.637091441138178
0.618130479980018
0.588260776201246
0.576543555329998
0.559837265514182
0.549385155199228
0.541789251857784
0.530794391919128
0.519109782127578
0.513637712373999
0.498932297898674
0.504465866666763
0.500873471731432
0.498496774196007
0.493178786952507
0.497934880970419
0.498369999266327
0.500617370008415
0.499895898971839
0.510948006348619
0.51621970659973
0.531093716285162
0.533712060216941
0.544050024758834
0.548714454196082
0.560170242356578
0.564847617309549
0.582616034529782
0.583562589377187
0.59191620521381
0.591047760076971
0.588285257153494
0.582376889561968
0.591177578354122
0.58837760615072
0.596538933948717
0.604692754071653
0.603310810262938
0.593980028491008
0.600776732150224
0.594473206787427
0.594720447724883
0.58418617458098
0.587950197187258
0.58754418905052
0.581196929108291
0.583769641325356
0.578972904058085
0.57337868490349
0.579119800266749
0.570217422446921
0.555069796341311
0.542242435019661
0.549909828739681
0.5431122209598
0.54277126491826
0.530136465849369
0.526195946926571
0.524905497613599
0.524116889629321
0.51315363152461
0.521453286658988
0.521838268507174
0.514242461344841
0.515520358910246
0.52017776685566
0.517971693091198
0.522826830507588
0.523269226304327
0.531098608828087
0.526784997840412
0.542358695530369
0.541566582801007
0.545376548965709
0.538040043552135
0.534025238477075
0.529910120964565
0.528138561289076
0.517480983300106
0.511496670153851
0.509103679139362
0.510292875721208
0.500899901006094
0.498762241070487
0.481802407515316
0.483390012812264
0.477802984560059
0.492439702204319
0.475543724246883
0.480149772329108
0.481498841665448
0.4857937997418
0.480774022931482
0.485521164830117
0.480085748751457
0.483830945119994
0.489230439529569
0.503362975429878
0.494097994145693
0.506902977544511
0.497250487254953
0.500936200003784
0.497793084153614
0.514418593915274
0.521973256185304
0.513279409361064
0.517125424238485
0.520053173925011
0.521104691643521
0.530839200706034
0.525410829202638
0.538614612308723
0.544384647930182
0.547435140836635
0.527606673422422
0.552216641669265
0.53134207634572
0.552286109973334
0.559088212416928
0.550297187162413
0.542201702191697
0.551818489135086
0.543659605372908
0.553660993606962
0.548365595022524
0.549498478941591
0.536038692375549
0.557574394788015
0.550074232783051
0.56447033035046
0.539525501751404
0.528763728137945
0.532127833909925
0.536124369787592
0.52225350274391
0.532405506654096
0.533965661130737
0.523264785119555
0.510529182996392
0.516903951820049
0.493636389059426
0.491023444853234
0.492714886818959
0.505958400700682
0.498995661875282
0.478800220890314
0.474322625702964
0.494526164775535
0.476092605085602
0.476982053715329
0.474671874201688
0.479385180158696
0.478526732949633
0.476347891005025
0.465699233815984
0.483044444308496
0.47879287039388
0.491925683608327
0.482746720052359
0.474442028613442
0.492358696720951
0.50585172395695
0.475407350508936
0.499049346338881
0.507609499035143
0.517299208705323
0.487930379708848
0.505815725998965
0.491882522150995
0.507599554455365
0.510334249569071
0.528854173747491
0.511067733849026
0.506891874266926
0.517095272231382
0.522232244637628
0.5318365676072
0.559497423147915
0.571017662222764
0.553616508702848
0.559201511703253
0.59778613711256
0.569269456819552
0.60662168135504
0.583200515945535
0.621267167910195
0.626183041948077
0.603385652952207
0.604495340006422
0.647749398754097
0.630038306238082
0.659499711691633
0.657562795717235
0.648041831943665
0.649307640495644
0.689691494977624
0.644344930000847
0.641796022268498
0.646799145206759
0.687391319871699
0.669234888235484
0.66964545074926
0.680529604880989
0.70146779541153
0.688201230330719
0.682928925221825
0.704649942748795
0.73174556711966
0.707341609522388
0.738592457649906
0.726497711303072
0.741411390408699
0.728009009196057
0.767249005080572
0.752530876625575
0.737353041865315
0.740429835690869
0.772077235230452
0.737653513421739
0.774850231723699
0.718990531635091
0.713296133124511
0.723904043206795
0.743922697584573
0.722767931060411
0.720296041122656
0.754389512900374
0.727071377867343
0.655002721907849
0.730308126042802
0.68891656651296
0.678491349903222
0.70315674613974
0.728592477016517
0.673596407911662
0.683744168866279
0.69594484795898
0.733719244903249
0.717824193673273
0.675075803356923
0.657826782379622
0.688997512654433
0.670436999048316
0.698429223832757
0.678693714944939
0.699644031763176
0.736392211516638
0.704962281273531
0.699696576324236
0.683724965530828
0.720545121392956
0.732808198320238
0.654288409503282
0.751940495212888
0.718470932316462
0.763812011350178
0.776533449300026
0.716678900952431
0.703153219488558
0.742117700188334
0.72683013179205
0.93796821458076
0.793216228140309
0.778176325955928
0.848998820533996
0.83661865599598
0.799358993789441
0.839297526338278
0.753349568096178
0.84115045735797
0.804451804985535
0.861498126780223
0.870743431084567
0.914443099883367
0.916621964124411
0.959060374635754
0.937754047147049
0.857729939035857
0.846744145978946
0.8422946616614
0.846460893272959
1.32510853722147
0.974436070086871
0.900546044499582
0.88867931111322
0.947884168704796
0.901020725779585
0.78603116999667
0.86336746681594
0.880455733545053
0.851338275279981
0.897966263461016
0.96294472757229
0.886248275445874
0.820151384307408
0.716245241818589
0.735070827483052
0.948833324846515
0.874107160576354
1.03415437010892
0.808436331500573
1.11974229717247
0.931055279138155
0.778609008320896
0.773223669002992
0.918874568593848
0.864600207772486
1.08557881699561
1.0018781559121
0.803506516044969
0.633232816460311
0.793899115545993
0.924978937591217
0.639707761807328
0.594493776623985
1.17721377796087
1.24350077102364
1.04893588665846
1.06552743645459
1.29209430687118
0.762753895373204
0.886513121397357
1.19731186409267
1.23337305237038
0.618949866448249
0.826787936667717
2.77340002845415
1.15316377580293
1.07202565657627
0.925006484077059
0.628114618659843
1.81763017478524
1.24834328995235
1.3321766108999
0.878378819249973
0.637757809094873
0.794483980109275
