3596
4000.36533379555
650.420452594757
1
2
2
0.0566068200489208
0.069833816245052
0.0714147383729939
0.0715701333450682
0.0616369251953583
0.071605591487995
0.0584577092975138
0.0701487275651962
0.0579955134119705
0.0795750463745305
0.0686810610061545
0.0677780947242601
0.059996396089878
0.0714628187523298
0.0568460040771306
0.0735227795654275
0.0614783762552826
0.0692414027180356
0.0624866074628279
0.0661164950149271
0.0583197145664907
0.0687900525740348
0.0580727427535942
0.0663292681190704
0.0633601515439219
0.0769225085446733
0.0649602235864598
0.0707912292392684
0.0645720741266174
0.0773290663020532
0.0593954561837546
0.0702313502431378
0.0629260900519207
0.0721203837141309
0.0608926395697665
0.0726400027551216
0.0597387733887234
0.0728517331622864
0.0585272071557265
0.075835247702739
0.0726068591175923
0.066997289210483
0.0632466374758971
0.0750976144374949
0.0666826375102661
0.0732224850591217
0.0608520197084121
0.0641893919426322
0.0657447728272925
0.0731165573528313
0.0648538547901372
0.0713144214005488
0.06642543403555
0.0788168467242985
0.0626930353988553
0.0959227613685216
0.0671755635909291
0.0714172687247056
0.0623011785533731
0.0719218275249284
0.0782093571647458
0.0903297808260284
0.0559417553127789
0.0725735060621374
0.0586458030846702
0.0749337039729147
0.0591872970207955
0.0711834542495632
0.0536428335974362
0.075756836531986
0.0635330306601619
0.0892209592425758
0.0743061302909716
0.0672815913908148
0.0690212447246951
0.0742538962406607
0.0584950677801781
0.0729297925490396
0.0571744426344315
0.080505509780438
0.0723106434606807
0.0849754908699889
0.0660948353172755
0.0672641071135015
0.0590653927281463
0.0872222349769132
0.0604461688134457
0.0774782254975079
0.0884241902939664
0.0764201178683627
0.0582352628321471
0.0712877044740376
0.0593490445265442
0.0661843199364312
0.0588478643685358
0.0697258774038024
0.0537431085667297
0.0726397980188147
0.0552663096198301
0.0626521374444868
0.0737181983980721
0.0799595677022205
0.117294539720015
0.0663288582055933
0.113423896243728
0.089626581112812
0.0598622699078594
0.124875045288876
0.0678748302363679
0.078587484946772
0.0573814042530575
0.0761904035215635
0.0597817140634056
0.0829341927196232
0.043277270203328
0.0808082029592638
0.0989019996326351
0.0807550730059378
0.0601092624577363
0.0681710911224588
0.0435657009850596
0.091117594879273
0.101644276161067
0.0652880673025608
0.0861785296545697
0.070768762552479
0.0559300956059907
0.112866710979171
0.0899704650937295
0.0618203745831972
0.0615514606377377
0.0648345581619853
0.0610116432952113
0.0577084888059326
0.111507095118643
0.0787331150693211
0.0701361854922646
0.0700923120538871
0.0848095105956504
0.128301414850895
0.0720450971080747
0.0744445933660803
0.0571957749820923
0.0714161155959362
0.103411732444017
0.0870221170917795
0.056248300355318
0.0919400404586664
0.0810813780756841
0.0572842004247664
0.0610930461334908
0.0642782049966593
0.0860722922777312
0.0836734914280664
0.0365520321643506
0.116669965692814
0.125704947742027
0.081697593764736
0.133963952157957
0.0635475714366148
0.0769264764289279
0.0701561962835347
0.0629220565828702
0.0574344277509569
0.0530202397139116
0.0529991741757987
0.0691296591287729
0.0957536359927355
0.0591760116413348
0.0786098004735255
0.0957774624869495
0.0891965852449077
0.0543533596088241
0.142807840500286
0.0765242413980744
0.061834750683593
0.0999349716784384
0.0823965436293757
0.0553226213440265
0.070141159264433
0.0879901215844436
0.0614264873376422
0.0626814735404205
0.0623263669328618
0.0673448413840669
0.0815436375005814
0.0745312087310554
0.0644884979327232
0.067881412867587
0.0589314385787887
0.0823172966636387
0.11777382744491
0.103422280214284
0.0717998262176462
0.0711193482669709
0.0341000571339261
0.0921535069922592
0.103216178120655
0.0633915934843016
0.0678215912213419
0.0555664149865265
0.0638715306075335
0.0576816042390397
0.058213227625758
0.0632549811697865
0.0527931999760183
0.109167729115992
0.0839386639011099
0.0653123229238072
0.0600718949748429
0.067296016307444
0.070154435152383
0.108769914137603
0.0982345794715012
0.0609787297990153
0.0748144822410823
0.0573690659157173
0.0843658544384733
0.0771531149998566
0.0627383185160861
0.0592707692926063
0.0646801593252034
0.0669066679801695
0.0632225387553716
0.0580141432829387
0.0686690062838981
0.0611225520031372
0.0640212390036844
0.0608171268880106
0.0620457107537519
0.0696021333349261
0.0697589985116393
0.060585342568644
0.064377996748722
0.0548390241839569
0.0833363925404671
0.090356161136066
0.0664498714043163
0.0635312683726984
0.0557768066513473
0.0606289977835032
0.0630277153044733
0.0583901188083398
0.0573745694552468
0.0609909637957855
0.0550371529268823
0.102583221759948
0.0697344271320383
0.0603105723218782
0.0523563653955458
0.0838021641041696
0.0923506230369966
0.0642336136285629
0.0631365281963911
0.0608919698038654
0.064244216464859
0.0558866175254806
0.10406034727873
0.071460491913571
0.0607904691549488
0.0796748412317684
0.0869119055372403
0.063104129223002
0.0703983173773109
0.0477828464113977
0.148546720132845
0.0956705896210612
0.0702983771928879
0.132779520167499
0.0882337564780286
0.0716912703280897
0.072336655622131
0.0343006647512612
0.164334570021795
0.114428396118498
0.0756637728815748
0.06742641384289
0.0879873760328559
0.0597083380014316
0.0744718183168639
0.0772883417435922
0.0966661530634937
0.118605510390345
0.126220519924628
0.131715196120344
0.0611904148790271
0.0990273714409738
0.109703751818144
0.0723189711242669
0.0759966990305847
0.0663995063320234
0.0699965610211186
0.0763799543694784
0.0946435620364305
0.0801661881393013
0.0815879818981752
0.0688697965117916
0.105647576182641
0.0765188430747
0.0752704715775274
0.0700367820487181
0.0881915637175389
0.0669897698400418
0.0779850554414332
0.0688749194741831
0.0850647986009395
0.0681668332355035
0.0705577529441357
0.122321971263846
0.0959521972363212
0.0759966051618801
0.119691122641505
0.0773648795269746
0.0720439651888654
0.0677341151879711
0.075697683133864
0.065083663587404
0.0667002160810293
0.0626610003855525
0.105714651035162
0.0751247277380227
0.0682075020716714
0.0684522866079637
0.0700583047260753
0.0706895080136644
0.0736386252283081
0.0717488898101642
0.0726669617516004
0.0702284979455249
0.0697647986171963
0.0871319333944322
0.105809666989559
0.0624982222657564
0.115346567867241
0.114356774498933
0.0742682210854672
0.0716641807005362
0.0706877526071932
0.074826476844728
0.0726001262961414
0.0778340080550291
0.0790341812288212
0.0810571230877078
0.0910202218917921
0.0762258362344143
0.0798093985127743
0.0892411009931787
0.136059878957784
0.143695461795749
0.0951289318675387
0.0820237861716749
0.068916197634542
0.105273710423108
0.118025304180563
0.0955159728146934
0.118754249277701
0.0832311714788206
0.0952507546357141
0.0771829034696592
0.0824630979511734
0.0735518217131696
0.0845006628406216
0.0756633758633275
0.0850263109926927
0.0799964154185135
0.0869968129286735
0.0806240345446649
0.0883267883922213
0.119436696434247
0.104477777468441
0.0848350364024344
0.0944661724245
0.0798362233647378
0.117212953874328
0.129112054339289
0.131935519742934
0.128992825311662
0.113056674453595
0.137649628268079
0.113285284731791
0.0944504333800237
0.08300050895793
0.0967052469464846
0.100919620749989
0.100093015347677
0.0987557831243362
0.0962855983298915
0.100202588894672
0.0942495837359527
0.0911626844836335
0.0956268612820487
0.103180177042679
0.130516014680097
0.11089306391522
0.107632530316721
0.10118871338132
0.109470381168093
0.177270227184333
0.152385495675008
0.121920629090131
0.112199818734052
0.120604899203851
0.107065864975892
0.116946545352508
0.108516398332314
0.127795555412449
0.117703257685086
0.159503673513292
0.148056115837327
0.144015527336847
0.144272617134816
0.117199338661179
0.140232788663594
0.140619864981033
0.136814618562803
0.168778593384754
0.134956114626026
0.124652437856082
0.159083945573509
0.160428572306977
0.142816909193828
0.165775518275715
0.122981594777778
0.138797253202457
0.139758466687586
0.141629030014149
0.144678115388242
0.159288383547912
0.152652806641475
0.151270119021124
0.154527236126544
0.154794199166959
0.154097628279709
0.171510839660877
0.162935823665453
0.16234534338614
0.162403799217324
0.157983835745824
0.168084031788906
0.154846629552602
0.192976241039426
0.211493151370478
0.186407947748911
0.213306126237418
0.176254594330488
0.173445434352506
0.180306135136585
0.186870356949571
0.176249276334604
0.188326290109469
0.196590915709861
0.188210519114789
0.181772875163922
0.208172470652833
0.198240548555015
0.198914523815206
0.212618845332901
0.211798363920765
0.19813018058304
0.213249873299701
0.217220107326275
0.208911147723338
0.238656850617338
0.259583372154834
0.26268672957814
0.258879350571013
0.222487080812549
0.224837772696054
0.239678254834547
0.241085148631085
0.231045074765369
0.249541491176401
0.23167706431862
0.239219305482644
0.243238884847302
0.247655530413864
0.24222604301266
0.26465184335869
0.260010433889923
0.252537645777393
0.265616494121828
0.271686391370863
0.269804158667101
0.272457610403337
0.279385820337616
0.291494284089037
0.269703391375244
0.296889112067096
0.290616249783763
0.283637821843134
0.297438074037779
0.287692869925396
0.294503880557453
0.292670624440992
0.285094676147635
0.293235696195662
0.292766901889541
0.316438734479926
0.320066178710033
0.32003636858906
0.322012698659423
0.321104126609926
0.324051322912078
0.344525020239996
0.338444205731957
0.330745252409713
0.336609850120227
0.339480817580031
0.33205529069811
0.349305386914865
0.367073588077216
0.358907504754481
0.354959667057362
0.357917746331773
0.350075380847104
0.362526159096761
0.353377511029617
0.361465909345792
0.367915203757345
0.3729533356457
0.37051092471653
0.37353861430631
0.395169721783197
0.386486784876177
0.387744709101037
0.405810076619206
0.387420865338572
0.402909229837807
0.412414376912014
0.405234833010047
0.396655616619839
0.411568674331497
0.421491683039515
0.429936516922629
0.420161803270202
0.426642053745529
0.417217151499171
0.409199870712689
0.428322784172115
0.441996419555293
0.423960544754082
0.42190234247626
0.452885631058816
0.455777493768214
0.434338638612302
0.450398511126362
0.455433967815437
0.453038823200505
0.457348464976072
0.46710966610431
0.475688828494777
0.48686700930346
0.484158559392926
0.477133226541967
0.474263616053698
0.474267285769993
0.502060937079122
0.478950949832433
0.485797905457814
0.518055535277892
0.518897502319793
0.4981193813476
0.497118741381685
0.511653504224018
0.511163377104419
0.514453439866701
0.522872856296984
0.503137742411405
0.520525338620452
0.526166580409384
0.529437262250551
0.541866392068167
0.533625834471786
0.528297350662859
0.541003994872299
0.548673851370812
0.557840329487171
0.532107647053482
0.544956858037814
0.559435918848984
0.576698639428053
0.579271444745174
0.578226161748608
0.582646245069919
0.563136841219343
0.56813001537876
0.58614731217687
0.591381487853383
0.586716632325532
0.575636200829473
0.587808230672026
0.594167706815028
0.579252924245955
0.58010574459661
0.606792000874354
0.592882037042317
0.59443680290913
0.601537851542268
0.61283453589029
0.602264419458606
0.614453657477589
0.599732330942259
0.604164096491379
0.601485387334928
0.622265326571534
0.613221806517634
0.616705519821908
0.621164783272621
0.658803380406975
0.650326847052721
0.634272403126607
0.640932455516282
0.657611461119386
0.646396901475063
0.656540345019737
0.666898502339859
0.685418074190182
0.664954486957601
0.65472258159951
0.651620297167159
0.644038485190512
0.667755241574899
0.668253969378007
0.652246932584535
0.669323231947983
0.668999687715376
0.654760757833129
0.649917872253408
0.669046988741231
0.672203328363343
0.705264091238953
0.690387253825449
0.667727746632801
0.632927125518044
0.694928987480864
0.687004283174673
0.691719488830549
0.68287103936344
0.689730606516122
0.690134976063558
0.677504042370609
0.672118929578091
0.684713993817038
0.689013005380508
0.695853030147014
0.718134063696561
0.737507456465975
0.705816253184122
0.712448168973566
0.704454935544073
0.705012697082301
0.697990045677578
0.700153670681177
0.720099016386631
0.73731059430955
0.713271213757048
0.74153932589911
0.732885159660864
0.742913337183173
0.754578473736411
0.713680039216089
0.72587706485754
0.753979369984276
0.727420342331707
0.744177685521453
0.744946261199577
0.753440406203127
0.713513261211704
0.743620495972225
0.733724065656267
0.746446173488638
0.735738928061934
0.758792393004827
0.708647237867719
0.723169111486777
0.722289783375108
0.739155166941341
0.728939199805196
0.7437960341383
0.768004234640837
0.769804544406652
0.739764335934831
0.758876465161367
0.729584003539545
0.764753277446873
0.749140998804929
0.752580635481258
0.757793786212557
0.78354118740103
0.760577588096783
0.746742037362273
0.733503719153948
0.766219911982619
0.741516155395417
0.754663281087159
0.744799138638118
0.763947788372333
0.7199253517576
0.782649873516551
0.760806312015271
0.766738728221488
0.755904332342245
0.747059851558079
0.748204495553451
0.745585173691584
0.764102311220883
0.768894077284604
0.74381073636992
0.758967814982506
0.751531797171102
0.770286428466055
0.769543604689636
0.749369023251915
0.766683981323656
0.79115981201598
0.752524981050979
0.74282129266906
0.750132567113588
0.758122027282288
0.729818067404251
0.778411034112493
0.743985780983845
0.734954398648361
0.734556943640477
0.747218823907041
0.730145316709084
0.766125776682058
0.756552859813853
0.744017492282954
0.737876219584989
0.756280884201103
0.75063382887967
0.77769261200283
0.730397062008735
0.760800377016103
0.748694784473389
0.744840413444464
0.725886614247906
0.744972280404429
0.720798700187118
0.72731658333329
0.72190589837503
0.748103593703008
0.74120964992312
0.754390771484435
0.736677590749435
0.73477904660331
0.707019241334246
0.742558939527013
0.719469402259373
0.738849211953638
0.714420199073413
0.75119683224953
0.712283276852785
0.747933770816727
0.727731114376792
0.71138515012526
0.71877954159477
0.72390775003255
0.707754271379726
0.732796191978088
0.709994294017765
0.717402788078947
0.727831882816251
0.723481307648571
0.714737087680135
0.729869482866992
0.695673334254748
0.715064484726193
0.701893142211781
0.712307306930678
0.703512138510686
0.713886798159038
0.705953282394414
0.706690844560654
0.704277752712457
0.717053994388349
0.699542805356023
0.723617093862343
0.698845653788623
0.701374391508532
0.67500465503631
0.695189249039093
0.705608254263595
0.700463906793602
0.688340376440008
0.699837252025754
0.671990984503124
0.679877362358926
0.670859366521348
0.687332592660224
0.68025618771607
0.679327179781543
0.672663458293569
0.680754676106403
0.6484869070845
0.676295576816154
0.667697576809802
0.669938194406022
0.667689563132307
0.673429431805451
0.664570233408062
0.6604648868534
0.660418125361743
0.654067023132642
0.639526672486273
0.64449140686152
0.646366171685877
0.651107164687108
0.63753962823305
0.655201288780984
0.630120852752497
0.641300368618533
0.636005274829475
0.64479275402631
0.624340726952697
0.638012448169523
0.616138842342437
0.615939154152682
0.602165463801572
0.640605925503971
0.617377986621195
0.631046580346616
0.62841847626307
0.63470719798945
0.615963646490619
0.622626387831899
0.594778067936892
0.594259644708806
0.602709965745906
0.599582588052204
0.602485839985676
0.610082762373487
0.591283943293398
0.605161739488722
0.591039188652813
0.584630211264908
0.578035980105659
0.604114158089756
0.592647968086532
0.579871912244206
0.577228976207378
0.577295907085458
0.559856733896514
0.569981884066002
0.558877935556202
0.562264454541808
0.568412560158561
0.571926603567441
0.557557518464307
0.564826594123398
0.549542526897578
0.549058526256611
0.550150738193573
0.547932246451792
0.536330606123096
0.543908370771788
0.527375782293246
0.529991030799655
0.531228821321308
0.532770884654419
0.539558421284235
0.527741281304716
0.529409432734641
0.531054927131988
0.515290294703065
0.520608048016775
0.511836764857992
0.512642349579252
0.505005185436495
0.524382456491665
0.495483454805882
0.51160097036135
0.4864079501079
0.508548561706628
0.493236734622123
0.490096914411708
0.493716119377263
0.496748076481139
0.487490763651788
0.482117605837451
0.484415006347348
0.486637758363563
0.47912443000327
0.485610570825385
0.470464695825939
0.47921301769283
0.462484403305135
0.466847592642443
0.460196371664565
0.467078731615124
0.458411932386602
0.456931215263798
0.447239985918649
0.457459317991347
0.444509314623133
0.436556696260565
0.446591136045619
0.436918814506266
0.43174098068589
0.444089284886547
0.432379933020473
0.424365558677433
0.416668815527169
0.42792602889386
0.422899455515501
0.429907871867239
0.411224075352406
0.411333814463401
0.414492970759177
0.417411568748958
0.412459658381648
0.409670512263414
0.401031660657119
0.407328082607613
0.393684142069695
0.401350518167405
0.389121201653036
0.392211200196454
0.389689263904327
0.390512449243478
0.375050803856942
0.387382789733073
0.38100990187301
0.376687137873613
0.376252957046304
0.380930487066282
0.372633872379835
0.371860335252001
0.373495085137382
0.367592794584682
0.37225256593368
0.359260102312758
0.358465659748359
0.36759735072912
0.355420928608046
0.360880920674047
0.356550698975925
0.343797542789681
0.343260720995562
0.349642970772829
0.343791402214041
0.341961757271871
0.345456265809621
0.336236499526175
0.331938109233758
0.334570971149836
0.325971989212849
0.332822705120376
0.329230054251252
0.329089630696407
0.325719018755863
0.32710257430423
0.329886605292338
0.322143864431167
0.31127585289441
0.318385841856681
0.321199029553358
0.312416303137553
0.315340718507505
0.309938536482069
0.306286468686235
0.301212579954201
0.305768784884788
0.299620116782171
0.299711737925188
0.30672385258659
0.298899591553238
0.298910745803833
0.295145151439566
0.298307583394189
0.290962573156798
0.292766817738564
0.283151585063066
0.286431779766566
0.283086058078996
0.287968661962861
0.279662239017637
0.279264316416064
0.270762490162164
0.279054970502993
0.275914483022361
0.275237796943956
0.263779205379707
0.273205200346379
0.268806587523359
0.27090513018353
0.269618107048056
0.268185598724019
0.262478972165485
0.264190898851302
0.266164081694327
0.267151650254597
0.258376452642473
0.257644112797019
0.259504340807881
0.267351832352295
0.249804793045641
0.252203309797445
0.253202748145372
0.25441125916474
0.254212570506832
0.246163682209902
0.247780928942156
0.247071418552991
0.242241984587728
0.242990325555789
0.23907988627561
0.241785409960368
0.240018309684976
0.241854477846826
0.235912478277585
0.237225573864322
0.237323694909832
0.233738387848479
0.231458005879918
0.2318791311009
0.230319023133907
0.231009315573
0.226303551009584
0.230184987355727
0.225728495695519
0.228057654031144
0.223359484805635
0.220174691926577
0.215384425262456
0.220869136990515
0.222497569675855
0.220758217393021
0.21898281844582
0.22160395756861
0.219916712191413
0.215127668580203
0.213065858276781
0.219706887155976
0.215441682330503
0.209796466764997
0.209672716684349
0.214128401914705
0.215556515428564
0.207684243205953
0.210988479772743
0.209348049553858
0.20917543587296
0.205182168941172
0.201094443308796
0.203162359447208
0.205266528577041
0.205480797020077
0.203211279878031
0.198908182528839
0.197188715177315
0.199041670131772
0.200208344912906
0.196685832614286
0.201304115080837
0.203462975160496
0.198941367753435
0.196163167206032
0.205610103404365
0.195841906866382
0.203572302760568
0.201568162892929
0.19161327560272
0.197367005698343
0.193505899304762
0.202083169685503
0.197935043070971
0.197288423632763
0.194436507026271
0.196297654916738
0.195200236602143
0.194912005313858
0.190710615253135
0.190953354644454
0.194341260887965
0.198787767787334
0.194732779289632
0.197180595109157
0.187840626369486
0.197857471035579
0.20139840350033
0.199361219652222
0.191724724338571
0.203367604059833
0.202820689030074
0.204781213599527
0.20195836668977
0.204085205949022
0.205241765752482
0.202288544737691
0.209304165293014
0.216178541807903
0.204486825933155
0.211061364493521
0.207799853930429
0.2142269986308
0.20275914575317
0.212315703445868
0.216392440295558
0.223969269651219
0.22128903172515
0.227149779801995
0.218559552686034
0.215972750435149
0.222213758413122
0.225634584187213
0.225808600256437
0.225597417976677
0.229349358505754
0.230279897648841
0.222133865988214
0.232100984804912
0.227979659687319
0.228434825060541
0.226462663846417
0.234186129243323
0.23374979563555
0.234745628933909
0.233446834157721
0.240910390482585
0.240848327583796
0.243300663530159
0.238224360605093
0.248001081792427
0.246172475762563
0.247190880190784
0.243942869013605
0.24961497587388
0.249219860015941
0.260758305714293
0.257294029605961
0.253867665759105
0.260215049908372
0.266425313771838
0.266993673910382
0.26735626587355
0.266178667347594
0.267994352486011
0.266913876177334
0.276921143148225
0.273884072800024
0.276908511337495
0.27236644006637
0.277116653084947
0.270205343252606
0.272533674488933
0.276616887371012
0.280728494864945
0.278118433082236
0.275628306069199
0.283657969886542
0.278819906040461
0.282145724621278
0.278398493881989
0.276795402873497
0.283762429690752
0.278975330372647
0.280267996267611
0.282837139071787
0.272692533721328
0.265260881756475
0.268465288596642
0.270842571404964
0.270471614287416
0.263495796397951
0.270503655350664
0.260353903187058
0.267388595952527
0.265002182596454
0.268102185520647
0.263283900996723
0.263392425253654
0.265048544328115
0.267933921929825
0.262864190039563
0.270584857814175
0.260669854883626
0.265014068760194
0.259458975594901
0.262681361029419
0.261405064001365
0.261209613258616
0.26344665569063
0.261225089982732
0.26303004660998
0.260924542757829
0.262790116828213
0.259743030979015
0.260486926756266
0.257018696113179
0.255431056321724
0.258119597384198
0.259784609158461
0.260197736526268
0.258501752058478
0.25389330995138
0.26146898237613
0.254347883746447
0.252233373229654
0.260678235733906
0.25021923995336
0.25991953567951
0.254765024250822
0.24977330661161
0.25316461561346
0.255101515379158
0.251016711598556
0.250394555778398
0.251739127102098
0.245781605124204
0.250183841322377
0.245271309306731
0.24290482358072
0.241433825575464
0.234621861852424
0.238640941793053
0.234771228458316
0.234000405082192
0.236781334071602
0.239407519530462
0.227744633021418
0.228969715221803
0.222118588458635
0.220742852313399
0.221155799362333
0.222010452901743
0.216831984534158
0.211537349697578
0.20993574760843
0.205937529613996
0.203236745712252
0.202404351361923
0.204480599135944
0.196635437420972
0.198378464314421
0.201212637164087
0.198178217958908
0.199430787022191
0.199080693019083
0.203046834336464
0.194008005595844
0.195243501503485
0.185720846105747
0.189829217306428
0.186743002210027
0.184757659070633
0.185714098389357
0.181346609146175
0.179910020530374
0.179396605362851
0.180663274323637
0.171420994260771
0.179309675200874
0.174995183014843
0.173755228853303
0.175446861972603
0.174536644064092
0.174264850435666
0.168799603329456
0.171907571118451
0.17407064133084
0.170909360304181
0.16907891664805
0.16747445701012
0.166337110430361
0.167637213026787
0.167271198392788
0.164059045909041
0.158420029468785
0.160842463685263
0.160576561972185
0.159098790386268
0.157640354857054
0.158604827665426
0.158388722263177
0.155443910260182
0.152975224311919
0.15319468914097
0.148283993044859
0.150968260843103
0.151276491732301
0.144768572221843
0.146790372933736
0.151487993984661
0.14817733146488
0.141807952605372
0.141737740008911
0.149305656001856
0.140943695517783
0.144107273025412
0.144701796974422
0.136127168733941
0.142613644476343
0.140650694423736
0.137229922265447
0.136346283153744
0.132759706506406
0.140163390914271
0.135631370450287
0.133772265044701
0.130409025678818
0.135419231060101
0.136285044796668
0.13383839812331
0.134304463945829
0.131690329216878
0.131480329791247
0.131304610372781
0.131703059935678
0.13181669392617
0.12739198107689
0.127593573074968
0.130842443631644
0.132932361006706
0.130875565634697
0.12681116374699
0.13067764712527
0.129043020370307
0.121831787197609
0.127386706016181
0.124142740091065
0.128992025205072
0.126141035935439
0.128722839840552
0.122691326720612
0.12514255765664
0.123336713837154
0.124746633937356
0.122457452121296
0.122820521558413
0.126407177602653
0.121346333280304
0.12022922393641
0.120520419355446
0.122452585097639
0.119338630093336
0.120925442675344
0.120055881906926
0.120937822108388
0.118819075259951
0.116212064951629
0.116549713843862
0.120338511720214
0.121265633400997
0.116526188169989
0.118053350258799
0.117672745006366
0.117131976018696
0.116619181964277
0.118190734085641
0.115172627525734
0.114244343772712
0.115010938519079
0.115545839991692
0.116922992629377
0.11550238187971
0.119950891798134
0.1164585437116
0.118345801349617
0.112785313336582
0.116257244338292
0.112420456125038
0.114602242840995
0.114539813520446
0.115404829721422
0.113529860786954
0.111867325066457
0.11801531878674
0.11286859633511
0.113954653163263
0.113980027192991
0.114584683034133
0.111527076673608
0.112300113554211
0.113159798848652
0.115168823706866
0.115436021405378
0.112798548217128
0.111317955752441
0.109816686998315
0.110803011863436
0.108695505532337
0.110028001310075
0.112634408144112
0.113921127222513
0.107174620191005
0.111680226837824
0.11138409168241
0.110582147277468
0.106917619036418
0.105347550207452
0.104680133741273
0.105327709731437
0.109082518427588
0.108414801695444
0.106943991976799
0.103306523990518
0.105964270310252
0.10740412864266
0.108082511896057
0.10797317509811
0.105518657112614
0.105602526939027
0.101251290707925
0.101068115821821
0.103866245705943
0.100096641107058
0.103645877652223
0.103297009916692
0.102819151769409
0.103597744986696
0.105314374076546
0.103255658695476
0.100666029094588
0.101953478229773
0.0972608755650723
0.0994680091457319
0.100666190993585
0.10243015194901
0.100907412315453
0.0975848092464667
0.0993874408579942
0.0995371094711896
0.0999899837107104
0.0996460485410433
0.0997710116311058
0.0983462508147765
0.0980409846574321
0.100777239453025
0.0959437383229914
0.0963792005203356
0.0952695876694648
0.0962714994078401
0.095749655703631
0.0950590961965113
0.0930098169409969
0.0962146370540665
0.093344747805659
0.0939488973351863
0.0941002251271744
0.0929502660490036
0.0950943289913553
0.0920134078876849
0.0919598201901926
0.0913551114498169
0.0907895647198455
0.089836863515221
0.0907683700935577
0.08960979875505
0.0880762868948682
0.0901714909197471
0.0883501512357351
0.0890709702254876
0.0878257064989006
0.0864794464404932
0.0868038565657686
0.0879250468453153
0.0854343016315788
0.0882821568908493
0.0850568731184827
0.0857324230177509
0.0819362510373086
0.0849371281061162
0.0837643571546476
0.0841725311155122
0.0804940798500647
0.0851302734031785
0.0852566862083699
0.0830194704944523
0.0819220807407951
0.0844192935136487
0.0823002964003993
0.0819001348234139
0.0828893801840093
0.0786715985431443
0.0802010386595531
0.080284554840554
0.0799413278047669
0.0856996357706439
0.0795909887962745
0.0795838786494723
0.0809974489264526
0.080534836133564
0.0782522249557856
0.0793771755651132
0.0760664207415194
0.0799823284532517
0.0762168624166866
0.0768728947393443
0.0779554930268887
0.0776613327093319
0.0758778215316868
0.0762404688638123
0.0755949197817227
0.0764085886840218
0.0757802471130035
0.077181439735952
0.075611780327364
0.0804032188002498
0.0774436958721028
0.0770517770351855
0.0752511948957754
0.0742481523057019
0.0714681255510275
0.0767284026397094
0.0734597008695406
0.0754657375061941
0.0739674147221371
0.075009339985379
0.0731301703063127
0.0742867491756429
0.074326927795986
0.0784499723937715
0.0720503120642765
0.0731913876115794
0.0704480549343944
0.0695352200752254
0.0699833076443151
0.0673159774781617
0.0695269498718451
0.0723050436888852
0.0711690868663196
0.0717119752660113
0.0681567142356207
0.0697265404385768
0.0676786945833244
0.0705527487320853
0.0690013683809059
0.070773099864244
0.0685085837362072
0.0710233028369946
0.0683319513397461
0.0667411183068925
0.0671066817442636
0.0712968499672233
0.0664781904800501
0.0692996366881306
0.0677498989183924
0.0694605038868283
0.0682997636727613
0.0677961456810654
0.0683038173302825
0.0690453072319531
0.0694086038158697
0.0657521129604945
0.067443809181758
0.0680327603036651
0.0678490256071599
0.0693832855968592
0.0709522480034293
0.0699949502450835
0.0656996775931316
0.0684035330498593
0.0691077812380319
0.0670146664496372
0.0673256479102861
0.066765528030349
0.0671498308089626
0.0663190023323343
0.0665602387887954
0.0666526071554712
0.0669123367482024
0.0671490334176455
0.065314053122007
0.0687893544564325
0.0655785973818627
0.0660573219006629
0.0625065823736538
0.065322139930642
0.0628389346211654
0.0660217623478143
0.0637900960790558
0.0638818766429839
0.0606106652000062
0.0633327978159864
0.0645367096456272
0.0669613465301258
0.0619980693679139
0.0666379903982683
0.0607450483191275
0.0659830505655595
0.0641896833825852
0.0639664165150845
0.0606724719704758
0.0615733324964267
0.062970640541801
0.0625077384312362
0.0619978356727143
0.0616669945202989
0.0599506725281877
0.062396549766499
0.0601009990789894
0.0615205984134961
0.0599088718599841
0.0635093282941353
0.0608792243985336
0.0642863904537594
0.0621162509159382
0.0607543897916582
0.0591909049707339
0.0619213522946168
0.0596815481676405
0.0621783017003777
0.0578190055167802
0.0590880069347131
0.0609946055948842
0.0621505601188884
0.0588901535266134
0.0606837191368343
0.0595359709842053
0.0615712666237886
0.0584585315325463
0.0640779311386812
0.0589782200991002
0.059937808073055
0.0585369409519189
0.0611826574988251
0.0562578159695477
0.0609516586424776
0.0582712139645437
0.0582880836120143
0.0584214275786822
0.0586473593633591
0.0577359841666341
0.061497041111713
0.0586432164694342
0.0587439393930861
0.0558918767750648
0.05990113690324
0.0561202415639168
0.0574588531510712
0.0554405882902044
0.0576443912923774
0.0538314742795102
0.0542436109172294
0.0573756659493645
0.0576143956410822
0.0548036722313797
0.057599077469226
0.0566580706342855
0.0560696746990585
0.0518188403916438
0.0543250810685433
0.0561484174628736
0.0588722033149184
0.0532798367741153
0.0542489891285311
0.0536045195597564
0.0567871470408607
0.0530158966894211
0.0543526005843719
0.0513150722114614
0.0550705759225932
0.052833678771053
0.0528822237918232
0.0525854659061154
0.052905274330483
0.0500845934369387
0.0540059225290759
0.0534121140310387
0.052745313901727
0.0525099144212788
0.0540862037612518
0.0505469729673447
0.0543733253281998
0.050288935193359
0.0531135076445539
0.0508097424601369
0.0552107801644726
0.0525644786008229
0.0521912260290783
0.0489535777389105
0.0517876780633406
0.0500384182075058
0.0516841638156335
0.0507930629561377
0.0540424462967652
0.0481695778920559
0.0493547095672848
0.0495550305216725
0.0507590940170982
0.0495536002344219
0.0513463168647436
0.0479922636269968
0.0517542783202244
0.0465376547171884
0.0504058239982329
0.0473824599938804
0.0482543513138325
0.0440853164165883
0.0504586049817187
0.0485126175510499
0.050038238266514
0.0451879796292646
0.0514223895006789
0.0462183220045762
0.0496211817940869
0.0474522777599812
0.0491231554667524
0.0460510835215424
0.0470329164540169
0.0449458133835135
0.0475048919432201
0.0473833886870328
0.0494830480204974
0.0444984365260837
0.0472675432830032
0.0454008877189912
0.0463744766935333
0.0438163381548889
0.0472347933660151
0.044230491538713
0.0450421078551228
0.045994492262174
0.0469931471781155
0.0428770916790558
0.0456465569432138
0.0446558696487659
0.0442816157254972
0.0426110935459931
0.0448040019816774
0.0427314354040369
0.0462079703026415
0.0440123390244313
0.0471214176637665
0.0421109450007351
0.0450735865375042
0.0419389895354316
0.0438092963412691
0.0457638298527098
0.0468702727780557
0.0439015295912977
0.0470780717683158
0.042241766988899
0.0465541127022929
0.0440766443331161
0.0482764060285406
0.0443796999350623
0.0484851350637294
0.0425228138081085
0.0485140410549802
0.0444910225484091
0.0467553041267672
0.0423552750442731
0.052370073148061
0.0406489597062757
0.0430364383242326
0.0408512178637902
0.0456447728108331
0.0366278294958539
0.0439789095053295
0.0384412894855347
0.0445469082752774
0.0331002810307959
0.0426617046472303
0.0412186080547537
0.0475601950207688
0.0364404759853846
0.0441816307718293
0.0369790245019327
0.0435172329336858
0.0358680874471054
0.0433021955836277
0.0329257968829205
0.0420912748881444
0.0367359919890372
0.0438963400565872
0.0396718120665569
0.0502715208417274
0.038120250345308
0.0493560457666006
0.0357540843562819
0.0495580413285016
0.0327174904215346
0.0473031143482682
0.0333769866607379
0.0467926015840689
0.0345039251729908
0.0452245990675947
0.034387211560478
0.0401474989031742
0.0339912248306184
0.0453278260548203
0.0335094835836506
0.0424795671923255
0.0327211150072153
0.0388469453405606
0.0355327712916229
0.0400975273657403
0.0444177368507592
0.0401227507412798
0.044563273226856
0.0342011413257649
0.0491825843077028
0.0305863683812546
0.0533031277784812
0.0233219843280194
0.0557979903506769
0.0202335785540095
0.0698230687204982
0.018203725833023
0.071970355715964
0.0121574845016787
0.0742486888447208
0.0124670120176482
0.0719401426134505
0.0187391805888411
0.065039884572429
0.0250081345567984
0.0549627863017034
0.0352890816036182
0.0472111700974942
0.041832750587688
0.0391736172025354
0.0460766908788628
0.0376402701661657
0.0456582705587809
0.0380579535290035
0.0439518923100702
0.0412016875748483
0.0387808347105064
0.0448224219855194
0.036209092318183
0.043103172852782
0.0368160972032741
0.0431336855689792
0.0362958484898054
0.0407108058307207
0.0396423973232362
0.0393200394646097
0.0388605550720933
0.0381061492710588
0.0374944029155165
0.0390275367651471
0.0394357894796845
0.041834489739611
0.0389101608876675
0.0414066982283363
0.0377558819274531
0.0395286028901679
0.0382082361185094
0.0395311885195991
0.0369284912994421
0.0382328990676254
0.0370488120151823
0.0375362129957453
0.0360099682832079
0.0380383684461132
0.0374014227555334
0.0373499354515001
0.0362453442190889
0.0374173161966681
0.0375144960402744
0.0400403477501601
0.0397310612095869
0.0378750044873756
0.038914702564436
0.0400688878101221
0.0391418374571172
0.0419310757892473
0.0389311455581497
0.0374563047755496
0.0388400726252455
0.0389175143792087
0.0374630452311119
0.0397463308979896
0.0368004791399879
0.038004609339802
0.039723359632357
0.0397225101097747
0.0374744548676261
0.0365914624722657
0.0376624132468303
0.0361746146203132
0.0389858308731361
0.0375078420546931
0.0364746113327323
0.0382692440667074
0.0391959073469398
0.0374357611342529
0.0382531443660853
0.0376698478025809
0.0390729409205869
0.0370229504254297
0.0367042122453814
0.0373947547655097
0.0379795211234035
0.035426459000378
0.0377305726564823
0.0392762905815781
0.0387603656600603
0.037774716364704
0.038880834699288
0.036184958083273
0.0377840564317481
0.0356949151952394
0.0391322233835499
0.0385304934873801
0.0380168441925475
0.0376192911015652
0.0392438085916222
0.0360417946802099
0.0380875313263811
0.038098795037559
0.0373725892852659
0.035533569261549
0.0407732617159788
0.0386422543126215
0.0377233713623226
0.037452489865325
0.0387048473661988
0.0363123908204464
0.0370739367144569
0.0386245086189475
0.0392500412687318
0.0380538863445672
0.0398160723119278
0.0381547406276063
0.039340301621155
0.0377380540867883
0.0392517482662137
0.0375828754478132
0.0388793072389237
0.037462582998668
0.0380578664851641
0.039271854633953
0.0388183191651355
0.0390380283004305
0.0407868510790264
0.0375203189818254
0.0381079126119278
0.0376088945283945
0.0384448365846077
0.0370633535266847
0.0400356089800733
0.0362517252416983
0.0380595452641922
0.0379108706779194
0.0366222000106081
0.036646060355645
0.0390411660029527
0.0388942715517251
0.0377902882167613
0.0387253612247216
0.0396357270810473
0.0377555030794634
0.0382715684796114
0.0374310136536403
0.0390553943365775
0.0397445696603749
0.0394750265153918
0.0360626311316523
0.0392586860067999
0.0371654147493774
0.0372390931964001
0.038236693609643
0.0389806195695933
0.0369016449201576
0.0373108747931413
0.0379635139593083
0.0406078699182767
0.0384642893028048
0.0403139188097308
0.037838355547359
0.0397460407541483
0.0386501797065177
0.0391557592211431
0.0389495829025808
0.0405260276241833
0.0374652489703387
0.0401001951442675
0.0384346986333081
0.0409555515189442
0.0398293116471879
0.041398878124387
0.0385382114974954
0.0391396093778429
0.0366737931442454
0.0405232871953189
0.0399953681647167
0.0406583136071568
0.0405221380666814
0.0406533581804592
0.039660018515675
0.0392744383914134
0.0375356250494534
0.0409239470485474
0.0393724456340793
0.0407416974449896
0.0372675862796839
0.0389797180264531
0.0367197648353259
0.0401376605007248
0.0384509171769793
0.0404620673881202
0.0389810434472012
0.039213975744647
0.0369473075960104
0.0387120728724792
0.0379243494291215
0.0408508294366806
0.0377730764043535
0.0398337804787903
0.035861550318582
0.0390810052273715
0.0370039664925721
0.0371842978392438
0.0356946342871397
0.0407106911417406
0.0354337679269579
0.0400969858437375
0.0372273157990348
0.0390139521801644
0.0373303251659396
0.0378250962491837
0.0356650668253794
0.0386053901290491
0.0354963333123264
0.0381244188699218
0.038140090733559
0.0373547971835326
0.0377807780494181
0.0393465323052024
0.0370072563270281
0.0379851344906877
0.0359798988564498
0.0381949279516445
0.038137264089856
0.0393764783723763
0.036588744817303
0.0365602724479546
0.0358481565238338
0.0389351507848794
0.0363687773215642
0.0375048779250214
0.0358175669733518
0.0372545957714358
0.0363131906218588
0.0387645384933088
0.0358369090016465
0.0374952703101438
0.0355725391404435
0.0382575461085343
0.0362749664783688
0.0373649082085768
0.0367930458357501
0.0368113310316266
0.0368314763975646
0.0386428324445857
0.0355593665965806
0.0387038253092055
0.034975573610308
0.0371766870366257
0.0358557652145401
0.0380849635747269
0.0351238729422858
0.0382338004126401
0.0366557437729781
0.0373134665833058
0.0369635288754313
0.0391145427337479
0.0366821203513904
0.036923608556987
0.0357509946816561
0.0374705305172959
0.0370182238280837
0.039748554789752
0.0375181899397807
0.0373391249530006
0.0355505414502954
0.0367050182477077
0.0361335643435712
0.0379039404555031
0.0346909802157637
0.0391750127956552
0.038544361396544
0.0389483510971005
0.0361345277093521
0.0364413744443849
0.0358990655177644
0.0393883651465857
0.0332677765909897
0.03619954468095
0.0357183293409924
0.0368050996093749
0.0336983714822765
0.0372187167901747
0.0349918169084423
0.0395576522487197
0.037134594367525
0.0367458304930251
0.0341288027559167
0.0373448212014655
0.0353075789747088
0.0382826505894917
0.0358419674309263
0.0362396509955915
0.0350117460776666
0.0359734961461243
0.0321166007468331
0.0362491667716933
0.0374132795412595
0.0379750138898
0.0344271377143184
0.0345482490123512
0.0327111614371111
0.0349699550396846
0.0336337492228995
0.0364937522198556
0.0332037115351992
0.0354552129952238
0.0336256400080305
0.0354250479885873
0.0341705144822459
0.0359000119340021
0.0320490276157317
0.0337860910235114
0.0349034806949504
0.0355625668542456
0.033010365229755
0.0360535947774827
0.0322419216692559
0.0347311695071875
0.033544861645895
0.0360948288443703
0.0346774072649542
0.0366389894884922
0.036965073145161
0.0386860628668745
0.0301769940646848
0.033152415058299
0.0292917160304437
0.035985298622486
0.0327836203762356
0.0342254348389914
0.0305831665611111
0.0316464202707704
0.0315299338096067
0.0324080572770191
0.0313187404063261
0.0334869492824105
0.0307532175083103
0.0336338031168168
0.0295629964079809
0.0351441883326392
0.0314760978168534
0.0324276151179385
0.0293427469609027
0.0325197823189411
0.0289139173205093
0.0318407649219218
0.0265715248238719
0.0340507507752958
0.0349753207552819
0.0413797770426954
0.0344741517827569
0.0314978710459894
0.0327403041827149
0.0359711420878519
0.0310195240998475
0.0322298985195048
0.0299259062785795
0.0302950160428259
0.0309495301226109
0.030679955765923
0.0303053134126307
0.0317495972811668
0.0319135177463179
0.032535455597587
0.0310000523596965
0.031442322162384
0.0306083494561171
0.032369281306509
0.0300734225756609
0.0318199715130432
0.0290525898392089
0.0299331223618391
0.0299912164034264
0.0308578269522347
0.0298350394215419
0.038248657989872
0.03559518558803
0.0335650328218807
0.030965107832974
0.0291141154875955
0.0295092880451049
0.0306023228565188
0.0314863893182332
0.0317848740159491
0.0279559266665261
0.0304321290812407
0.0291146133721532
0.0315257137915572
0.0306310650730951
0.0316408446576852
0.0272878190706813
0.0304378918646107
0.0269041328518254
0.031414251506402
0.0296751844993477
0.0292181953022844
0.0299668239346771
0.0292157219258691
0.031525463010912
0.0327697651900227
0.0279628678217516
0.0363073982255457
0.043681369411224
0.0339407636058776
0.0271931706094808
0.0316790151571686
0.0250199686637724
0.0301150226059943
0.0276217036144876
0.0318048657847427
0.0245711355498988
0.0295627865049521
0.0288498084967553
0.0326115045860699
0.0302161241857376
0.0311733733556876
0.0256074079784436
0.029786399666434
0.0273415915460378
0.0310205076304285
0.0261125173013648
0.0285120123406249
0.0338344527549504
0.0460971091742457
0.0354406950600274
0.0317182489476126
0.0273131954308041
0.0325021723555699
0.0390254863323179
0.040279581716724
0.0278169738809727
0.0315826001300151
0.0269382440961823
0.0303278471289565
0.0279630261247541
0.0287908645605364
0.02838603573397
0.0363017316944404
0.0300163355896838
0.0329976298375972
0.0295844034073854
0.0304428916550935
0.0259790011780548
0.0302978959961309
0.027355532217455
0.028299092810747
0.0253013683325183
0.0280867092204533
0.0275100019430488
0.0295329747420291
0.0259408040187007
0.0271362292292119
0.0285547460004581
0.0369146309536367
0.0275822304522704
0.0287817396110764
0.028614584674607
0.0265301915807225
0.0329490913236117
0.0454777409292835
0.0310600489811112
0.0296671196645811
0.0272097292645155
0.0290935166459023
0.0308143231138916
0.0289557188851084
0.0270088868302182
0.0291708945983258
0.0237441293533645
0.0288798055212081
0.0279467138388868
0.0307895471528206
0.0283661930500851
0.0285677650146416
0.0257451055024231
0.0287881218676299
0.0274690958622949
0.0302644249180288
0.0277279329274935
0.0335569455890048
0.0358601752447323
0.0528020520328271
0.0413797227758115
0.0412622137051882
0.0332521847053298
0.0327411652529174
0.0296720656283552
0.0302423332200335
0.0297079241296432
0.0317669297746744
0.0280224424674156
0.0309713632663046
0.028074800232425
0.0313970386236468
0.0250477397604549
0.0267903843315101
0.026853257121801
0.0284172983332778
0.0266801244411439
0.0280865938714777
0.0255384124387147
0.027493838689975
0.027211684359559
0.0375802560393155
0.0359314293676933
0.0316141616645839
0.0295066241107959
0.0535956698455558
0.0525198021441688
0.0364247497316658
0.0322255047510441
0.0303763216061626
0.0257095398192781
0.0284773210848165
0.0286388883740858
0.0340492826787545
0.0312641093590696
0.0291067749380195
0.0278056044356266
0.0317207045074528
0.0302982065400346
0.0290017766111728
0.0367160070473698
0.0586288184025856
0.0408733294481942
0.0335074099199875
0.028117628258677
0.0402825973371436
0.0490786945814901
0.034672295852041
0.0297160844153288
0.0338757982449353
0.0270074215056887
0.0304869621379431
0.0259136042292915
0.0291336108207071
0.0300895473055577
0.0325324861930041
0.0267354039768508
0.029427957599347
0.0258889776368761
0.0328219859990802
0.0333066247145151
0.0422121155408032
0.0383179286861759
0.0327138123285999
0.0331104215349992
0.0344899768251507
0.0291254032194011
0.0337127338672304
0.0286562459732758
0.0304713797082555
0.0396036069345128
0.0468755984316519
0.0380286990018639
0.0461939194348168
0.0398502041428769
0.0324702555916765
0.0317437125115893
0.0429801469885182
0.0366885679468286
0.0322913577426424
0.0423511288239207
0.059367238414506
0.0521264634770343
0.0498927731451609
0.0346477884599829
0.0334289091234449
0.0307048910636604
0.0294391977320505
0.0350403478201053
0.0458232920935376
0.0349766181293127
0.03375369165431
0.0297939518173926
0.0491170476449457
0.0452038159068203
0.0379984192098102
0.036648607921657
0.0319584876483329
0.0329186926660388
0.0460271788606452
0.036044731987239
0.0348181516682773
0.0530596107723527
0.07592379501447
0.0563436268122146
0.0401023185200236
0.0332485567604738
0.0703493398914087
0.0418445135287889
0.0367835650187335
0.0324726800055649
0.0355656558943927
0.031129945688792
0.0422906218066118
0.0587928414421739
0.0470033590344877
0.03522467393133
0.0416963565187618
0.0334166058073385
0.0559022665032869
0.0466662331772725
0.0377610630295238
0.0326282099003195
0.0372158755946319
0.0355637080209938
0.0836244978625153
0.05323033924311
0.0592268436794336
0.0616304410017666
0.0602450595598583
0.0482266429437898
0.0482771873346598
0.0426537212066195
0.0613239461045581
0.058690585654018
0.0468268897982013
0.0338947160924596
0.0591998303570449
0.0617864519729433
0.0466656174161293
0.0451199894105444
0.0430431992146807
0.0426645996865292
0.0809973740162993
0.101249954148993
0.0800083363695391
0.0489409153592996
0.0548116849899633
0.0686193412804615
0.0527546424856844
0.0436839389321708
0.0440677732254571
0.042298006320614
0.0443584721018524
0.0445395214587685
0.0568857623739895
0.0491286129701248
0.0503096844605497
0.0445446845390084
0.0512166667571734
0.0668549449320845
0.10492398920555
0.0855379434775603
0.0688862195949678
0.0904789475700122
0.0829396092772973
0.0644806841588759
0.0556031732703977
0.050726069848095
0.0672179815503208
0.0567696776066991
0.0566879760427058
0.0523594844654939
0.0820178662650313
0.0722574181966599
0.0760576085544754
0.0779380662181542
0.0679623417624545
0.0673804437955669
0.0727756349834866
0.18603509821511
0.0999215165659545
0.0811232781054116
0.0864738486476711
0.0842978509806026
0.143141207071814
0.0870613621525097
0.0770337669142251
0.0769348461918248
0.0787049898585321
0.0829895654654105
0.0913576690252186
0.093188076024895
0.102438808656272
0.088535603223339
0.0963674816120293
0.10691291640877
0.18934700619275
0.160144359805312
0.126100533343117
0.104981860929437
0.130750725819019
0.125308082670283
0.114159908958621
0.112125443543439
0.11616995784262
0.12122968591273
0.164624890163756
0.133419352681924
0.128689582269982
0.132805795933723
0.161659911106818
0.12906179758582
0.181669936525379
0.168004329971874
0.152494597875059
0.143483257031017
0.148723667361552
0.148373008299812
0.152094128339052
0.180705728046741
0.179840239043691
0.159078150309237
0.165825743638913
0.160438142944795
0.167620861782977
0.163933663354329
0.171564847350073
0.169452622492072
0.221711527844331
0.195125591076532
0.321801131599687
0.20344195056003
0.183084644074219
0.176585613727131
0.187710024918437
0.210425916351671
0.208587010775332
0.212827266142565
0.202948466800827
0.170783805480011
0.179506931388795
0.174086547140021
0.176726110943517
0.170801445331342
0.181676803120194
0.164461888219961
0.208391439617617
0.181727503506574
0.218950985530403
0.224795968989762
0.189294730182291
0.173129515551443
0.180111044996357
0.169835481824377
0.17208188492368
0.159845594587935
0.18198605452851
0.186530816260008
0.165111119762598
0.167556041577682
0.163943549239018
0.187580743822297
0.192557553060102
0.164305695421213
0.168268705940953
0.153328458447481
0.164704261864257
0.15565656040688
0.172476967473919
0.20176400993044
0.167625289854865
0.152788949429278
0.15206065260766
0.15048992800106
0.151144338170039
0.143132662320381
0.15674613806904
0.14919697297229
0.151860128077646
0.15552180702634
0.14916039549802
0.145693038116232
0.146708909078983
0.150964888996814
0.147779311693883
0.144878677737375
0.146305416061612
0.143961527050145
0.148551576058594
0.142745006110699
0.147352679359706
0.143569208175934
0.153162503054562
0.144362935247067
0.144670119036151
0.14050253579096
0.144885607646423
0.141864674328998
0.145681220617955
0.137091623327105
0.144157797421758
0.137044282684692
0.14207333564083
0.133280568999172
0.143422126488028
0.137629446631501
0.14493484743287
0.134624529917847
0.141628579832674
0.135324874413635
0.148486395581339
0.134749589580734
0.195340057932139
0.155609508595611
0.138803520805814
0.136670633669066
0.132157837927207
0.134975357081206
0.129272305140946
0.171778672604843
0.157329764769291
0.131072067404453
0.129930217603597
0.123333646495701
0.141891852981591
0.134301628431269
0.119376944973163
0.129314191428392
0.121234951027384
0.153923906235259
0.186841046218511
0.19857503425479
0.206821427568626
0.137085107523284
0.122205540912893
0.124584789267651
0.159928947389234
0.109789867816002
0.1271400290839
0.107701116028866
0.171643179469252
0.128127717445043
0.114844521455576
0.111457353205738
0.110904156880163
0.14414824324301
0.144947825230445
0.126185316747832
0.143522179921047
0.157410498962065
0.137312210933624
0.176939583054929
0.17818921180416
0.143983888813269
0.106816053002656
0.112548969620739
0.109835339693036
0.1082025288233
0.176166491689974
0.112331914402403
0.127596211953151
0.102171328155069
0.0993829734626741
0.104227398539666
0.123482787414462
0.116116049257617
0.109927033746263
0.150852861872411
0.0940312792667382
0.123187438495973
0.122131499521164
0.150865750124162
0.152609900901805
0.108380388136283
0.0976303587436648
0.135646813105646
0.142470122897471
0.105748417855178
0.116651744328807
0.0858542362459754
0.100249340821144
0.115874900835429
0.0945912788311143
0.120874985434105
0.117940406647818
0.124835939105851
0.171655070645186
0.154436872280218
0.150724829525792
0.10579325407465
0.0896101914593062
0.0939992537098489
0.094642933220855
0.0994027627121026
0.0873814011162679
0.126660225331598
0.104200761621605
0.0898915944368335
0.15463979077649
0.100994525862347
0.0914376030880361
0.0934811463881074
0.0920699034576052
0.103671756493452
0.127897473968669
0.146037580364983
0.120563966224913
0.120637014472696
0.134047515561776
0.102451001089556
0.11073439170777
0.0992955925557634
0.110062395362903
0.106892201601919
0.127874660347338
0.114133187804647
0.119273843714498
0.116328745251071
0.123178958271835
0.141608312704527
0.161116042750428
0.12029159019772
0.183387073241829
0.149476814068381
0.21114577827529
0.155484307030814
0.146096032388226
0.147325541166237
0.146636885240449
0.152411768705915
0.149224164332224
0.160680071345718
0.196983737610278
0.15113312094371
0.169984992216586
0.154847750437369
0.172837830217866
0.161907271509164
0.210984896402482
0.18493817673277
0.236988065261339
0.222275929568049
0.198962304575914
0.189472487930498
0.171615250854311
0.185484747915227
0.179209500898935
0.171828327534236
0.175828981451221
0.17173556818884
0.208337812633889
0.179944705204965
0.185154900253413
0.177651025197041
0.182206471577802
0.181393528171027
0.18618449415537
0.180067331489848
0.187012164218015
0.184302899946001
0.196914372631758
0.178424621626722
0.273858184063959
0.208063678209054
0.202884203910494
0.20135246460118
0.203751856774438
0.202293923699393
0.203015669653532
0.222734031009618
0.21229988162062
0.204618615405233
0.212883390415709
0.204449463490922
0.219308188391748
0.218852833986966
0.24689204326125
0.207100245529406
0.2250439248863
0.204012737879263
0.246674429654616
0.265439648775101
0.235682877075494
0.242292339908456
0.229247732211857
0.226729821889504
0.219167185157923
0.221343414402423
0.223135749977635
0.227314334677075
0.225258917407582
0.224063157672336
0.21932728954812
0.220311297658927
0.226462225898446
0.221706044273302
0.24851507131561
0.222132526554731
0.225176088693682
0.218930498410325
0.221664243648921
0.214838176373991
0.248392708988046
0.236162887464435
0.229746737098829
0.231630381775817
0.238427310459142
0.24435227847171
0.238738151947906
0.214249161523953
0.227988533325922
0.218349368256627
0.224310541996082
0.221347892830463
0.231254603233045
0.25635224983654
0.230991387224977
0.229064485772323
0.221113769026684
0.225911563848961
0.228024327370582
0.230389034348182
0.226803757008634
0.234329271481506
0.229344099927296
0.234999954674516
0.232024655916312
0.233759801790085
0.247926145306592
0.244636807031091
0.245881129229704
0.233453101005393
0.23211463344148
0.2299348447808
0.225094232317131
0.230257857666354
0.223475703139577
0.222839909189097
0.216545582493686
0.21945176443889
0.211919312860905
0.253383740870097
0.219395499858393
0.226350211765282
0.212798748914729
0.205449899425881
0.21060036785849
0.200455172496435
0.204497167265032
0.199741222573254
0.206061338465346
0.194014309466999
0.198748219723542
0.194131988838937
0.195652865214677
0.192863525921856
0.197084096127399
0.193257135604968
0.197345105050107
0.196205910423627
0.197113022855704
0.193812745566477
0.19382992659306
0.193197355492668
0.191465931983567
0.207784370550443
0.211168732641288
0.212282299538209
0.201733958897899
0.194579971689827
0.197296884945045
0.186924051286063
0.194390709040019
0.18416458822872
0.194190009964164
0.189188111177482
0.192329145320711
0.186988887655436
0.192225479173505
0.187172012895693
0.194049637090306
0.185176529429456
0.19129249461554
0.187359042535181
0.188938221644503
0.187584604353985
0.193673214278936
0.187471307084541
0.199194043331532
0.192176510191373
0.189658704083153
0.190588448992541
0.185686845994036
0.191805218411933
0.190229299355189
0.190994755655772
0.188485878973211
0.184449641390008
0.187071016323482
0.183620190447825
0.185011189353112
0.182998111256076
0.187542256803202
0.182572510812641
0.184957147382248
0.178356198690316
0.181612949689147
0.179061341692203
0.176335828840942
0.17449538735796
0.172801915794976
0.169548195764482
0.171949556318245
0.168751052325172
0.166233528808572
0.164287234573912
0.165723070647987
0.163305490526948
0.163843532488653
0.159506474678057
0.158965133922486
0.161435119091234
0.162880972630116
0.157718746528123
0.156593015777068
0.155842239662409
0.157737660414028
0.157121150290867
0.157306868148516
0.155921643336359
0.159417497496498
0.154568764265648
0.156929037769586
0.158131826234753
0.159228763473692
0.158576539573227
0.157895686917586
0.159145077711513
0.158168508235397
0.162917964866823
0.162163025553179
0.164478462364486
0.163183597681302
0.16519235453931
0.16440338428734
0.164581738841185
0.167080335554608
0.164640035286873
0.165445369848891
0.166778761388138
0.168532468225181
0.170133613535112
0.167754880777083
0.165467147927274
0.169717522366244
0.168099871234149
0.170535303296564
0.164333165884944
0.169529385796643
0.164469914236934
0.167028677680018
0.164672612415853
0.165000076799793
0.161129125680681
0.164317410631947
0.162017201976724
0.163087213576288
0.161520187458672
0.161472560043632
0.160262303551649
0.159911789728948
0.159214733342807
0.158688298429806
0.159198334537881
0.159371914235475
0.156959434849742
0.15611256366502
0.155919139717698
0.155403018485941
0.155259716030013
0.155827531234285
0.155463148892365
0.154190706072728
0.15237878375152
0.156098581224787
0.152641915158354
0.154456392664086
0.151890554921791
0.151896431417758
0.151253222438598
0.151177684419053
0.148922025153659
0.152186616678327
0.14853820998546
0.151543827339695
0.14581112939743
0.148050355527033
0.144864406465203
0.146271208151321
0.143685883977017
0.144014103363597
0.142479346669002
0.141378963790492
0.141986952380061
0.139541024937079
0.138731349559428
0.13743814188383
0.134543251525231
0.135945618029701
0.134916737469959
0.136528390019951
0.138288724640142
0.137807431060874
0.137505769690659
0.137454510046751
0.132807551626608
0.135633691991978
0.133535572211967
0.13497332634063
0.133816819899609
0.132748045762708
0.130923028302355
0.129051066625595
0.127138423111384
0.128810712915905
0.126581432010494
0.124813717501935
0.121571356581264
0.123764095897378
0.119565736671881
0.123826845699047
0.120670848522158
0.123367151262388
0.12494572497
0.126340261974245
0.128109226739669
0.132258718166748
0.136250928293399
0.141448147519906
0.146534412030881
0.152677285261007
0.159139918941258
0.16648666416733
0.172769512787884
0.181235398080177
0.185472020628938
0.195425012679499
0.204016170864535
0.210127338133682
0.218004361221909
0.224991843927432
0.23344299060571
0.239433500466946
0.246210922636695
0.2537623210795
0.259972508749225
0.267715566110641
0.272943755990509
0.28071158443035
0.283063374417204
0.290177257001899
0.293873196890711
0.298849215034781
0.30245577493359
0.304661501737779
0.307261074981386
0.311272182169047
0.31580429241748
0.318237065016699
0.316984875618966
0.316634008552981
0.317797389193796
0.318243350896416
0.317232741848334
0.318120006670257
0.317860988082905
0.321447109218138
0.314864400287265
0.320357418125309
0.319704424647817
0.321681769437162
0.319551448370139
0.323541377703702
0.325283305570491
0.328543474117243
0.332325500769622
0.334526423728474
0.33423233138395
0.336443616803834
0.341433529130397
0.347751191888819
0.347011796404056
0.352321642495827
0.354057539898162
0.363123882324381
0.365836345346099
0.370200506592775
0.375051469266932
0.385407714762622
0.388621269882607
0.395125661667057
0.39827600340419
0.405442697004621
0.404391320057147
0.406809227368068
0.412221951481328
0.415135580730907
0.411819270206039
0.410667751012615
0.411155822702167
0.411468380565703
0.409324657965777
0.409994162671655
0.405053410266036
0.40823442823171
0.406158148033558
0.404062305233066
0.409189986135531
0.414951296462156
0.415854422989119
0.419964221201865
0.429494544468538
0.439758883707999
0.446068167001426
0.454588089413541
0.462663126205331
0.4747822163908
0.476012851374978
0.484435041305267
0.493713501512403
0.503042962699245
0.509795744461694
0.519870229875172
0.526997325677735
0.536819050070637
0.539726226693488
0.550836204104683
0.560695659444905
0.567317795094461
0.583536220903288
0.592728655282205
0.60217638098914
0.617124292968594
0.621299994404391
0.629507979070384
0.645239900214612
0.658903923415764
0.664265557553871
0.683789491740742
0.689296986623192
0.692414635141201
0.69695330878713
0.711311387994745
0.707742490182084
0.715206051348803
0.725995843467195
0.729503406022528
0.729537540691711
0.732304725546831
0.721473388768075
0.720295470777544
0.728282015900317
0.719631104207209
0.724479434200592
0.724227701193796
0.718666417570145
0.720267163730098
0.713976591993669
0.722484303563539
0.710721041596517
0.725036935180059
0.728017396537552
0.729897832067167
0.74109321123058
0.744952097142971
0.752976021688724
0.750340507294042
0.754297632872145
0.770243106457455
0.762605667756956
0.75995106627049
0.744874702833496
0.76084193564829
0.769451536685274
0.761723215797379
0.747758119588259
0.753147101339609
0.749923558392974
0.749134204545708
0.750506918518628
0.747376935973819
0.743662463027488
0.744612510808787
0.746795728225547
0.834337084115938
0.915182663855363
0.832896175638206
0.778001949446262
0.749256332943046
0.730173087044875
0.728198941659099
0.726556506316118
0.731862544226779
0.716233550567176
0.7271711961278
0.702856372672686
0.698067208730353
0.698578356305134
0.700859748771359
0.682511691369528
0.686322815306904
0.663157614879521
0.655518519023496
0.629922285990634
0.630268398844941
0.60272158020497
0.585158312743923
0.56160898570274
0.545575422562164
0.519962198874281
0.505034185356378
0.478913794144083
0.466715124131994
0.438174879303542
0.4218870078742
0.413306034153224
0.398259141537288
0.390071938166596
0.377061005129336
0.375765467460554
0.368135500524456
0.365677592624322
0.348714076922261
0.353500934419695
0.339949752706652
0.346094321658471
0.326414180788188
0.338002136842912
0.318740169369644
0.323428557275283
0.312103242678856
0.310402871933734
0.292731776325048
0.290223715545161
0.283110665349139
0.274180097173826
0.271557401283097
0.258018900005801
0.25107700527854
0.236525554062297
0.230510055857583
0.219550443604119
0.211868527643266
0.200271642510331
0.187645425223889
0.183435195503796
0.17032417395962
0.168419202932736
0.155951203015955
0.150511632409243
0.139782212113477
0.13564388288289
0.12991495887527
0.126684241736229
0.121632962042333
0.119575411684542
0.110838646865593
0.107340961532607
0.106390583889708
0.103862299680073
0.10158575988088
0.101612614381239
0.095696417964406
0.0954739559424214
0.0936548456070649
0.0937436640736069
0.0934767834680677
0.0933208357073757
0.0920370523460123
0.0963645943869972
0.0955999231998351
0.0946009075928039
0.0977461431761204
0.0981682484604496
0.0953014867802296
0.0973359069985744
0.0994002055699596
0.0981634367715449
0.0962768368140239
0.0986780201234433
0.0983201607835402
0.100412425523838
0.0950033408950954
0.0971293022969252
0.0940606667195633
0.0946087205295311
0.0929849832432932
0.0919128985548902
0.0937490857203709
0.0892785557883634
0.0889395882346063
0.0907847000238568
0.0931783695411815
0.0902912249872739
0.0941121780118637
0.0951083797129753
0.0950448032467474
0.0949153141190344
0.0953895570739051
0.0952608690684848
0.095894549220796
0.0990435030061549
0.0994230952552895
0.101305858482852
0.100570495148471
0.102604236482901
0.102890412804759
0.106128264160768
0.106625074814098
0.106044244793913
0.106104435515639
0.107942847342568
0.100581011265042
0.104672544521582
0.106900237595622
0.112918674806667
0.108604429611495
0.108429252826945
0.107760098031023
0.112231236153465
0.109290876614673
0.114142237246284
0.118585202732945
0.116850192918803
0.116311513220955
0.1252358782704
0.127196225799232
0.126327730050833
0.134222670752226
0.138128269532624
0.142621978489664
0.146147983855364
0.14581770633794
0.147762597410449
0.152439639093177
0.152333669734483
0.146586843177379
0.149299490279091
0.148264236037434
0.14474840895753
0.142696257930299
0.144126746687224
0.137612606916303
0.136561595967077
0.134674038885118
0.132577190990868
0.130861937054197
0.134438388767364
0.129468060491438
0.129979327306158
0.133844106958088
0.129827356563795
0.134283335082598
0.138070008890951
0.131987056513634
0.127391984574045
0.12568923851169
0.131196060106645
0.126438516585774
0.126815206916576
0.115187497099545
0.1218044538786
0.115744723551752
0.117329807575225
0.116563971117237
0.117243723120179
0.117526261048504
0.114578995465477
0.113109887302454
0.110586052556444
0.111398907527269
0.114175527076475
0.112169232697733
0.118014568648245
0.110261622833981
0.109954871481376
0.108547257316719
0.109574684761983
0.107925613024772
0.10651550802784
0.10455284951982
0.10788407661455
0.106973246845721
0.106361941624065
0.100210552271948
0.103979134502133
0.0946225483794822
0.103231065340944
0.0959185019949049
0.105389461904819
0.100740662269333
0.0956010056548219
0.0932170120695129
0.0947223543842778
0.0969155271923497
0.100627686278311
0.102293557717881
0.10064883722489
0.0962652531013213
0.0977745535718414
0.0891884637715579
0.0963343796788009
0.0899143879336025
0.0894524200439911
0.0867112507998214
0.0945667832610436
0.0914407756114175
0.0929009624912374
0.0942931878974058
0.102501858105185
0.0959932604643844
0.101517621572601
0.100376179320759
0.101190256764448
0.0951224645313827
0.10034099920346
0.0964912625543673
0.100520842425735
0.104670217595372
0.102259063431968
0.109964488124755
0.108563036569267
0.106446291332464
0.123093845294709
0.110732198583216
0.109789724921251
0.1050824620141
0.123452855164121
0.109362288065721
0.10631173020774
0.113407398919979
0.122027508323606
0.108588157273468
0.124755024679038
0.118393114797473
0.124937300767393
0.12599516994718
0.139305455669199
0.140853823765368
0.143844872560388
0.143597215211173
0.145466704131409
0.143115284764024
0.157401505361506
0.165467734091546
0.180569269833431
0.17100178803535
0.167816835067458
0.171877265715667
0.194652820280091
0.187073627735023
0.19548025259022
0.194266013970467
0.189645101605389
0.174538485634724
0.190397846689071
0.185964382061787
0.182508148531079
0.191013933657669
0.194624801745981
0.170352971437472
0.177368158430246
0.178850295382562
0.187533574866675
0.184762098100825
0.176066528826002
0.168964015824187
0.173957639958381
0.159872553318587
0.169318304784488
0.166937923899659
0.168421176846449
0.166569306407428
0.170012759822218
0.161144587133492
0.158891398484448
0.156866581130738
0.17016914514648
0.153818341373526
0.149624957334889
0.143583227608836
0.167960674257567
0.144741437578094
0.148811895267623
0.147513759117326
0.152758740566353
0.153826682135145
0.146146546042947
0.14485596661123
0.158541153661723
0.145310925727012
0.143345524484076
0.148245261820376
0.155087770233839
0.136455795285802
0.151296662472215
0.153670677396216
0.169304695102181
0.150469451741815
0.144403453119754
0.160092323387283
0.155628334518017
0.157281700915811
0.161253624368603
0.172169550993137
0.173185469247538
0.157657013533586
0.146102800369758
0.150127611766503
0.176724186117782
0.169471782906724
0.172602618262777
0.164269441344728
0.154290148869278
0.148144143525925
0.181827753061161
0.145459391897905
0.172518123020914
0.173512434764345
0.185493822046373
0.155861233079709
0.217111434569875
0.16787051535444
0.169457780398764
0.192703573131165
0.200795843700473
0.190045682951028
0.199103124165915
0.198720194311826
0.21494322503887
0.206929078148817
0.211706852147229
0.205131451884622
0.227562363616846
0.226400450669756
0.22388660550783
0.190589494659593
0.220166270855341
0.222730483961915
0.24059250794133
0.241834361968217
0.225065953909713
0.208108131393514
0.237987771493849
0.224173674879294
0.180359736724918
0.201984757516025
0.202518241300368
0.199234428350485
0.226710131417169
0.166749860075483
0.177885948068253
0.16498712484517
0.193692773824619
0.193028104700912
0.19824636891364
0.214672642437202
0.24142779604381
0.179714903698783
0.187643815980307
0.132643997931182
0.217114193424878
0.236624997320307
0.198024161202053
0.158902632000812
0.265260547848722
0.196482795436281
0.315777642047995
0.208787363736875
0.219401443870358
0.179365803992765
0.230905635463853
0.208553530914241
0.261272247673967
0.263616800091461
0.163048653155902
0.318427375374425
0.32448896445854
0.19265731443666
0.155479773537522
0.163737583673158
0.167262308711141
0.143055130428512
0.322752369513801
0.22806826921813
0.301674611339565
0.155688288026633
0.347532955345643
0.200911671027709
0.220117157410458
0.178445328151599
0.336931290544507
0.371956521995161
0.229458889087363
0.19623372198788
0.222069732102146
0.36229544814458
