3596
4000.36533379555
650.420452594757
1
2
2
0.0837460650083795
0.0914231618672604
0.0833125151699398
0.0919908239166083
0.0891654449173616
0.0929864815777918
0.0766885867877597
0.0954522232230223
0.089571193134943
0.0961099471220323
0.0766784744530609
0.0913319869543931
0.0694800125212517
0.0810882998523798
0.0770570517925819
0.0938867229931448
0.0795978329304245
0.0926798247223935
0.0845762855139812
0.0996416795793364
0.0786675517533783
0.0958206075684946
0.0794187000220468
0.0884412152831861
0.0872574098473181
0.100534499794765
0.0813876295529476
0.0918003337761374
0.0852027250790173
0.09012835693498
0.0766778801303624
0.101734168682048
0.0846598132762011
0.09079634816105
0.0733979451558374
0.0870454024523988
0.0794801100982356
0.0955586739382654
0.0712007319979838
0.106411700613374
0.0876936364376549
0.0906574711843044
0.0804259256663772
0.0930809882419139
0.0814935449562598
0.0989525632952478
0.0798899772874098
0.0915617908942344
0.0816661924536091
0.0912980814349977
0.0791773060458413
0.0940738455283327
0.0960184367700039
0.0922241088163145
0.0920654440038843
0.10889629796811
0.0851660307437163
0.0878963926182595
0.0836176398102337
0.0899108390655678
0.11446468764753
0.100024406113562
0.0838382274345152
0.0961653641948178
0.0840121458495726
0.100991724314761
0.0750269356086516
0.0890056893473642
0.0733252730240591
0.101331345459104
0.0807071089367204
0.122677554444504
0.0879109450371577
0.0927351957946524
0.089453009069191
0.0852551353661619
0.0778780506308702
0.0898732051426208
0.0708380146676252
0.11345013737589
0.0902388538785729
0.102929485688308
0.0821987829800104
0.0837220487793788
0.0942830506242215
0.10896995189478
0.0661226776033678
0.11000545235059
0.0977557498025199
0.108525376288775
0.0765845099244194
0.0892534030829803
0.0765183319096355
0.0894275975389036
0.0716248705265492
0.0952843133684418
0.0693614367230979
0.0972916603270732
0.0653378145921069
0.107116080135016
0.0884841138036464
0.13853607562455
0.111222328086851
0.0929081664931705
0.138958056111094
0.0950986931717275
0.100752366426138
0.131830636735206
0.0870906293703309
0.0957133451272155
0.0776651356090573
0.0903626035895471
0.0804042200404923
0.102467089234653
0.0631802098214316
0.125709773800652
0.0843334582321724
0.098324375699021
0.0793695235534122
0.0861558366076888
0.058654264849156
0.149215372242894
0.0983672153360582
0.102779177555194
0.0939611194588073
0.0935553120307443
0.068719835184764
0.153004944487
0.0911568664412565
0.08879383707953
0.0690733891071824
0.0960231096933217
0.0640142182975782
0.105581755194327
0.118340139134203
0.0955352293425897
0.0925510556828829
0.0820073696083863
0.1183462194872
0.144273229001456
0.0914662874618916
0.0965543860292551
0.065356482528669
0.11266182862958
0.114443727264649
0.105193781869838
0.0739839733655706
0.121024899449876
0.0803271198854791
0.0857021774284521
0.0705071836447517
0.0892520070860565
0.0947765100941747
0.102486328850255
0.052199962280527
0.196384996124346
0.110363240883417
0.144402946181905
0.133399068888754
0.0850899025912343
0.0884211868491006
0.0846706679646429
0.0846850713112814
0.0799715483874797
0.0770226657778198
0.0717359868196139
0.106584859714408
0.101289522186599
0.0783434759057235
0.107117653800941
0.1193753759047
0.104412991007148
0.0767604874420246
0.158817508706042
0.0732221981606246
0.100515907828727
0.10404134102113
0.0983740829534458
0.0684683257228908
0.119426450860234
0.0946222583007947
0.0900029974356427
0.0769512511475473
0.0801773003175208
0.0925696283578752
0.10891778581693
0.0756608114921996
0.091362237872773
0.0768610698540369
0.0826109786645055
0.113421557922653
0.155078627389006
0.0986131229639847
0.0954851088752834
0.087562184172736
0.0639840484312747
0.128818182066303
0.114491436993104
0.0834045248574082
0.0878323594716337
0.0694446779308126
0.0843336120394108
0.0639395750411439
0.0835991318733926
0.0681874844129394
0.0800518949601504
0.134933547392329
0.0988812290554085
0.0844813445950719
0.0793336530542825
0.0863642312703123
0.0870807832927221
0.148626534312739
0.105011156771972
0.0861265853093847
0.0887789804106794
0.0785121487661285
0.10657720626746
0.087785460426269
0.0809597286533032
0.0738417812842455
0.0801062669188219
0.0798465077760096
0.0823237740468305
0.0787135655427948
0.0828705846058573
0.0736742835862462
0.085265738097634
0.0773544743198279
0.08816521003049
0.0873058729089823
0.0843172828770116
0.0763437775856098
0.0883022520184204
0.0692941636946209
0.115566681783435
0.0950599345486728
0.0911076984687537
0.0720337759490755
0.0773759073140838
0.0731017077435395
0.0840379674547453
0.0711232266720369
0.0813743443804452
0.0762119587757262
0.088908568214962
0.12236764515566
0.0778951363114079
0.0843911634727142
0.0697363932206284
0.117751196463067
0.0909849958891911
0.088865747465631
0.0801610054385499
0.0868248675115291
0.0769627201673417
0.0910347954481689
0.129083548703014
0.0827569263400039
0.0895478800308895
0.0992981705489637
0.097338655764703
0.0811302089385539
0.0912480854899443
0.0815089076040496
0.178670706236897
0.0940265951980033
0.124373885400518
0.141609644822389
0.102119759498953
0.101872417518914
0.0884388515294479
0.07663471383767
0.22023187350467
0.113100756010762
0.0917200684915455
0.0930916039806925
0.118580109802168
0.0733451197606531
0.109548028097352
0.0825161330588282
0.126912227999053
0.113445784919458
0.157001243721283
0.156979197078164
0.0753428716376687
0.147842974437393
0.101113045546398
0.094077525515754
0.0860470506036009
0.0915927837658894
0.0889730772046058
0.109466677039016
0.102593548993236
0.100718414161717
0.0961691676360961
0.0891253508457612
0.130264325419562
0.0911575871653402
0.0927831941887885
0.0932566354975394
0.104597766679615
0.0779446042205227
0.0968141363400154
0.0806438644931784
0.109218363459118
0.0774978801163872
0.113084488408371
0.144924452221141
0.100088288801273
0.0979286028727178
0.128567002169885
0.0834439730656504
0.0949993816325652
0.0867397668105953
0.0888847248972459
0.0730003966345552
0.0849664953199518
0.078454668593235
0.140539625119503
0.0852371947181183
0.10062523777026
0.0797373833502373
0.0919069850033001
0.082563007743868
0.0974092385842575
0.0915843861708334
0.0968703164621749
0.0895290783195935
0.0921939441152722
0.115801117725959
0.133002319496196
0.075308576315228
0.186561812434388
0.109518095665107
0.106025362289813
0.084816316471765
0.0950628223055287
0.0947247311671475
0.0943845536866716
0.0940116093158316
0.101679834520026
0.0955054881212669
0.12398291502335
0.0979461521370997
0.120830112968816
0.12749824408356
0.20289528882263
0.174141996699289
0.122435727011879
0.105189383571738
0.0994509446307625
0.169436115208807
0.136652153999595
0.152832415802518
0.144013819731376
0.102981183558402
0.130284113200623
0.0996891982383729
0.125700617459761
0.0990572803168295
0.127769269747872
0.100662793022292
0.1245878971391
0.111560592355512
0.136242537805584
0.117479584494605
0.153197305221181
0.155143012918298
0.139148083473597
0.122197555632669
0.143472675249153
0.122658026798402
0.195769634639242
0.149743926044645
0.233153160558299
0.168209767566942
0.195952052490678
0.188099985846142
0.15271977115826
0.152707238875963
0.144596723460703
0.153099355633621
0.162550323423083
0.15850787949895
0.166913825753563
0.153471441530784
0.162603667746434
0.159092326774841
0.160931585620994
0.166774672598238
0.171873350437465
0.203038343114882
0.17230001355567
0.181617653285685
0.180659675963081
0.209875791466188
0.267177505216901
0.237794641967113
0.193924110735842
0.200438746252929
0.19267728964275
0.189794947970001
0.206439331448973
0.183990082776615
0.222219664454632
0.204889666704346
0.275696732458026
0.222369746226514
0.249728473434986
0.230513761391277
0.215243774515746
0.245736893405248
0.238947281805493
0.245258175499336
0.265562182842154
0.222163040660914
0.242949516595058
0.268195764334817
0.271497564016869
0.244997624444579
0.277491576653343
0.226055908980106
0.258155116345009
0.242209569775451
0.275679213232813
0.245172550770873
0.27711925422288
0.259365759344846
0.277911735119024
0.265222525870967
0.286237729100398
0.270770584262759
0.311402686963493
0.279945383501125
0.293960863050264
0.296780665626105
0.290090261944941
0.290061797099943
0.281347424571217
0.326803870429245
0.345940783507101
0.335652939427478
0.342527842553882
0.289232291846197
0.331490526909073
0.313374482111354
0.329822038605113
0.312291408461291
0.345019794660441
0.334156761941249
0.343382221106434
0.330175433298349
0.356690252778739
0.347923694877842
0.360820443059584
0.345374292821969
0.359641272905946
0.358081279269011
0.373110054219896
0.369045901880231
0.368417594468281
0.42163967952834
0.4275481451358
0.416773187494461
0.444576181045855
0.381669105324414
0.411978118008518
0.382498352745447
0.424607539634437
0.397478852857385
0.448478045301684
0.414515042225492
0.439711922030478
0.410938037181845
0.43580832964031
0.429699393618747
0.462543501750259
0.436116588587172
0.478618742809405
0.453288647324975
0.465567087930804
0.448474258269709
0.474576995553996
0.457864567550337
0.509360781888862
0.472072758065123
0.51752606492714
0.476662396550294
0.51883064901592
0.495264138587215
0.501997905347976
0.49980627312866
0.513010765596055
0.498798403004887
0.516275043645049
0.50656467222838
0.549124631206846
0.541031668972493
0.557499322754436
0.536303786329671
0.57234249438241
0.560326387257036
0.571688019705419
0.5607879020898
0.599274485571722
0.578842938235112
0.614748382235117
0.564077940567611
0.610284863062072
0.591944243524297
0.615187660958746
0.585680256453398
0.600300128914187
0.599676985671643
0.626201054118184
0.562730254250001
0.64209510332586
0.597125945859093
0.64739382534584
0.622038556296363
0.650938159904461
0.636793314936282
0.666584374792862
0.637686476976154
0.664591002256617
0.666598031220227
0.6678509737097
0.671018037820315
0.721833487806511
0.661285722934657
0.712283816962115
0.670941613387294
0.728266106275178
0.708227864630927
0.726590703530678
0.711531583890083
0.753251174213475
0.714752610160308
0.756586344196302
0.703066193010009
0.733443755169458
0.747937151168864
0.776365412353463
0.704826901772051
0.757460892351043
0.736020391800044
0.76069438460069
0.746801297636224
0.805246421047689
0.741671419413481
0.840190400581751
0.755082739389544
0.798242953954551
0.781970573100747
0.818926182904095
0.785356404429655
0.815136195927304
0.795722749171818
0.863316884479713
0.806893147913053
0.86207644820723
0.824610326171995
0.901685266371518
0.825133396107785
0.884140864861938
0.827035870783669
0.890581885337768
0.798564650381068
0.848069058850242
0.871741450282098
0.919805676550657
0.894146277609454
0.912609035984343
0.90269294838922
0.983644174957938
0.886604921725662
0.917160880306829
0.871685267221992
1.01127544410868
0.930416360550873
1.01626945063406
0.91836095947982
0.993875250786603
0.955004446944243
0.99481234402366
0.963320456273283
1.01731578225185
0.984116696125289
1.03272475646404
0.948866902024219
0.965187688554868
0.960699168564641
1.0850496275494
0.990749254245406
1.02852603341711
0.941739376614865
1.02627952790756
0.997924558274301
1.04823920386112
0.927471827839354
1.01989867478392
0.971145228023865
1.03729485551571
1.03358964583683
1.09549572388959
1.02818601942318
1.1236165745192
1.10917646885312
1.1575019739164
1.00298695935332
1.04391075730795
1.05468056855393
1.0962284680915
1.06672227637662
1.16750795110435
1.04603187335476
1.07988147989265
1.12333187349572
1.17066492106549
1.08761013571716
1.17107854585178
1.0704891036425
1.10059323075974
1.09484558345631
1.11973131055105
1.09104170511362
1.14629109671691
1.09492607615046
1.15186839699569
1.15656418513516
1.2056671659096
1.15049859505205
1.19778724959434
1.13778654408346
1.21180408522695
1.18890563551986
1.26630663477508
1.12516614881189
1.23031695081558
1.09095285241704
1.10588611482004
1.14245255743405
1.29136359053052
1.1895135408624
1.25285278493022
1.20108643507965
1.28446763544762
1.27301193564229
1.30538080814986
1.16764617933442
1.13360721020235
1.16597742365702
1.29786115653752
1.273491491319
1.30492748618885
1.27533469877646
1.27772032654722
1.27535019685182
1.30385644262152
1.25352604167483
1.28994576468429
1.18853818299962
1.20089970669963
1.27881391889616
1.33328614135533
1.23786558866948
1.27895269523613
1.26638794642307
1.28154316398641
1.20322362605892
1.3257041418396
1.29039466125898
1.31646782135974
1.24316367638491
1.30680558747791
1.21001453405445
1.23353224417462
1.32566521538021
1.34335681492779
1.45393607929354
1.39120298821714
1.23229845708339
1.33526829062632
1.26648546045454
1.28565364328466
1.22656271792978
1.29243103762031
1.35769589611842
1.3480973379308
1.28628730898062
1.42076369003685
1.31788735206666
1.37639245927667
1.23933153656735
1.34521436196792
1.27658256853373
1.34702188830879
1.33556235249306
1.43676479252092
1.42252921443934
1.39554499149986
1.2583427955193
1.29404179746269
1.30350007065368
1.39408688198268
1.32923427755478
1.30773182880915
1.23636176497942
1.38429371836474
1.34313177396493
1.29137491242901
1.3131959859357
1.40925482151778
1.37682682301687
1.36012039377511
1.30991563493916
1.36126775467752
1.35496535710674
1.42476349789361
1.35138654855949
1.36848385491431
1.33473715496392
1.30286096265003
1.28629683769668
1.31958269157452
1.4225746948507
1.3011679380136
1.30919956762116
1.30752684942533
1.3188777326908
1.41928254777175
1.33289549324621
1.35725134410957
1.3586686233306
1.35494451927065
1.33114315589877
1.35103529824043
1.35804403129966
1.31924020710018
1.27177981479006
1.31013564006852
1.37245202405173
1.29480359586754
1.23330812835471
1.32376045985201
1.28348063771266
1.38499784283506
1.40613246817635
1.44383792486154
1.34532284988856
1.35204849239175
1.29585300780922
1.29482712454917
1.35052215260914
1.3047173515594
1.28170255177317
1.34839580087684
1.28833844953546
1.28491740930586
1.3645958495219
1.40214333053609
1.28985715179119
1.31279325998396
1.28318213244858
1.29586306857146
1.28110997310513
1.33001010607006
1.24728566116514
1.38831916289985
1.31492081677729
1.31186559013969
1.39969801858152
1.35228059367965
1.32512784528156
1.31231716611775
1.24632894121813
1.31090406294743
1.31344148272686
1.33603986241188
1.32824542956502
1.33197921164113
1.27720760961324
1.33619729196956
1.28282828352563
1.30740362238127
1.40716058090198
1.31586649945443
1.24181310372759
1.33588927573703
1.27525380445674
1.23916604518522
1.29325849704582
1.30636272628695
1.31975664364797
1.30714385480234
1.28327697674373
1.26592019556918
1.24060376047508
1.36772315417036
1.25034957388431
1.22006598924007
1.26039770404713
1.25221250196939
1.25108647759903
1.26018693345539
1.16912691797652
1.26109485728525
1.27640705005918
1.26318813901193
1.31600390283097
1.28728796413543
1.23796949246557
1.26129896285789
1.22719983435079
1.17184030510452
1.17669777110403
1.17396761071936
1.17877717872224
1.20000648747315
1.21234740605324
1.24071446216108
1.19661201915239
1.22925146125302
1.21546146665867
1.20133258950184
1.1765605995242
1.16642708685879
1.14237251865871
1.19972065577168
1.16365328504487
1.14522240419895
1.14256030576259
1.19027369574907
1.21843245266687
1.20781950580776
1.2178709916346
1.1990678495157
1.13905817503444
1.14080441669384
1.19979115130014
1.19042117378356
1.13943452531828
1.18321299851931
1.14157825458122
1.15028651253665
1.14022349587916
1.18849750489966
1.19403737065324
1.15242164676492
1.14537016032661
1.12827496178607
1.11510744473763
1.1085122236858
1.09595663453616
1.09547753251184
1.12633877870605
1.1397097579528
1.04480550013378
1.08639519603762
1.11406469674407
1.08033091906574
1.0714599529811
1.05635364467935
1.06334741663215
1.08072241351802
1.06947625515883
1.04455956275101
1.03313599535744
1.03356453155527
1.03039706692293
1.0789609752259
1.03483372998811
0.997995513280208
1.01215454949109
1.03466958467535
1.0423314007528
1.03115373215854
1.00871119174435
1.00321396597242
1.00311286991661
1.0039345982842
1.01237789662054
0.995971598239367
0.959042585061608
0.964923606219255
0.992822946797041
1.00259639644401
0.981303368072506
0.971183205846224
0.962970271559369
0.968162666032005
0.968212150329326
0.946251168336664
0.943881236568219
0.954417909726817
0.942107862368577
0.963892579149335
0.935122103352303
0.911387059911949
0.917796790504274
0.920040095102749
0.90059850016176
0.905889953390502
0.894060182429438
0.899550056946562
0.891252171993897
0.885471209109163
0.879804167677536
0.876782105646905
0.887694582836719
0.878529751669582
0.865741601114927
0.87823977839885
0.871258176824499
0.853125722454476
0.846015497543269
0.843463727535087
0.858056223286858
0.84954627551677
0.822624736937487
0.823443220824488
0.82733713671669
0.826423582489281
0.826663015700772
0.841566624993269
0.832039834759409
0.816154902883546
0.804419097076462
0.813864485900987
0.808066488365837
0.807495727533367
0.790841609814984
0.777205000427454
0.785674392127856
0.784712438358084
0.772289637541702
0.769368327902354
0.748369969481205
0.754253757924605
0.772330321592787
0.745818136693242
0.748842900753994
0.753682006029804
0.728532766103383
0.744131799924947
0.733868049633462
0.727005790012537
0.745760515697239
0.717685190917567
0.714856233330952
0.719363736299312
0.712539943978986
0.717422932207109
0.713414096470271
0.706022150852056
0.690622953299942
0.698627794917373
0.707316212922973
0.699989493543074
0.688667424109087
0.674503861693372
0.686952585281831
0.688653013134219
0.672811336127928
0.672643645093484
0.66247346642133
0.662429808776072
0.668446505312177
0.655506015671814
0.653182805809956
0.645737672091509
0.64057429247667
0.636692161657351
0.63832161312866
0.64718902900426
0.656458063716953
0.645447426538826
0.615435146628734
0.620158370160958
0.620083111960143
0.613479873459478
0.617354681407601
0.612628591396586
0.598670931010087
0.600996822039846
0.606305418745815
0.599222143863145
0.593677601222558
0.59678603990135
0.588095831237859
0.577797534724472
0.572843869454077
0.57903857408614
0.574281647248082
0.582875725015866
0.57631130916221
0.572945284597532
0.569182534678688
0.562941230816161
0.563433057291685
0.545632027429526
0.554137705039961
0.558365208555996
0.53867076176168
0.549609010998616
0.56198877905426
0.547443398258061
0.543829386916967
0.543739742766261
0.537702485930436
0.533388952914447
0.52135315400011
0.526450831033251
0.52928961820466
0.516381705764595
0.513537913612534
0.517424855466384
0.509238551929205
0.511640565828419
0.506157588396621
0.502480478414023
0.505680350870412
0.493841658791655
0.496001877130752
0.496006979906667
0.486099709195798
0.484165929198248
0.481632915562879
0.489523079158217
0.492058492888982
0.484366890887326
0.476245262252132
0.475272960208037
0.473148476724879
0.472217540617021
0.469306826973773
0.462274530135666
0.468599822522472
0.477570754213064
0.465489300252435
0.460696247249738
0.452741590711019
0.455178941177751
0.450493619120043
0.448791523829728
0.450390326311699
0.445140640193181
0.447616759849084
0.439154922744693
0.435660639163656
0.437392879842047
0.432381121038218
0.435819526286614
0.429663777557378
0.426088228975972
0.43069146843046
0.425465851210465
0.4294473516853
0.428023140256394
0.417762632678775
0.422218317198037
0.429887928479453
0.423796365374481
0.408921365832829
0.41488451075533
0.419279967460629
0.412141055455934
0.409829398753482
0.407319305024721
0.411361442560281
0.411113581549579
0.408305029041694
0.413149996435342
0.40594023358922
0.408633129829303
0.408830413379954
0.405181760048328
0.401112269060091
0.400233351005315
0.401253874540092
0.408508559741153
0.401603846979564
0.402782669470681
0.403550929626668
0.402110192213676
0.40746235725409
0.401878555416364
0.409231938014561
0.411995579492266
0.407598213408476
0.412462713948071
0.412957842688986
0.406665004279325
0.409216962554515
0.412575374267297
0.416773900224819
0.412067737392497
0.411529261124129
0.416228388911055
0.4239620465225
0.423049800416143
0.420527659753954
0.420673051453229
0.42623070271794
0.429549763851694
0.430656475320467
0.427904734932978
0.434080195321524
0.437910296588568
0.432676283641536
0.438159118209599
0.447970166396142
0.444476855891749
0.440256444609667
0.435455054604107
0.443351768609034
0.456898989318791
0.458600306015155
0.457016909124299
0.456730479033391
0.451829955223667
0.46406682572613
0.466172695162318
0.475009051264166
0.480039370758581
0.483141967380051
0.478556206991282
0.484598925209269
0.480822887350665
0.489234209444274
0.502132465880872
0.503310078094979
0.501910622230578
0.510698970444745
0.506724695241968
0.518734634168009
0.506827672078201
0.51702984389327
0.522726660749948
0.5197343981417
0.535494740991784
0.537757937593215
0.527993170559749
0.536844336041924
0.543408668368923
0.535143820412905
0.534574620639109
0.537748108481561
0.549919267162537
0.556826217184745
0.541924697079064
0.548458426469582
0.545397984037669
0.550056828264362
0.547582099414211
0.548310579997046
0.547128177313967
0.551273778004332
0.542168735796124
0.553263203018288
0.54522330632967
0.533023419663857
0.533478596360994
0.530623334865927
0.537049351523081
0.547401379998852
0.538658464434038
0.530394418227455
0.544095608575231
0.54329115771167
0.527233850478377
0.537841288644009
0.542379848700107
0.544654431324993
0.543010066206725
0.54496694740329
0.538504792725724
0.541368904007782
0.534850496135197
0.534680751826917
0.539931187841968
0.54193802725696
0.534563226405698
0.550333706472702
0.547448299829288
0.553349609519244
0.547735933989466
0.543817085803083
0.544384966686767
0.545664308394787
0.546038333302927
0.553618869399079
0.545972057619562
0.54386816052679
0.546617008740709
0.541436566815548
0.530588140528691
0.539721809860768
0.537161245511949
0.534322466986261
0.537331165138424
0.525085913836337
0.530322242436885
0.529099798967667
0.528988594619614
0.53121402345393
0.530083908751806
0.528117675222047
0.518967963546841
0.515846492942256
0.520644459025302
0.511329180225379
0.502571173114836
0.506586644205857
0.505370766838853
0.501805577712387
0.494421241421666
0.494801513042742
0.493962860934188
0.485800789336227
0.482867930958457
0.479579649437633
0.480707022356122
0.480504466807152
0.47275922569161
0.472717092690239
0.461211712307214
0.463947121490779
0.460527801310143
0.458759518916973
0.452751751900675
0.440010856511016
0.44322879020331
0.445708342204723
0.441841139035428
0.43430666889022
0.423394547164235
0.4307705434189
0.424485725155069
0.424170202865803
0.420772892926135
0.422181329254528
0.412666262360019
0.411487607869806
0.410579938538548
0.410636049209254
0.399626702882222
0.399504464293014
0.400255798762058
0.393016840045463
0.395076890716324
0.39503207866193
0.391741723057488
0.390045957983341
0.39213022556545
0.389566318547279
0.384236075092053
0.385482536180196
0.376935727967853
0.376292415108511
0.379064798832315
0.374606093681208
0.375600682172138
0.379028609314279
0.364587492776342
0.371472400541289
0.369094368728272
0.369339009011932
0.360896782420045
0.359020477047416
0.356459443807795
0.357445567241852
0.354227812429253
0.354202179302613
0.357003688371719
0.355199491940671
0.354905917187365
0.354258853465722
0.347946491332402
0.346694255837623
0.345147375330978
0.341426839640302
0.336318440763042
0.343419102654784
0.333538880500275
0.337608164713209
0.339639146959456
0.339165636674407
0.335351650698376
0.335893377296208
0.333755398500973
0.32490148074796
0.328713008288322
0.328567081481289
0.326987268228019
0.328208209873601
0.321443996711421
0.325512800316517
0.321026024271589
0.319602388395355
0.31891445774172
0.322568904808521
0.319707954445789
0.324682395289962
0.316867758898714
0.315081849422419
0.314494423903987
0.319789541443187
0.312115661284739
0.308422880364848
0.312323439651594
0.314889653252899
0.308232556654388
0.311971047519054
0.311260978461838
0.308084887846966
0.308838705179797
0.305838967245468
0.299101529757749
0.307423026459726
0.304284722715764
0.305012614003554
0.302479048286658
0.301440199709374
0.298958670436947
0.295511005862625
0.298116557896319
0.29285432073218
0.294500828469358
0.300293956169015
0.296380054591514
0.296689278768276
0.292767470224185
0.288199877164135
0.285955502584164
0.290340501318685
0.290438323387695
0.292046213434673
0.29278235212691
0.288175214722452
0.287170563937236
0.290569385935823
0.286333835025297
0.287192460931351
0.285340684915676
0.283280654876287
0.285265810143447
0.287266383860901
0.28675866436159
0.282410541935967
0.283883434362657
0.280018755580878
0.283523292360885
0.285056846544412
0.2788842538984
0.276674880660684
0.284091251381994
0.280125327678906
0.279935924069602
0.280974040717502
0.277500349906458
0.279805088639887
0.276268027890431
0.276068463039302
0.276841396301424
0.275332366020462
0.277652334616331
0.276535831534389
0.271734426255001
0.277523868128367
0.28044977869214
0.273733122905029
0.270661935064724
0.271717154629207
0.271063600125918
0.273784929220411
0.271617556203086
0.272455662965917
0.263830177522709
0.265877966746133
0.267286539368392
0.266883950867405
0.266061450806535
0.270094045523002
0.267376129808913
0.264152970197839
0.261306557266277
0.268156931094664
0.264517981718791
0.25941681815587
0.261781620698773
0.265167976212107
0.258958399855707
0.257182491642703
0.262586729086795
0.255007515048413
0.26172964611869
0.257938755367778
0.251957440175798
0.259123294393133
0.251117991465866
0.252295751672825
0.255953500735551
0.251885108320728
0.251342039875485
0.252786514500484
0.249741102302481
0.25024168603952
0.251870642747305
0.248620723211631
0.244414863484056
0.250445046847246
0.249583581801965
0.245691307826253
0.247182117128411
0.244247371399217
0.242718848130051
0.243264315754067
0.242178601730583
0.245079070188069
0.241550414201424
0.237989869776527
0.243604308002688
0.240861045432077
0.242586393065437
0.237855198791768
0.237482441996495
0.240115998157708
0.238269963407539
0.234628768856907
0.233988449322795
0.231332514411938
0.230708649009117
0.233225262554566
0.234980630341977
0.228209676275063
0.227377037712278
0.227627530038424
0.228926888219539
0.228378012316563
0.224816409773799
0.226117485310643
0.2213926870087
0.221866778747419
0.221621339271175
0.224111966085609
0.221242650952501
0.218808092129017
0.218577556454735
0.213775912350504
0.220099435002655
0.213469068224317
0.213487674533337
0.216260400364222
0.212025241038068
0.205888822568665
0.214740277991927
0.214832144440223
0.209220844692072
0.210431788553795
0.203872285964234
0.205371918461817
0.203221599728998
0.20640635777125
0.201404601275791
0.198675321074624
0.200544037691497
0.200253616184237
0.201212080189085
0.202688459470923
0.200150241697088
0.199417167038564
0.199361838195434
0.200235957245436
0.197006601192683
0.195162874378593
0.195680260426723
0.194663688561778
0.196118477828208
0.192755467534793
0.191470491126754
0.192428527781873
0.188369938523551
0.187704849370165
0.187257958869444
0.187520825062368
0.188073961132631
0.186131893497851
0.184944377996783
0.183059700040798
0.182899223489786
0.185832181826459
0.184778152294397
0.18028020296924
0.18321539204679
0.182358160596985
0.180252683664708
0.180632158204374
0.179129835702358
0.183792959537489
0.179752004339188
0.179136426529965
0.178692947859494
0.174054085925355
0.176529491329128
0.176957352336708
0.174080558136381
0.174524174684559
0.178803603699278
0.175816044395042
0.177326445036576
0.174094991114318
0.171273326347053
0.172393157155508
0.171458980721813
0.165701266316233
0.171442492212776
0.167750278495427
0.169364594621009
0.166858090417371
0.171654474823115
0.165502402670285
0.16602380397898
0.167056470112922
0.167915151996265
0.164797572643805
0.164501310319048
0.166141431103421
0.164929609567561
0.164765796702879
0.16551674857934
0.165243984438938
0.161219764383856
0.161868697602999
0.164415783913499
0.162120496933886
0.162117812080696
0.160275636302419
0.163172970419235
0.161686498592017
0.15997854792271
0.159486302025116
0.16139021424552
0.155880329346341
0.159273893171227
0.161049249621143
0.160888353507363
0.158954302771986
0.159180418839765
0.160426894234229
0.154760052453697
0.157931633841869
0.155774184177991
0.156987090663488
0.155496646047501
0.157224774653591
0.158442223542197
0.155440663163277
0.152060318904183
0.155992625760739
0.153850932546259
0.154101200733264
0.15257191989634
0.153696991388742
0.151420533481663
0.153264256145142
0.151600915455614
0.149292606858479
0.148225728715735
0.148863876109586
0.15006458476149
0.150425685383016
0.151330453538378
0.147294079674667
0.149806954039089
0.148596502606527
0.148876282752852
0.147458395991065
0.14527474902366
0.144895559644885
0.148864292623994
0.144723147736548
0.145711258927775
0.142354138262865
0.142931050065227
0.146561706045442
0.145528924462776
0.143510805479398
0.144110327471629
0.143528800607576
0.142397464134028
0.143794996090943
0.143762193125838
0.141305788882973
0.14615333951632
0.141702382934684
0.142367142658661
0.140280864948573
0.141385950632209
0.141492550461283
0.143170373877791
0.13857967510545
0.139203431340094
0.138867115455956
0.140490792266504
0.139921543913239
0.139199482472888
0.138517758767432
0.137195497815482
0.135057297785054
0.139404162168064
0.13570293472197
0.138457970103427
0.139036479063135
0.137917424395478
0.136776432511353
0.135466487196264
0.134694212982793
0.137643375218394
0.133691357036385
0.135120086779712
0.133627134337538
0.133420245138606
0.132472307630072
0.134633864662413
0.132554775089651
0.132455417990291
0.13200123110833
0.131273907089974
0.130296602575126
0.128715331918125
0.126667875747458
0.13125763913717
0.12632875900869
0.12442181186392
0.131025984933677
0.125488489285519
0.124147705069835
0.125744826074076
0.126465914623098
0.128387481954046
0.122367550616056
0.123673178708116
0.12203238789299
0.124909898125834
0.122755842935072
0.122811133143967
0.123424857972432
0.126625522467635
0.119551138481175
0.124139885290069
0.118721945963474
0.122463990803167
0.121135966915108
0.118294974022129
0.116142680726054
0.116541722295965
0.115798852538126
0.118538845550608
0.11768039300661
0.117676167968817
0.115345725746559
0.114445684983397
0.11544181419397
0.113921616961758
0.114978780614317
0.118158453830665
0.115576232600617
0.117430129756696
0.113868650110896
0.1162007192573
0.108677074272164
0.113646367862244
0.111811824531259
0.112753981100817
0.110509318204978
0.113832432709986
0.109525752683758
0.111405554262081
0.109009125791412
0.110145876504684
0.107768376966701
0.111515188867026
0.107309132798928
0.107742798750762
0.10701305355666
0.108404201028671
0.10433619568368
0.107462213609716
0.102604158599735
0.106878869213785
0.10462871256778
0.105168211080298
0.103284277396946
0.10562325256924
0.102510960752673
0.106511075611133
0.102406837309894
0.103695172325612
0.100977316363054
0.103204780145495
0.100006130297682
0.101306692399006
0.0997474332450341
0.102132937652607
0.0987975805354917
0.101966284468363
0.0961641673656321
0.0989946903877223
0.098000728764834
0.0988498662003551
0.0952283481230963
0.100509679160014
0.097546676901016
0.0998897766082984
0.0959556385944032
0.0959735475394685
0.0960691777124715
0.0982903627803111
0.0946583797292971
0.0982828484387503
0.0953808136906938
0.097508588972504
0.09622660271203
0.0985617520248729
0.0927107237575004
0.0982664974858654
0.0929641747793728
0.0957437340873907
0.0961335809640701
0.0968464496738545
0.094027669820911
0.0971833862733941
0.0928966426185441
0.0963015749608589
0.094605113347583
0.0991004515923215
0.0960918421150736
0.0982727569283731
0.0921781250265608
0.0999498973808923
0.0934531336819759
0.0994737896094937
0.0951125042427813
0.102912417682271
0.0939668122851847
0.0982420838132667
0.0894036512994956
0.0928036248038357
0.0807991300464883
0.0919636543762088
0.0876174463121406
0.0977723370452107
0.0840415134686011
0.0894054330439432
0.0880294791286127
0.0962083712733834
0.0796862127642157
0.0937627241595428
0.0835287443116834
0.0886790137065285
0.0817885251409939
0.0894761594743688
0.0825894891204872
0.0938322728886908
0.0850973745119262
0.096743057200316
0.0787049523566419
0.0949254840413878
0.0830109069221258
0.0980437185669874
0.0786058383295702
0.100929084957571
0.0782131265585912
0.0972406434049616
0.072058837807227
0.0956323189868329
0.0750351827911715
0.0932663238926085
0.0730876094706711
0.100137874608507
0.0729142976298571
0.102267702021997
0.0727706395680049
0.104951592090057
0.0683589213463181
0.0927194397472411
0.0656974844309171
0.0951515252201332
0.0723570905848282
0.106579432751027
0.0775785383460693
0.100643130765964
0.0754275657204496
0.0911361083816536
0.0845057928134954
0.0919757762543888
0.0810948252395638
0.0783084618057227
0.0954496703832413
0.0838109093356386
0.105001452559321
0.0616978683177242
0.113465115124087
0.0620465431461056
0.116801768570708
0.058708604026037
0.119431072021704
0.0591299366075316
0.11285410571962
0.0696724789021565
0.103736389073849
0.073669658102026
0.0945920422365643
0.080599048499043
0.0876122379509735
0.0863078870180388
0.0828043736442172
0.0852599236899546
0.084498800348924
0.0818072560399055
0.0892207903338306
0.0794842444140995
0.0912075245352304
0.0789098357652933
0.0903401958299233
0.0779585261020311
0.0881321602730221
0.0798482579054844
0.0871484634439647
0.0794133578730707
0.081433609817544
0.0797488483474104
0.082229650231801
0.077305775384619
0.0870023475502238
0.0803343659652512
0.0837040824895647
0.0783874336966803
0.0852139707919421
0.0808991197166087
0.0855373474001186
0.0780083411339564
0.0846538895547027
0.0798514435689315
0.0808080854420421
0.0771571978450664
0.082437029224985
0.0790816741084269
0.08344337803043
0.0793291299290938
0.0820487839706869
0.0778744921534678
0.0849001841008764
0.0809318882440422
0.0844458739381663
0.0817762761571188
0.0840561557006296
0.0796835011358021
0.0827690456827976
0.0788086478884842
0.0817607054259914
0.0799623267558147
0.0823854832380411
0.0772389039528268
0.0840056889132351
0.0793691371685813
0.0851877149431096
0.0802097149006135
0.0873998626540189
0.0786052527173211
0.0816492230524645
0.0810530255610875
0.0798376937797347
0.0790712708258898
0.0832802678555176
0.0798860498470422
0.0806394828337434
0.0809100665298502
0.0825980579713449
0.0796603746884069
0.0830617419224152
0.0816574810234271
0.0817685595227291
0.0809038003099419
0.0836478631812919
0.0815783389959149
0.0818598734823071
0.0789017710888687
0.0838446320164843
0.0806114383708862
0.0821098657261314
0.0781470369920897
0.0826422763935831
0.0808627642202397
0.0817143821484083
0.081954647164275
0.0824691620473988
0.0812212071603062
0.0802499325816029
0.0819287578191497
0.0825126079385854
0.0802255661640851
0.0834265005763987
0.0795622934612072
0.0835354804742653
0.0822055313712432
0.0831636995813701
0.0829896656743596
0.084241992851194
0.0819604538408996
0.0817206794253978
0.0816544937518289
0.0830858817349027
0.0869797447216887
0.0832930830717359
0.0826392684836489
0.0838721950407892
0.0835279580144057
0.0841945071337366
0.0821570354004616
0.0829333200160201
0.0837139824633021
0.0841589499578259
0.0830391024836878
0.0828370506180788
0.0833851170179768
0.0849409045581201
0.0852846525465089
0.0868244673754465
0.0852074151957472
0.0848304488861684
0.0834707354973803
0.0847070228569221
0.0854367797584106
0.0845189263303645
0.0848703557105562
0.0865924312906232
0.0831090042674151
0.0821927434571221
0.083306072336883
0.0853468772576162
0.0844726390009611
0.0872690349379099
0.0848189188960392
0.0859714853864997
0.0847086064765405
0.0852653651569245
0.0860817517123893
0.0853656906041786
0.0853070654578396
0.0861582840091452
0.0864163526672201
0.0852546704184055
0.0845319152020426
0.0854792749416573
0.0852439888470385
0.0871741355208398
0.0850328494873867
0.0852781290679145
0.0871678104104066
0.0870540384271715
0.0880877559471544
0.0884222573099726
0.0878836029047562
0.0886118113950451
0.0861067275940751
0.0872274720933463
0.0879468418396508
0.0885005978255062
0.0898191283567402
0.0874310868175805
0.0900564346314496
0.0903318802052804
0.089692476379113
0.0880737658589205
0.0877522159088578
0.0886705943882897
0.0891210626152345
0.0898768068251257
0.0900155770809341
0.0908131065062754
0.0893003155821372
0.0883567445466316
0.0868006960845133
0.0881623939090802
0.0888811660965674
0.0894660060204769
0.0910131427560882
0.0876923004432602
0.0880225076352677
0.0869405506226763
0.0868674927911558
0.0872344643662008
0.0894806916396914
0.0880984535319511
0.0861543334901678
0.0850769963770607
0.0860733180870436
0.0857774922550811
0.0884865918259984
0.0864223773602306
0.0888507289866554
0.0879398866890673
0.0848924207364318
0.0837658610995313
0.0854147768003414
0.0837291762317977
0.0907936978019673
0.0851427419469832
0.0873261557887698
0.0867097427397018
0.0851753192079881
0.0846269937867148
0.0827230550297112
0.0842309114088781
0.0868830126015833
0.0837774771766897
0.0845031855977446
0.0843960085814862
0.0834893363423285
0.0850931488264948
0.084084838243983
0.083371936054725
0.0840683514991528
0.0842369455610184
0.0848162994512077
0.0851839173239584
0.0830249482159682
0.0827994676129747
0.0831201337432787
0.0844854941468087
0.0856485604368904
0.0822670638990681
0.0807036329880701
0.0829039657703469
0.0843219969700548
0.0835124186928798
0.0836205195151516
0.0827540895455326
0.0822389351917203
0.0827182520855796
0.0833276730727492
0.0817075232745069
0.0831705488142891
0.083390137447251
0.0826074617771826
0.0831960671475803
0.0818097299560825
0.082379202393331
0.0822735722718453
0.0807118234652047
0.0818596070811257
0.0826416457545531
0.0835781236949841
0.0816483107171771
0.0825513021576258
0.0799996730589537
0.0797661078453606
0.0808464535139863
0.0810027940955609
0.0795995622916483
0.0802998686905936
0.0815105695163858
0.0807932164543358
0.0804369801258276
0.0807097348123194
0.0805034806568106
0.0818357426030077
0.0816443887685424
0.0797116119463975
0.0796509961228917
0.0804869005319876
0.0789974022508873
0.0822955553520638
0.0852208139506399
0.0844102125811619
0.0809205217167648
0.0822943938213557
0.0796447952052358
0.0805075855273486
0.0796948668272755
0.0792092449454051
0.0783956058169396
0.0797250093060093
0.0765406257616719
0.0795208495944063
0.0779407939956571
0.0800642819148596
0.0782170937282965
0.0783353060083977
0.0785321327163962
0.0779967212321625
0.0780737173265085
0.0795206109612874
0.0784641106539497
0.0780729699563311
0.0779736820998285
0.0773371174319396
0.0755385311094489
0.0796494215995705
0.083532572352246
0.0766789173550539
0.0782398342395664
0.0782380141808781
0.0761338456965949
0.0755345361875566
0.0743156346414534
0.0772772373842795
0.0761019424949521
0.0757609621675257
0.076624924994604
0.0766400380753247
0.0747259225865314
0.0762278223729891
0.0736219032074157
0.0748305953175581
0.075580172110943
0.0738378518975475
0.0741019884364962
0.075943120507976
0.0734264966223829
0.0715541379788623
0.0735056657862452
0.0730021019456153
0.0744295769642263
0.0755936505310534
0.0766247662932801
0.0753917198311246
0.0688967645306242
0.072262849646288
0.0709141903185006
0.0743518267869189
0.0699214382634731
0.0710132276313846
0.069813841636485
0.0723347255758458
0.0695672481683407
0.0684341860110727
0.0694432179136311
0.0722528900577089
0.0676924933046548
0.0692156670682856
0.0672619326739631
0.0705623492170225
0.0671121439593519
0.0696350383580603
0.0662117051834811
0.0680327277020449
0.0670768814404345
0.071790761817067
0.0637734034579916
0.0710280129065218
0.0725434601839132
0.0811929460681684
0.0682488721133384
0.0667944245400022
0.0682463194071916
0.0723862643449677
0.0677677518921369
0.0667437080850222
0.0675579890341844
0.0669839746775801
0.0670333309331386
0.0668245027131035
0.0679324769794044
0.067072248315106
0.0660477242256235
0.0676552945353986
0.066000684384991
0.0660289580719016
0.0648447620977012
0.0683192284476354
0.0655811176969357
0.0653045481460453
0.064006216232699
0.066320786897505
0.0654326234253915
0.0650051473469013
0.0671097178232393
0.0740657578859468
0.0729846492773039
0.0665624734712339
0.0651471712352654
0.0642363057589646
0.0628502745472396
0.0624456996560732
0.0646497152260633
0.0640273114544411
0.0633842173539377
0.063465582007304
0.0629805445020464
0.0649418319084057
0.0668400130505475
0.065013636871812
0.0617918908907228
0.0632061633900004
0.0616436378665417
0.0619334552080619
0.0633152262332879
0.0631403957175688
0.0649484229740837
0.0594418443120507
0.0674159037853678
0.0624660423789268
0.064703190205891
0.0705104328103152
0.0834105612530826
0.0689412389396274
0.0619883007673243
0.0640809584993079
0.0588872434673065
0.0626727197926981
0.0605487909983084
0.0627176585535636
0.0594798646417708
0.0643549655623902
0.0636517114283517
0.0622767272649435
0.0596053723773623
0.0617249162585306
0.0607089080894672
0.0615239174041661
0.059240755781244
0.0633734227940944
0.058042184402777
0.0610331549559151
0.0675908776942371
0.0785298752630686
0.0706547090176302
0.0619361991459529
0.0621219989654325
0.0671353811670111
0.0746434959908865
0.078669890514397
0.0572995682612623
0.0666065177899555
0.0549395251485102
0.0638494363874188
0.0569381501097106
0.0628455783785784
0.0593276813738931
0.0727554838375323
0.0625555390127057
0.0676006764820782
0.0615674447234047
0.0608204364962776
0.0587113960773097
0.060903862108377
0.0589968381908193
0.0608856715704956
0.0573509881967046
0.0610927058120922
0.0582271939484254
0.0600578385592542
0.0592598255711241
0.0627171002463302
0.0610716836972155
0.0723167228830429
0.0582195810415328
0.0642822844993245
0.0584669003281253
0.0612945357627927
0.0690798102028527
0.0796804159295063
0.062609278431542
0.0608253320050271
0.061106995249195
0.0612898668250369
0.0635220615613871
0.0593205854353833
0.0606607773423997
0.0596615528620491
0.0568188371639434
0.0597991831680279
0.0608075180058692
0.0605627577253994
0.0610109542333794
0.0576515750461357
0.0590228482352834
0.0587150180072192
0.0588029261731372
0.0608231197144592
0.0580544971808707
0.0688397604513281
0.0725101948129456
0.0906351536751254
0.0724424649978918
0.0773851854509896
0.0637927982881294
0.0636621285666915
0.0596372656645871
0.0631055996631942
0.0599610942659
0.0642440022984889
0.0601640486339007
0.0640035370964157
0.0616670754781714
0.0626730081601791
0.0589951706058882
0.0607304942052102
0.058256674716053
0.0595736542535595
0.0580671116691924
0.0610683046888175
0.0586764520032373
0.0574073378287671
0.0623877373180678
0.0696199409125652
0.0717703744147079
0.0589821754240875
0.0749702968575709
0.0832920060280253
0.095726109797465
0.0647122057114027
0.0695327199803294
0.0622382718710072
0.0584530715947716
0.0592194547165567
0.0626738709663175
0.0677587286292023
0.0639167574534998
0.059835655666292
0.0617198787509637
0.0618265911325237
0.0612355462098851
0.064105901891717
0.0770844606275603
0.0973539373975745
0.0793393379215318
0.0625829430343903
0.0666498047964078
0.0758634415287554
0.0874667543564734
0.0713419027917945
0.0638484409636525
0.0703714957999443
0.0578953605825353
0.06543883724338
0.0595193871653702
0.0667258847692281
0.0651634764829266
0.065915143006316
0.0601431818710267
0.0635562117934963
0.0606870881230776
0.0667653987176757
0.0715189482211596
0.0784413017966722
0.0752308584064833
0.0697645485985352
0.0662366165418587
0.0714591639611264
0.0614695757537103
0.0671976021791565
0.0601790342156195
0.0685863791571711
0.0755246566424087
0.0828870026632385
0.0759849547035122
0.0853685516810472
0.0782955867127626
0.0678289101977979
0.0682332123180117
0.0865733184694165
0.0669442238563452
0.0762320150984261
0.0747424727490618
0.106255273005566
0.0923096044460697
0.0886718925062067
0.0750790151020126
0.0669073502281593
0.0713423412039128
0.0650672446352849
0.0794132710030226
0.0781716188157977
0.0802039296859923
0.0616965456918136
0.0766908695205519
0.0790263416779214
0.0917638392671136
0.0735365205164953
0.0787742432903023
0.066658045535503
0.0801712035632214
0.0811333015094499
0.0801357455213638
0.0782066721130597
0.101496844695415
0.12454140463681
0.0947082371397456
0.0820212274825721
0.0814338055181757
0.107654362792238
0.0884793288504267
0.0721558073574786
0.0794271579750946
0.0710743028941731
0.078956983841507
0.0871637245655335
0.103532000159406
0.0891799427085072
0.0759877739539414
0.0814573808590866
0.0855090857568353
0.0987122114824164
0.0941199316724277
0.074893700890338
0.0812971209432838
0.0763709550110033
0.0982324878395777
0.110035887868016
0.115973240575521
0.0996826813267586
0.121891398211203
0.107025610226288
0.103444651190115
0.0972680795353924
0.0932557297858955
0.10937497079407
0.10944739481507
0.0920540299451433
0.0915300973765066
0.109060507890643
0.11631664363538
0.0998938785730724
0.0917864926015008
0.100447164285327
0.101264015267849
0.151594081069925
0.164624051065474
0.131483465176033
0.104813805239184
0.118860450713025
0.128661142636869
0.11753639394299
0.102151424757025
0.108437582702102
0.102181204602121
0.103959599196626
0.110847060357852
0.117458395680855
0.117181894740508
0.111540272513902
0.112139426901694
0.117941896579193
0.14872556640146
0.184791069030113
0.155483176699732
0.149956335726523
0.155766399393063
0.161529219807299
0.131702781104244
0.130494176985399
0.123980241907042
0.141599161204552
0.132777977344647
0.129770221977358
0.138306732574404
0.15592861693287
0.159034796941486
0.16062800992982
0.159240771874629
0.15258504979821
0.150502606694404
0.199608010540221
0.232799076877559
0.205457602565668
0.157090846149191
0.194252675034312
0.185320265411832
0.243098741612021
0.185892146228788
0.176429198001221
0.175403436712881
0.182519586673105
0.186285524375474
0.202069170689297
0.204945378077313
0.218654899644591
0.199287404406644
0.221008668218784
0.232092660207622
0.341716297330728
0.285529604640678
0.256139994052978
0.238995464098429
0.26628696075119
0.258603465110336
0.255640438861522
0.248902009515863
0.266276368980138
0.280869421974276
0.320263022343479
0.288458078449798
0.283361730776007
0.305920915984517
0.316706270975552
0.315888933128503
0.346239545666514
0.354231052966426
0.321483344652891
0.328649245259633
0.332102243679574
0.333869541374907
0.346832743603675
0.368729471117895
0.378198578085606
0.350725580575174
0.36953052495855
0.361992300979456
0.370165121199765
0.369411977436358
0.382708278646556
0.388563253181328
0.432384449681674
0.476827643888807
0.537674806128022
0.426681761899255
0.396758518827748
0.393758436708212
0.41092073160829
0.437396032538583
0.454171205063296
0.446541186769098
0.436260541266829
0.397273828186879
0.410593378856268
0.406719849598652
0.405780921305619
0.400898557418028
0.408404851298818
0.415233765210512
0.442581968481234
0.432084312764712
0.472328030294311
0.49080493324831
0.426634059439166
0.407355441018136
0.402454284766339
0.397791750346896
0.408599670469348
0.404980018054586
0.418746048836975
0.415048172635516
0.403257093324203
0.382053054843989
0.408780689696173
0.41908357115425
0.432279476858557
0.393328975033865
0.393725122179109
0.384254316181341
0.383390053235244
0.379443283947148
0.423941353605524
0.430472458908292
0.391392525469903
0.372448233066114
0.381450388739879
0.369842193663101
0.37381946991427
0.365048514508327
0.376745468859242
0.368578862268109
0.376180047590066
0.359294477244954
0.368408887268897
0.358233355145118
0.362120860342679
0.359054840537259
0.363275019668972
0.356574194671311
0.357668127044813
0.3491856427301
0.355915417377692
0.353884635628651
0.362089702187259
0.354550644702622
0.366471283318564
0.353312804303508
0.351534091129386
0.351410807614389
0.35345659609106
0.35388857597726
0.355129586622189
0.342415642152385
0.349387815581422
0.344884453656609
0.347892900415262
0.338454633959247
0.347174156923312
0.341255411251806
0.339000673510495
0.33383323332094
0.340613175008706
0.332135110379609
0.340016825294795
0.352587363075154
0.38841177987029
0.359695085539101
0.330436038537307
0.323583872467452
0.323636584237427
0.31500717016629
0.326080823163824
0.355800393089469
0.345604859252855
0.31189513661573
0.304356437538012
0.300873702930012
0.324874870243215
0.297850845441745
0.299875780536519
0.289047232184888
0.300059912108692
0.311299712451993
0.391820458588778
0.376263364214042
0.377293982145108
0.297576012324447
0.27810031012096
0.301529076599109
0.302822336305948
0.266561986656156
0.264476604268208
0.262760585843392
0.313631067143106
0.277382677479415
0.258496641756862
0.248179925905044
0.258310190049551
0.291948206220624
0.283439884592327
0.269839812269305
0.289506371675428
0.293319014609361
0.291259291709056
0.32496658097594
0.343150416246325
0.265053152049865
0.235623575195557
0.23985920707371
0.23617631846749
0.250936419625481
0.29962450206581
0.250319087951568
0.251957143501786
0.223636469872321
0.223355991513729
0.22634313821017
0.254073787197225
0.235217445206534
0.251724203492136
0.252250300451122
0.225025705648388
0.232163962045506
0.253723201734473
0.274767431225978
0.283981032751378
0.223186422227384
0.222785286402338
0.268363942397944
0.267787840093017
0.229049767699719
0.233106403206688
0.19866981971999
0.222365836650848
0.222855134179004
0.216513243653523
0.234784955664114
0.244041121367905
0.26444663211429
0.303399568254685
0.312746849662143
0.271258018965852
0.220702710680547
0.205321720488725
0.203694431964762
0.215093933244738
0.207770025143161
0.213420815581132
0.24695404293472
0.225154851807865
0.222377084986966
0.271648866863128
0.229605382301629
0.218390485040731
0.218020642207958
0.223301927240322
0.229219086116528
0.266697093817087
0.284607024726695
0.256224110370272
0.260940552961877
0.271553923499126
0.250050946673954
0.24236479732598
0.242335787866049
0.252746441497723
0.258711466674651
0.280989074464274
0.269340205212871
0.275908354736317
0.273203964627496
0.284772726848235
0.321476747694505
0.324004191338864
0.304652620556621
0.350081565190831
0.347666638878651
0.397513889479827
0.342238550781226
0.334562483463111
0.336557145553649
0.346798538551441
0.346782135746796
0.352922590948019
0.378464771999996
0.398907636729657
0.364115851065262
0.378011474416167
0.371203983617109
0.386417564342688
0.391669883372702
0.428196820927963
0.429768625684929
0.477788295517572
0.457900758806645
0.440998992551895
0.405765804878001
0.406151795049682
0.416264475005394
0.420217628792914
0.410512884135143
0.412367963303557
0.422107584781287
0.450490497178456
0.421165528247416
0.42818092814149
0.423322696262654
0.425374206590383
0.427544604015865
0.434607530560058
0.434566610947857
0.435404504196236
0.435671149554844
0.450595482391918
0.461146928135675
0.540164687743658
0.475894032989595
0.463517318964811
0.465166817119272
0.479940407164809
0.468240940523731
0.480090811998203
0.500469895530151
0.490075634339607
0.489880572799994
0.499461963918291
0.488905898296586
0.493714389960476
0.514628840657922
0.527492594695066
0.498518568411726
0.51763752469652
0.500937316341596
0.580539917116348
0.559764511184964
0.541234088693625
0.538916785809078
0.535123484099977
0.518876380242103
0.521421725046748
0.517337613298042
0.529066514852626
0.529877624634955
0.528516852279866
0.528810308316662
0.530060082049712
0.524866236460902
0.527971416532256
0.533011615090228
0.562151380495247
0.529792134892629
0.532661541445784
0.523798454595467
0.525617870210324
0.522694323687741
0.554275588387851
0.550505823929776
0.532339100421562
0.530739105269135
0.546912150612394
0.547747934337454
0.543348231089469
0.515048899480743
0.531333541356017
0.518995581927253
0.531202372840816
0.520784872251343
0.548376451168376
0.564138535364294
0.552607514725689
0.533495434647925
0.537282250368839
0.536795396297865
0.544743974096658
0.54617614749534
0.548996060677586
0.543168476754267
0.56376513361565
0.555201185898752
0.559857504144775
0.555603550765252
0.575558846659002
0.578229578023503
0.583150254925653
0.552102196263695
0.562267995096861
0.549801445651
0.559726474878356
0.563205672066989
0.550666197170349
0.53267851880672
0.540746462083007
0.530029142086138
0.544598550384808
0.564092993937265
0.532240851975447
0.53699190797797
0.518858196533976
0.510937968614935
0.510926149370381
0.504929688150681
0.502039408982966
0.495874517682551
0.503521936645603
0.487531742031822
0.491041841478023
0.48480030419256
0.489036769836035
0.489194465985301
0.49361247610909
0.489343295429396
0.480881055541443
0.478952397969085
0.479063927911428
0.479035431335076
0.48097276869651
0.481845019937802
0.476848788031668
0.502001462673547
0.50687420083765
0.505183604970447
0.490599245092263
0.487673943054676
0.485090961138801
0.47661156063615
0.474465916751486
0.470233054765766
0.477960611989286
0.47007604696882
0.475302457757876
0.471758049912296
0.47430359531855
0.468252765646787
0.478142319806932
0.466735988042877
0.472894110669037
0.466894181479637
0.472087328489292
0.467222140280273
0.469631503422373
0.466524918617945
0.48384848797633
0.466310226516442
0.47145251106261
0.468764625820973
0.46577854726184
0.46200269262508
0.472324984024408
0.468930469642105
0.464882775852169
0.458968521663446
0.463452523165378
0.459721985321002
0.463433682743632
0.464333172553432
0.45903761000921
0.460247243905983
0.458144893616635
0.455384483991042
0.452752592547305
0.446868190746036
0.454356656338486
0.440483924373721
0.442831629296701
0.432111705491434
0.436494177678219
0.426262923059028
0.425603370079506
0.421814806249001
0.421354860139967
0.41459003681063
0.412978144840786
0.410513050780654
0.405103276515819
0.408330838971184
0.408583362964315
0.402900338856849
0.403000043433232
0.397897016193896
0.398380697982442
0.398910219457613
0.399656970718228
0.396650911962031
0.399290971448039
0.393944808039315
0.398848495769373
0.394647658570555
0.401222642549037
0.402491031369158
0.40067131044445
0.40061731843054
0.404422270268729
0.405192873052567
0.405538485962478
0.407358273559559
0.4118338543119
0.41214399813013
0.41720167684541
0.416106020904095
0.420149294816348
0.41622285233966
0.418627266984667
0.418475667327798
0.421861382267957
0.423925176174242
0.422585442015284
0.42095567988167
0.424535922089225
0.422383063929448
0.421868225095783
0.419417718402205
0.420748311680681
0.416307241296887
0.421337163452567
0.417549480001824
0.417971506333916
0.413935805189415
0.414422835911381
0.417598573039874
0.413344178626105
0.411925276675789
0.413823804711867
0.406572077576946
0.406354559142979
0.408126533975026
0.406045428932565
0.403692370534299
0.402167283433687
0.397832386165632
0.400542914608433
0.397056552945231
0.396938469366569
0.393559027167597
0.397135236757517
0.394293080583559
0.390552413071882
0.390610010997355
0.393036392614426
0.386570182736096
0.392344318022491
0.383819647293675
0.388973142607026
0.383764089347012
0.38375096038968
0.38010196578282
0.380848902535311
0.378885625973684
0.379463322031801
0.374315910431975
0.376894443887948
0.369892316447288
0.368228288973793
0.366987767119729
0.363909726959184
0.362526420661445
0.360979105499627
0.359248620318788
0.355022811452869
0.352995958388325
0.351179658806005
0.34841700666058
0.34627760698112
0.345123348240927
0.348184386179733
0.346375878604979
0.344050174655154
0.341940066956544
0.34327731878995
0.343525360890304
0.342263604713442
0.340457587888412
0.338231602685527
0.335447691197253
0.332807986832662
0.32761880281161
0.325903881251034
0.321218370532382
0.322475115694642
0.313579558893937
0.310224500519829
0.304798609295145
0.304490697360065
0.299940813957901
0.302623085091597
0.297999045080693
0.3005739065303
0.302234203516574
0.307276770248467
0.30989684102181
0.316965779084547
0.325712824217018
0.333920139652631
0.346573800803899
0.357226281381995
0.366439284800233
0.383442556131138
0.39564789096388
0.414888604921612
0.43070924545878
0.444634604159858
0.4615145486636
0.475695629776147
0.490885559101303
0.510625336340379
0.524039433356326
0.539849060148961
0.551825438013714
0.573961137663806
0.588203313715311
0.605564316087736
0.617167239921142
0.636637931772142
0.641770687494373
0.661618677121006
0.666833866075603
0.678586117839854
0.692899547324301
0.702903391064554
0.71466709871309
0.721319095157613
0.729669848667857
0.731838213875196
0.73260320253412
0.734131794364776
0.742342277068616
0.743491102021767
0.745785004071013
0.744515900762682
0.736965921099109
0.742953846343638
0.73715528963119
0.752171272757594
0.741028794810862
0.742709347466898
0.750784685891352
0.743417108422849
0.746561000523203
0.752688236388313
0.754620758509072
0.758193656802496
0.763459396532791
0.767817950291109
0.770856395082906
0.778251980525619
0.776290857255269
0.794222952787289
0.800366626083638
0.808571630824277
0.818196131390054
0.827913542863393
0.844927024450371
0.845548142965914
0.866947014997586
0.86878739377052
0.889316252168249
0.897805861770141
0.905922627584473
0.915253815010099
0.925789755395791
0.923079599361021
0.929364155043115
0.92515035480675
0.92780675547414
0.926421677132944
0.921225749573019
0.928552080277385
0.916668746279472
0.908947630085403
0.91284310309483
0.901990479018888
0.91398922301172
0.917631176736257
0.925704629448682
0.940362109088046
0.961467700813569
0.957324559850139
0.973697017341703
0.986038186343716
0.988781021252092
1.02930184263838
1.0305221563614
1.03981316502031
1.06557701439293
1.07509106391849
1.08981854151921
1.0917213486853
1.11655721342999
1.13526352830235
1.13577312138451
1.17570838859086
1.18911250943
1.20050623440821
1.24728117372296
1.25938519046472
1.28595042629297
1.28351298628105
1.30440419872107
1.34402544781528
1.39907236763977
1.39261226503086
1.42298124810708
1.46375597271565
1.42541556025873
1.47086477462995
1.50113651852235
1.5519838464545
1.51728105119302
1.56190335507211
1.56806578919312
1.54652128143282
1.52928204207527
1.55077282317728
1.5347065245638
1.51150120843917
1.5930932493778
1.59376601707499
1.52478182044547
1.52320132178821
1.57666121660465
1.53449957724402
1.56167352145914
1.55297566091234
1.49476502470165
1.60330793074681
1.55320970229989
1.60183957107574
1.54257238335757
1.59067397357749
1.58753297016648
1.57723324357732
1.62924416406314
1.64440114338172
1.64729529975098
1.76254875827719
1.68501868119414
1.80405660792834
1.73849112612047
1.67289191821636
1.76944559518914
1.77311543516381
1.75295752282961
1.79088889118631
1.81677847658952
1.86405754157216
1.87684520443558
1.85636222459972
1.80165013149104
2.02013482679806
1.92030072112186
1.910600012851
2.09177154674238
1.98150326840289
1.96213266538375
1.93294611257848
1.84931831449074
1.87477919931241
1.9173525185428
1.83809931156197
2.034710795586
1.90514849319465
1.94673034888732
2.11400570608685
1.95229438729993
2.16349645311397
1.93747171754829
1.88249628625875
1.98997145727046
1.88347711771087
1.84935315431185
1.76195696365776
1.83195986468172
1.73058488040714
1.65542347081849
1.5138175874786
1.5573433842983
1.57241501439153
1.44660512732909
1.36711354263583
1.3399559779137
1.32540448183043
1.24681859045436
1.25716246578043
1.23785091696026
1.19102867074733
1.17858151475723
1.20003249901841
1.17453280747579
1.14854955590678
1.18517709504871
1.13982324872661
1.13074113448544
1.10348897387565
1.09838367796567
1.04782639176721
1.0592322219731
1.03595620524654
1.00786248415973
0.992420440566781
0.956967284828234
0.944592160425008
0.918306580117227
0.881299828794021
0.855186682643352
0.822525979730736
0.781461587262944
0.749055447725574
0.726324502380932
0.698344699624312
0.659079613824884
0.631719796830451
0.60744330429704
0.573016892551716
0.548529453966543
0.523449272584979
0.499727140059777
0.481813735705286
0.463103847895006
0.452424469704736
0.428751746165238
0.413323859112025
0.39897112925863
0.388100420576925
0.381360476641771
0.368573385013871
0.362432396625762
0.352448853008469
0.348089406593907
0.345113328871712
0.344043028607657
0.340012647351182
0.3357647336342
0.336430201870788
0.344322504270867
0.339698340479971
0.339264270564281
0.33946440508166
0.344493780539695
0.343528970123553
0.339685469948734
0.349654799191386
0.352461312883526
0.351305714651418
0.352104608963607
0.352590462029941
0.35448427403003
0.347618296521475
0.351719746431405
0.346313581647115
0.346322482138922
0.348676789204842
0.34500850446209
0.341795980724511
0.340405890635482
0.337479326009833
0.337447306737346
0.336753582695416
0.335715308492369
0.336638757341654
0.337327646006531
0.339756096391481
0.34784678510644
0.34770338080825
0.345340428963325
0.348066863215984
0.354306865002937
0.352443005087098
0.351625698138613
0.361847098480693
0.366562901513802
0.369015140483078
0.365904514546715
0.364883013228394
0.370294173441863
0.372117199046127
0.373438811930357
0.367981793128256
0.368631696364772
0.366058279843773
0.37248410185677
0.371708873013318
0.377740886212058
0.374425239006671
0.375683625280612
0.373968525834598
0.380356642364257
0.385835471157376
0.391812710715372
0.394706599670536
0.403337121868423
0.41271588275878
0.421035751113886
0.440506598502211
0.449686859869032
0.466814278322021
0.469048696019999
0.480964133565065
0.491342950032426
0.499469960942661
0.500021675322826
0.494182331841022
0.492673567886828
0.487549333288608
0.487001644161654
0.476719307940903
0.469876463375641
0.455559109281992
0.452426407448782
0.440359623235707
0.439876309955765
0.437867149927723
0.43988683325988
0.43956347592877
0.437560379029623
0.436539399094665
0.430865667835179
0.439463603744709
0.448710527964735
0.438925744269478
0.441589268005435
0.429693422540654
0.44031101283124
0.426322607329395
0.42218358048347
0.412610076057787
0.424368518040937
0.409436891372298
0.410663824175031
0.406806506673826
0.405144867318127
0.400587192493689
0.397428429591545
0.396450514028333
0.395070098754204
0.393569710397227
0.399355620727531
0.380881938332481
0.388362484483905
0.382638399252457
0.377376410174186
0.375867794282056
0.378617791618785
0.369486830712202
0.377693056017186
0.366892712573462
0.369880998647685
0.36577581208194
0.373907291367947
0.359774404747692
0.369348745563098
0.366017451248021
0.362881094285823
0.353527483557296
0.370979515920657
0.359512316996945
0.348435041350569
0.350276307830962
0.346187742881188
0.343750947587477
0.350722664993273
0.344614666846104
0.344873273836343
0.343816263188253
0.339772833905173
0.330845893924402
0.344902069657844
0.342302173614121
0.340150063162751
0.341225595505108
0.340794977037476
0.338403715857009
0.331083862712273
0.335115687635214
0.35105011876899
0.331851648967449
0.340874328040355
0.342959095281464
0.347750547669619
0.335479160741734
0.351633468345634
0.352746480680942
0.352137238232465
0.344336051423405
0.352504195808468
0.364088662174365
0.369627680825324
0.349666164097543
0.380750442522189
0.373887347526088
0.370210883150207
0.363757080972707
0.387860070050139
0.381822643191764
0.390471508433887
0.390950760076786
0.397553198491424
0.382424801689869
0.408542807234786
0.426189995516404
0.434772790454977
0.414730570010609
0.45990613312884
0.463663596393901
0.461018480615523
0.460278992381567
0.485836251103395
0.469431893207581
0.503307700889664
0.523526754063061
0.538437903740243
0.538101358578896
0.562697036039073
0.562093745269678
0.597945025711652
0.58622914685775
0.610245999505519
0.629508623096014
0.610388667890502
0.597463428143452
0.667460032077427
0.619380758472546
0.609159963099604
0.585793265112181
0.592880787247166
0.604193432014163
0.619586327041981
0.566189356249197
0.617592576921763
0.619560116462224
0.577096861811378
0.547601420037892
0.576800818818604
0.561538154997335
0.570195639323744
0.58309646272507
0.555598703979746
0.554801615003809
0.590183449253254
0.539842003096356
0.54853188275897
0.552745461291764
0.558134881569376
0.534302560856421
0.55647185965945
0.535292525091747
0.571064192309882
0.540275816513339
0.538594959745125
0.522299375363723
0.534673720930253
0.530551979756272
0.537820972401738
0.525746806460409
0.536111095292286
0.535345611629996
0.536961455578753
0.534540275753473
0.556328892370373
0.546347430064466
0.589732076821781
0.553382068447171
0.529009982714057
0.53037019683375
0.522568359476507
0.513194742490704
0.53728085824034
0.545047109351685
0.552677727102743
0.524932606874769
0.563921442096138
0.558284531634534
0.540454663774244
0.569061789640283
0.579960202181993
0.552791254847074
0.598258860755633
0.601607194612831
0.55200924299779
0.512826784862722
0.555694368020667
0.565263780797351
0.612064924165339
0.566686043115584
0.594847158116312
0.571462966709227
0.611618806094448
0.610698313212927
0.671763689824165
0.614439074525705
0.623108504151827
0.658680363483068
0.637157381921115
0.637572567925082
0.73245111217645
0.629392403009448
0.664950026177281
0.68862468276869
0.644525329507941
0.643896602570065
0.811335244770542
0.718338351446709
0.723909366403741
0.732334789780479
0.808357758856643
0.741808282319597
0.720029241858791
0.781390906909441
0.752433115458258
0.722301758347149
0.820062586899804
0.746662841717656
0.656336664432065
0.663737446883845
0.718359241199104
0.738030158884133
0.787752936649143
0.713468177550288
0.662401322453906
0.640316056202014
0.664405673805523
0.650106938688573
0.750293548282534
0.599585249998496
0.708759560210042
0.724086715772321
0.758942330199658
0.658164303442095
0.72647776202053
0.687561777850908
0.786559961679691
0.76918063684181
0.751120926937056
0.706353925933983
0.685707128651611
0.667986327376771
0.758907349925153
0.536687572362714
0.884735797912619
0.84400901950884
0.675933057719761
0.840907716438028
0.48377151580282
0.669846585476396
0.713238501340746
0.628432099466724
0.886731640814417
0.949159704901268
0.739810248999942
0.896565306885684
0.753572202976324
0.617312467028902
0.790476786064121
0.855118657423891
1.34340637338793
0.450459942768632
0.780389421157513
0.758426593769482
0.894808327485269
1.3957924023135
0.910439389754802
0.89879283366594
