3596
4000.36533379555
650.420452594757
1
2
2
0.0629195685592867
0.068750272310512
0.0719116779692161
0.0773067324437535
0.0690674061475585
0.074632128389591
0.057765936233775
0.0768440815597234
0.0622631044042899
0.0787970779814152
0.0638519858471035
0.066609902533693
0.0568640842803951
0.0721738719557943
0.0592371949899743
0.0718802558490093
0.0576681058468589
0.0677306629072499
0.061685001517949
0.0692140894398305
0.061552950443954
0.0707241360706952
0.0647675363776676
0.0708025058304904
0.0654994083551882
0.0819553697377996
0.063634194445257
0.0694746460573189
0.0682160935199402
0.0730569319709369
0.059440190417158
0.0759499433002359
0.0627935613437345
0.073512878684686
0.058207713090799
0.0739595500402183
0.0609285035267981
0.0710087967461446
0.0545650831816431
0.0831654241379985
0.0740504157045844
0.0695285501800577
0.0620019841715059
0.0716651178432434
0.0618332234911225
0.0731124793189599
0.0616648140239016
0.0683544914708361
0.0604477989780926
0.0733789046835701
0.0593213435859658
0.0746985874937098
0.0767179141338184
0.0809787631996639
0.070390765554
0.0909443625149441
0.0684339238969063
0.0716933596896745
0.0617396123905265
0.069495633955409
0.0848256838870816
0.0901978210765781
0.0700725874045155
0.0702421325727748
0.0625586102674867
0.0809864939669319
0.0573229537979067
0.0691209208906366
0.0612606066373522
0.0786947888466614
0.0594250230327133
0.0979888914307092
0.0782298495759965
0.0822835569181516
0.0775760895163838
0.074390353339692
0.0586599335658129
0.0690297761078673
0.0495158634402445
0.0927453605906527
0.0802384166273721
0.0936335538696457
0.0610081736381324
0.0645666413878922
0.0801300017226877
0.08736373683818
0.0513078857498803
0.0959610264817573
0.0927421394125325
0.0835667147097418
0.0593554617020686
0.0744732539097978
0.0555257950650069
0.0744428956375013
0.0560760003323138
0.0743191342491278
0.0507840829916208
0.0820646488116636
0.0470060040649545
0.0918304824780015
0.0673720802900475
0.116318878762184
0.100197535947588
0.0739491478150826
0.12565957048042
0.0743355266007268
0.089181448823738
0.108707055316681
0.0717629350165049
0.0752753101923073
0.0614374548412511
0.0767166068718492
0.0683183146239155
0.0887800100029808
0.0482185075348502
0.115139351552772
0.0825797949227181
0.0845232318496215
0.0557746586984432
0.0728477781722844
0.0394034238735635
0.126498937109494
0.0898795414371391
0.0891475736541421
0.0800369392765995
0.0847558180517314
0.0541633263963709
0.133883132527354
0.0743151839650215
0.0781837674645703
0.0545092383882639
0.0785136701674683
0.0449239638748977
0.0830097451977205
0.10367501853157
0.074196654417893
0.0704246215446269
0.0695378163631837
0.104164303741701
0.139599677628683
0.0788001407727925
0.0845199277840595
0.053663852200534
0.0951126238797743
0.103129479884319
0.0898642052504352
0.0593290030124158
0.111136674205765
0.0596398385034773
0.0798616626572818
0.0586245903948339
0.0679248020980237
0.0851572190584677
0.091019242637282
0.0317702788864551
0.16949825744965
0.117498559282866
0.144684288427787
0.117242463550848
0.0788292196331817
0.0715226350777121
0.0685586711211452
0.0672785264745873
0.0588554385333852
0.063950163947777
0.0549872236273516
0.0910488740027703
0.0924907589539683
0.0648287933708328
0.0854204725051704
0.0987494846859902
0.0871414919015706
0.059736593720668
0.165514322709995
0.0636941900899934
0.0838238845102591
0.0899713484740092
0.0881132738015156
0.0508969725219877
0.0974009661310005
0.0822898248484117
0.071832253944888
0.0654621286165266
0.0639822712525531
0.0773100586882311
0.0899298199446685
0.068983600778872
0.0756400824509044
0.0573053807738771
0.0747692330121072
0.0932628356098621
0.141247434555747
0.089598148666316
0.080899048597395
0.0688511359115667
0.0435831941239984
0.113687401440999
0.0985629075426537
0.0726719646846943
0.0685096681390313
0.0535762662842716
0.0629932821040748
0.0510386329361135
0.0690236182557276
0.0510714312269449
0.0685959425695565
0.124040818754146
0.0887080433892929
0.066817528736023
0.0617574255256334
0.0715696984363908
0.074889448908126
0.128078070638893
0.0946933737354254
0.0677765773261742
0.0766207622365339
0.0654604303492836
0.0906284879698644
0.074700670025995
0.0619716763732794
0.0567823295807537
0.0667888969314143
0.0637885267552004
0.064046107351213
0.0570815281155186
0.070775365449781
0.0614796257257063
0.0730093919214694
0.0597195897476954
0.0661701818600624
0.0690598138131129
0.0710552676115153
0.0639251577086977
0.0738154448554376
0.0435702821271163
0.0880469899814999
0.0863807286479555
0.0766942149462158
0.0572185330927195
0.0662842238959396
0.0623352296650681
0.0606778617328082
0.0559002412010175
0.0695454705410462
0.0512192775940736
0.0684225470276671
0.109319436189388
0.0690986508590744
0.0701296600433016
0.0516345571419734
0.0988218915709129
0.0740204049747389
0.0712680383056285
0.0584823302393495
0.0675740421251662
0.0509438000252796
0.0768269598229748
0.110916345977454
0.0731975767002078
0.0621254988275264
0.09486886649542
0.0752692316192738
0.0629059482730645
0.0717161732351428
0.0577203387530706
0.160745815666056
0.0850528509932773
0.100359329915977
0.144397128410177
0.0887740834709167
0.0896371253979127
0.0641964913348883
0.0586815582712969
0.199189757360849
0.113940738538745
0.0759580151359213
0.0683745720041927
0.100705693269505
0.0516991629560348
0.0925123712969
0.0677050476274097
0.106949909270203
0.0966294647267834
0.148144846957633
0.132150799105917
0.0615770299178734
0.12737687610886
0.0919381117643941
0.0724525584955804
0.0615907571815383
0.0663172371691561
0.0656812812412079
0.0873240494637305
0.0821247488819838
0.0832345174584781
0.0681467111469167
0.0722585627819246
0.108112799330137
0.0755509282136037
0.0659176946439344
0.0803239937927648
0.0842144201134389
0.0610701940348585
0.0682284444141033
0.0562885287670895
0.0905475583514697
0.0526376683860771
0.0810208590906629
0.126658733238642
0.0826204135279605
0.0775118197938895
0.112557380352233
0.0638693311603552
0.0697716633118533
0.0554240546142945
0.0708221028378917
0.0538759658019165
0.0637299899589494
0.0491346967921323
0.111946048532288
0.058935660692191
0.0729715881814409
0.0550284956764225
0.0647766276833919
0.0606140952982649
0.0676931152241028
0.061956664806008
0.0677016063808554
0.0604991658073511
0.0595313841326067
0.0907141601667066
0.102524891863274
0.0467310427174172
0.13353493178935
0.0895286012705792
0.0776421888715773
0.0633563883176694
0.0702249096177516
0.0650674089364087
0.0611007906621171
0.0619245093275763
0.0630405024175214
0.0672414408682908
0.0885148242988429
0.0675774429810535
0.0759330659319419
0.0789415663136253
0.161446984290301
0.155045716252735
0.089056958527518
0.0719693751140794
0.0551162915272313
0.124086870572251
0.0974018587694513
0.104290011056272
0.112310994627206
0.0626228586608948
0.0851040901692793
0.0572963170352945
0.0775854906831497
0.0515643411738142
0.0748961412689964
0.0522751809176977
0.0745937075040518
0.054570438319115
0.0797862104947008
0.0577211685198944
0.0902846755508994
0.103322128160022
0.0863313906906679
0.063679002076841
0.0873854981404927
0.0552667352494135
0.130586304633479
0.0821629865684119
0.175595209663207
0.105280640937837
0.126294912616734
0.117482537964023
0.0853449289541878
0.0819405090546366
0.0694909024593351
0.0808017768424444
0.0879865610257456
0.0769472195561054
0.082640263248857
0.0726050263694269
0.0776117111522206
0.0706224919089817
0.0820152605398273
0.077127584611178
0.0807689633454075
0.114745012692712
0.0830296272803459
0.0910920644672966
0.0806455327623376
0.104739078837305
0.156503164075696
0.138566755724501
0.0948612983726289
0.098283440135662
0.0921698463938537
0.0805062795770254
0.0910446947284756
0.0778962705847381
0.0956484928510416
0.0913321552991444
0.139887140880145
0.100616617490468
0.135505968000021
0.120304240609864
0.088632393534838
0.126744013342092
0.106248441933892
0.122820267356156
0.136975626513519
0.10240427839988
0.0863195905779924
0.129728207124631
0.1230839824089
0.112855183569564
0.138892617792347
0.0863109706524963
0.109091345624678
0.0959679783246081
0.119210520486596
0.0926607437194828
0.128239724529296
0.110239304380057
0.115019194148377
0.110793682002894
0.114425212536616
0.105911860409293
0.150926543605815
0.114111764110977
0.121741193061811
0.118658249575483
0.101371390330385
0.111943964130837
0.0982390499554083
0.143545309999862
0.141456975952695
0.141674934301465
0.162772033432826
0.110090306746383
0.130626096319802
0.125239224364255
0.135143526965616
0.108558277353801
0.137669250890074
0.120062394776413
0.128005389391278
0.115356962926785
0.144334396151251
0.122069805476113
0.141782390705734
0.132441264537755
0.133172674335357
0.130262681386543
0.143695508462981
0.143305478201533
0.129859320233264
0.179782035081984
0.187513251831195
0.163933290144687
0.190432162781023
0.137802522467998
0.155878449458481
0.141408381992811
0.160972418542877
0.13355670534355
0.183180186339413
0.137842264831575
0.166520287206681
0.138120950195805
0.167123865355276
0.147189304411221
0.167728315525815
0.153228035843497
0.176115238502731
0.172771568625152
0.166659620898655
0.153701515239562
0.178638540392031
0.160952126387127
0.200747522936508
0.168164332375723
0.207766190263512
0.170003807516305
0.182842218823859
0.178299483892143
0.184223534548724
0.175848449564805
0.180824306882931
0.165065370350925
0.183008140249868
0.162228859541607
0.204825305280001
0.169799082532712
0.18924232692779
0.183445447204798
0.195587952930339
0.194048068446696
0.208122814981139
0.200986783988114
0.206436343884415
0.200773066968505
0.211406089802236
0.191223283688339
0.21368608244846
0.197057314362742
0.235319550316045
0.201052314722136
0.222832614186663
0.198957411930491
0.225234569596588
0.203220613008675
0.212817521925592
0.217008049064192
0.23535222227148
0.21098825631969
0.225256890952361
0.203591690386831
0.243838012831777
0.219564286632303
0.257414088464457
0.227209578879972
0.239594715454189
0.23221744771502
0.24063155137307
0.224822706130625
0.24951754432946
0.245570541795677
0.262796612743344
0.250714382970456
0.261180981582834
0.230108976283761
0.258750561880835
0.234012031382553
0.264987336290976
0.248855345454896
0.259955877243997
0.244326779621348
0.273267096298176
0.244622373879707
0.26470115539774
0.255330307694795
0.274512092100897
0.254982578414334
0.266061398731838
0.263306244225379
0.275544682988627
0.256123543622484
0.29134530197465
0.259845022232106
0.290015561107278
0.263965517340342
0.288766184424804
0.273254636800496
0.300341953870549
0.274374183774784
0.296078210394667
0.27740625805042
0.299147480457448
0.282273537255057
0.300192837750151
0.288736051373748
0.299102712374502
0.289458573018863
0.306690995856412
0.293971238954728
0.312909278822792
0.280396906486874
0.308959998189133
0.298484758419391
0.318174351207052
0.308119845364624
0.31604018305271
0.311286673034332
0.31723647085679
0.309122130000172
0.329968501465205
0.317873001746937
0.334216193662494
0.317107520565597
0.336128884007951
0.329491209425976
0.345258361920252
0.313167231082476
0.330232581912141
0.317548809313736
0.337858258085683
0.328374402603752
0.343782178890104
0.327048991543273
0.340968570993389
0.3065285250294
0.359550281517374
0.33379494368325
0.354833241515886
0.329666765092724
0.345478615971683
0.330274506542047
0.352946015864626
0.34603321771988
0.359336451819591
0.34170759710698
0.36522554347803
0.338467007235928
0.356946605029559
0.346001126979914
0.355069835471792
0.34024132877175
0.366304171603404
0.363788661164328
0.364457537203702
0.355935646573217
0.379053506279242
0.366063122225373
0.37322291842345
0.349875504187282
0.388874387836424
0.357909852866051
0.371835942199483
0.37187476516601
0.368115255600883
0.369714963823456
0.374066399687452
0.358792960790063
0.371474854642489
0.368743758777397
0.384803265014344
0.363030144832734
0.378818500880312
0.367501744379547
0.388284654306707
0.384257542311346
0.39841250686537
0.376544625601097
0.385728749419733
0.360699968531584
0.386351934947521
0.374488119564089
0.395664771673342
0.383937407250412
0.395463909773685
0.388416574860509
0.394126106653337
0.38012205289698
0.398602636303876
0.381092929154242
0.402716897906451
0.381191008164086
0.408748898226727
0.398276025565997
0.39912686146043
0.388119490837835
0.4082544574784
0.390256925127405
0.410646152272987
0.391475169654949
0.40224119017664
0.391600394128273
0.41416200958568
0.386288591853061
0.404404732052906
0.399476860613636
0.420123966389082
0.381132153384427
0.401895616710644
0.400198323540636
0.405877593973384
0.394784046990862
0.404588980525275
0.374181018826831
0.400882307151067
0.397001272273119
0.40183630658094
0.408899707332472
0.423152835596669
0.397478888741823
0.416787187437695
0.403322829079621
0.419384916287043
0.406709646958126
0.404998405082568
0.384601848865225
0.416598857788822
0.421984684797259
0.414915013532765
0.385392209938843
0.414200094168369
0.405331957756973
0.409934017597299
0.395471117584566
0.393067182665708
0.387048441760649
0.421107591651257
0.403540798822818
0.419023723556606
0.396727906289167
0.401036346483601
0.403029307598992
0.40438268876045
0.393508177142098
0.414592125507089
0.402437481461988
0.409951572099405
0.403208735945183
0.404007675782936
0.41028973771549
0.422129635740983
0.406459626572425
0.41213165468287
0.40063039823119
0.42898044803137
0.411902506225343
0.408494763933132
0.406021727603037
0.415715103255936
0.395162963688529
0.401867221427249
0.386448531180704
0.415134839487459
0.401106114105965
0.404062604689746
0.400425152799155
0.416519387564442
0.403892028340543
0.396005760203943
0.397105256683499
0.411865200822366
0.388786319161329
0.401521221008584
0.393018664757196
0.404429208648291
0.397065527358143
0.40563464375644
0.389257732795022
0.40092611173407
0.391384005180643
0.404964213655275
0.391780787538568
0.400642713751123
0.386027441922594
0.400208470690997
0.379359807278419
0.397228130288017
0.388341824319785
0.38980277357587
0.397231837104649
0.396494301267365
0.385482111112177
0.391777321205419
0.382006296830077
0.396120458425062
0.386640502726137
0.392889984281206
0.379784871428904
0.394447004605033
0.388747421127821
0.382584353524247
0.381559176219921
0.396819122894057
0.375965061977171
0.38237559140354
0.380339244490043
0.382117814085221
0.376258601315559
0.385354931759953
0.380933880044679
0.38828680057238
0.367039094459355
0.3838621551239
0.369960203065402
0.37530421170496
0.374234250527892
0.370924601183001
0.376360296975548
0.381048938119025
0.367190043364899
0.36854970988408
0.359415122671694
0.378619481870299
0.360832015186224
0.376370617143701
0.363230783175915
0.368795343641988
0.367817771606486
0.362408574413178
0.355224868617027
0.365914912187467
0.359531009960981
0.364529776849567
0.357585740280054
0.357466432635412
0.352838467582943
0.359979429468434
0.352267701841928
0.361487434899301
0.350205102705613
0.350942724213649
0.344703892309618
0.350170627832777
0.348604293864602
0.354475810075978
0.340826590327651
0.336443088999101
0.337540083073504
0.348985258865576
0.33882022948307
0.340687103023715
0.34002394715185
0.347155537399913
0.338391011013543
0.33713969778655
0.329698618505394
0.343661896694957
0.331171937290456
0.33482086108733
0.327220776004717
0.3360168894167
0.330125611898048
0.328625572295011
0.329360755010594
0.3367259767704
0.315510946698967
0.32990079370175
0.330858842005799
0.321319209351718
0.314893114460143
0.323047703320037
0.318564723561288
0.324844865597074
0.313017290177881
0.320894598806448
0.312637427633071
0.313084931047433
0.312171105742626
0.31677463713584
0.305710450375809
0.310928008817991
0.303734262509502
0.310242089582615
0.302102021965186
0.304135993211402
0.298666096833779
0.302522508467175
0.295887200692324
0.300897282286366
0.29643775072234
0.296330902133388
0.291197723247114
0.302694535965326
0.288129531813454
0.294606416549588
0.290577411314932
0.29606501405787
0.287149197750794
0.293830969622098
0.285866912727669
0.287802344752803
0.284471238094552
0.277664444441007
0.276069400624595
0.289067788691759
0.276797860191181
0.276712471981284
0.275447763520949
0.278089697085865
0.265500491785521
0.271078987442153
0.273293316466461
0.268404842749843
0.266696147578828
0.272019887493999
0.265718524893177
0.265779610318515
0.25740539513877
0.265243958981689
0.256083992796682
0.25640104206786
0.254351858952348
0.260938569749541
0.258933861040177
0.259945296305187
0.255315358132083
0.257335230541514
0.249708302401187
0.254906841527603
0.249076880442642
0.250366536782046
0.248181960313302
0.252961879184668
0.245164084760943
0.247816952090666
0.241940302417309
0.245036655064839
0.233112062374235
0.236873658029632
0.233977605533839
0.234706302240619
0.22747408024762
0.235309913686629
0.223245901604121
0.233206632579296
0.233480535402891
0.229028243779915
0.223152357060383
0.231792964500933
0.223894590589401
0.2271446515785
0.220269703803654
0.222143347052307
0.216232734811247
0.220021707691008
0.220006366313421
0.219976134059376
0.216091290477114
0.216085776206216
0.207290978226522
0.212672002292522
0.216793230083367
0.213375168670312
0.204762862698031
0.206431767259019
0.204549624504215
0.20660361339276
0.201251830748187
0.205127757482859
0.200376625018552
0.205300254713434
0.193994070464472
0.194950154696142
0.203964898667756
0.202343248649973
0.193045561369178
0.195511785910604
0.191451321471289
0.193195884621516
0.188104121229577
0.19336109746317
0.192101991877773
0.19635165728168
0.181777577312947
0.186055790498574
0.183679830240294
0.180496214546195
0.187258588901514
0.188653465273595
0.182899357966275
0.183526852456261
0.179317528212668
0.183287848969913
0.179070582178332
0.17643194494316
0.171755345516141
0.176740795887738
0.173260957949153
0.176781064512286
0.165975084687532
0.169916253037004
0.173507647283926
0.175483436051338
0.169490856670811
0.173368550842019
0.167755765883988
0.165890470493908
0.167637637658936
0.170064713780055
0.165834734841633
0.165805044353401
0.160204644242167
0.16417483078282
0.162864311267022
0.164633023948406
0.159278997981845
0.159408339931815
0.157579320974972
0.156637942499605
0.150152115060619
0.154990679699964
0.151416590203892
0.156530929110906
0.152235381700305
0.149748615390905
0.150883319080198
0.152486314727343
0.145830086144894
0.150813519568144
0.150906566029294
0.151796032302
0.147734973408926
0.148206628218694
0.142704332980558
0.150285814717777
0.146119741025441
0.145760284908731
0.139160949345926
0.142682616537586
0.142272850903667
0.142727946197987
0.141477622684666
0.146751986798395
0.14077650360292
0.14293724127671
0.140354843452337
0.137935886903281
0.135356974262074
0.137429557570473
0.13379125080057
0.13631128061306
0.134149322118731
0.136194554198239
0.134002042723741
0.129396277711254
0.128503285404925
0.133617977683642
0.130510826587536
0.133166088721241
0.128621538480483
0.128987011653538
0.128400528515483
0.128311102354003
0.124533111195823
0.12610246160833
0.124305898925999
0.126136692856983
0.125898509451729
0.127589226504758
0.124582080495498
0.126684050944906
0.122640644097813
0.123649065221769
0.120526643473677
0.122702585269812
0.116266584722752
0.115983111670452
0.118355084667129
0.12298765696273
0.119508485124338
0.117670341752337
0.114110212567293
0.118956075388452
0.115378632995471
0.115732220963241
0.112563237648304
0.115274334745755
0.115217392754388
0.116553414881066
0.112200920215225
0.114454743903814
0.113891691806094
0.114441249842817
0.111860405466809
0.116136806553629
0.112913469060253
0.107752771240641
0.105658987257005
0.10786789132679
0.106905151474138
0.113028477011467
0.112478063800988
0.10607021967855
0.105256163940503
0.102911324246276
0.109309585901022
0.112045624328765
0.101572333893801
0.106511002235017
0.109725119885386
0.109653610035348
0.110278062811776
0.104627039335179
0.102276121762347
0.105596944345835
0.105115765653685
0.105386719955464
0.103429597153419
0.109754084823722
0.107985524024963
0.109916078342794
0.104276709368844
0.106502913998278
0.108787863461022
0.111483026711737
0.105680784893865
0.10773719193944
0.108690743066517
0.111253933671955
0.106565163578881
0.106854464031549
0.107494977053452
0.112296335521421
0.107550273677152
0.108507461889231
0.108811636584808
0.10685678161574
0.110155617763364
0.114291678962974
0.113235517050928
0.114495946561099
0.11289128981316
0.111523653558219
0.110410761799408
0.117880956129518
0.112692287663638
0.114100225312242
0.118064412376907
0.120255843695882
0.118651886536481
0.118415805096067
0.118445752040644
0.120634621987265
0.117110151569959
0.11589506832988
0.117949187473461
0.125073884789038
0.120133706695309
0.12420988270648
0.123924922644916
0.124018660579415
0.125206922290152
0.121628060547133
0.125398575228503
0.129175473504408
0.129291594067558
0.128131127749658
0.129901206181442
0.129276133777095
0.129321296867878
0.132253331948828
0.133712387575074
0.138148284874517
0.133042743887339
0.141345068285761
0.140832129931758
0.138527988773369
0.137922909713155
0.139337404590266
0.140320485876059
0.14171523495075
0.142354216998304
0.1415885540359
0.143723355709977
0.144881980437286
0.138984792929589
0.144778561095046
0.143267667574151
0.145050028322986
0.144517958512059
0.145549651735066
0.146258185515236
0.146873798603418
0.141306127672282
0.140006676547275
0.140630512099635
0.142180720310911
0.142721543313095
0.146230021176279
0.141759442678938
0.136699644272433
0.137541877127004
0.140181629587062
0.143068835098836
0.145999985970105
0.143464412616589
0.145627310142439
0.139092730762746
0.139206905173764
0.140670828876354
0.141578965125919
0.134024425724745
0.136407248412404
0.141436827614535
0.14384449109112
0.144565776494587
0.14584174767313
0.142329362206351
0.143876911103068
0.144192806962917
0.143057160907196
0.142648569335388
0.144154092723024
0.142639383725113
0.141463924154747
0.142029435001074
0.142946456585626
0.143908304033585
0.142464690453375
0.139323931367391
0.142114181054531
0.140501691125086
0.1426386894691
0.140024693537786
0.143775079377314
0.14356022213068
0.144411863588206
0.140138025930951
0.143690065720562
0.139681767386233
0.137781858951214
0.141912679330105
0.137936661609457
0.140437801668872
0.141520509519611
0.136284779965381
0.13676898786615
0.132583161268449
0.135283048331349
0.133031139115306
0.136167299127603
0.133885290942732
0.135753484389215
0.129647208112782
0.133007140393591
0.130746883874528
0.124786531567255
0.125753193917084
0.129411879176874
0.126294647136081
0.121026098772017
0.12355620457708
0.119828975658192
0.121350249118853
0.12007568655847
0.120820430191535
0.121705528709224
0.1161769583919
0.116878766093758
0.112501885798694
0.112115218778465
0.110838559188343
0.114607607982589
0.110001944679759
0.111449560315406
0.112626320791458
0.107995123221335
0.107445300187943
0.111816861147324
0.108528983729603
0.105971926289699
0.105193289864564
0.107980943394951
0.10466669930785
0.107454408123033
0.105131818630444
0.102493258454979
0.100281511786263
0.0996273810309509
0.100192371698864
0.0983010234143776
0.0990295871963071
0.103219383010758
0.0991947643473459
0.103204732591439
0.100006409270064
0.0996021261332848
0.0953646338497446
0.0905496472442886
0.0993408088607005
0.0983624903903553
0.095166163907881
0.0987962122985507
0.0953695856754138
0.0922475292733656
0.0937888755031249
0.0925132044781444
0.0937231249776289
0.0928752732957129
0.0893030850870508
0.0923610319570127
0.0900663746352953
0.0904149066456073
0.0890719573164673
0.0943445578823676
0.0928071829585238
0.0913303150665469
0.0868717760395703
0.0913411993715131
0.0937324382358838
0.088483378301899
0.0888053606128248
0.0840725411233693
0.0882561308219833
0.0859381285255077
0.0866348906727726
0.0888959314990507
0.0839902221618597
0.0861427952753191
0.0856865723182051
0.0856334387418826
0.0848538219676496
0.0848013773555944
0.0835923438526746
0.0825420582957637
0.0818134463244906
0.0802827215068932
0.0833121050663844
0.0826667672530544
0.0833351654405687
0.0822029998871155
0.0817451426202625
0.0786358590175345
0.0828191854923677
0.0816478951637579
0.0806691134756238
0.0846498595719048
0.0828931993378492
0.0812627260970396
0.0805428346253866
0.0792941908506012
0.0779769608352989
0.0788237561595074
0.082101567094266
0.0845367065187431
0.0791440838149479
0.0808406166637018
0.0796581791727535
0.0777225095701853
0.0811320534966673
0.0770645571958967
0.0773626065115342
0.0782641710876684
0.077589843350799
0.0775338026595495
0.0766200516605839
0.076649120270573
0.0762291466242975
0.0777142250600153
0.0789921909965733
0.0776446502956096
0.0760132459423259
0.0747170155999398
0.0779061097611081
0.0784868269322222
0.0737382101202412
0.076913827305164
0.0724552923535573
0.0746948737187198
0.0785261650323724
0.0712426570960235
0.0751996086061284
0.0743821588507032
0.0726416882530352
0.0723033856290171
0.0717515396141225
0.0746152601780508
0.0710476785233073
0.0742224857083188
0.0763531958027664
0.072177204041072
0.071408013647712
0.0728588483679123
0.0740815203343207
0.0769787694796092
0.0751113447447923
0.074363094951392
0.0740466292125651
0.0707005593162003
0.0678302554514051
0.0697560461019958
0.0714979677850245
0.0734433557635575
0.0736055507293259
0.0742339194941092
0.0729676389068026
0.073807727589204
0.0734581263047029
0.0718889337259836
0.0726385382599931
0.0765756730707449
0.0715488477565014
0.0700796849542597
0.0692727916163597
0.0699371047449446
0.0721068300585152
0.0712050831026464
0.0686374408715827
0.068546645173655
0.0689499693398893
0.0723679317985652
0.0690533108312371
0.0693849812920903
0.0699368388755488
0.0723301970856644
0.0697590496591828
0.0684769280574164
0.0710925826618393
0.0676527917396171
0.0689853043092219
0.0681136789310355
0.0673090324436158
0.0659054978490541
0.0675067863896048
0.0706439799567766
0.0650431289178173
0.068464005945018
0.0669162139956754
0.0687781268087408
0.0707527235194979
0.0687096361817465
0.0660602224042671
0.0659640041044864
0.0620278323389983
0.0656864271484331
0.0638497612170396
0.0645315479634363
0.0659575284797667
0.0670120798320083
0.0666048134714664
0.0680744416598808
0.0652979118313117
0.0661833771803606
0.0631878016983908
0.0626839116323454
0.0665735533058341
0.0653629159359154
0.0622988509115059
0.0648982309894867
0.064558862357795
0.0620665114033633
0.0644142240528468
0.0640513260935362
0.0610384584601667
0.067048488580449
0.0661796362029275
0.0650665806830765
0.062674705825982
0.0652980840043813
0.061011040880227
0.0616172544816492
0.060840765848937
0.0626893552146472
0.0592613769744715
0.066753359580558
0.0620137860270653
0.0607128545557275
0.0612892015746809
0.0605385931476034
0.0605496447332403
0.0608806813491392
0.0628433177933089
0.0612690448400922
0.0627175613535107
0.0602599026745313
0.0598453552554962
0.061376578277529
0.0607000136577502
0.0596926485288327
0.0577543446797523
0.0590557830618206
0.0575002171719895
0.0584934644270023
0.0584850116307538
0.056943672376939
0.056314986148667
0.0575372903234639
0.0569933795462092
0.0575693228957037
0.0560109158626288
0.0539682939795723
0.0552518389152582
0.0563748048234729
0.0561081080076166
0.0550871080777604
0.0515925707107452
0.0556914001355734
0.0534007491672261
0.056033973941226
0.0551173878066501
0.0561902896858605
0.0547263364134979
0.0553431471746369
0.0546982065014553
0.0554415635153629
0.0524268191492436
0.0570158517952795
0.0532669978077519
0.0548241598001754
0.05347208625718
0.0551285799592139
0.0532628145204295
0.0521213109837732
0.050798958604472
0.0535211110712138
0.0529692662258801
0.0547770315680725
0.0508434716443362
0.0511683972159229
0.0505995556944199
0.0519539748595913
0.0542886268051935
0.0526016417991493
0.0512480848315572
0.0533423761941103
0.0509870737598271
0.0546474241596728
0.0509392801655863
0.0524295640256174
0.0520307437362566
0.0519146372366357
0.0514977023868256
0.0524932032966757
0.0480327529017833
0.0518093086730791
0.048951773953919
0.0526338196226897
0.0500271910012457
0.0524673992203583
0.0482458826770196
0.0530479537694699
0.0520347958824357
0.0501700563804482
0.0513046919247843
0.0508172594595058
0.0487377680772898
0.0481786472710425
0.0471546925081292
0.0458167250348173
0.0468602973827882
0.051542895234005
0.0474136030272525
0.047484054725184
0.0483813105766071
0.0483669606350397
0.0478848573126745
0.0491011673127925
0.0486754688640444
0.0483818846435571
0.0477030663941612
0.0496609050984797
0.0466186403793405
0.047931161042733
0.0446383461002692
0.0469190964586336
0.0465681015797638
0.0493107249384042
0.0487683653216125
0.0473137109906152
0.0456740928530617
0.0455492337559551
0.0461084139903827
0.0490139204132866
0.043744318162255
0.045974166738994
0.0450889808758864
0.0468892753498668
0.0474828377959193
0.0493078983892389
0.0467457461983279
0.047816345993761
0.0436874476100218
0.0487697992012639
0.0453789784759823
0.04616938347742
0.0483923647617812
0.045631301775629
0.0475487524315558
0.0494855512854062
0.0467754381808974
0.0462458636832269
0.0447955878588439
0.0475937850640901
0.0444063498688317
0.0473129714916966
0.0447757398731035
0.0469382584198818
0.0454105199404659
0.0450454590258614
0.0455169259372217
0.0462376332957737
0.0455952485370496
0.0457953633336044
0.0442495792492615
0.0456339061489446
0.0449878737571536
0.0466278768387784
0.0436074725751735
0.0464620316574033
0.0406385799214508
0.0467763359605869
0.0420318782807781
0.0430709032814741
0.0425521155471546
0.0445431499581141
0.0427075175255356
0.0432342397748174
0.0435531575945691
0.0422281748348302
0.0419893944386823
0.0441330437172192
0.0435520628504332
0.0412347650160919
0.0414373937146831
0.0426299116567082
0.0441167148755057
0.0459799128104837
0.0404285227383948
0.0423839838247691
0.0403932171868548
0.042060534790054
0.0419755904698131
0.0442586115231068
0.0431312808782993
0.0432136372501602
0.0418067459610102
0.0427147987474061
0.0422483595164327
0.0416761773820944
0.0400178988259741
0.0428376940944533
0.0418333393000495
0.042094911139891
0.0403014909255841
0.0465850163600995
0.039227261343928
0.0429680188169491
0.0436297193364712
0.04486917341909
0.0408451234943017
0.0400841358607594
0.0434802350670197
0.0460483197215063
0.0389492008407182
0.0441360938622597
0.0412320382911075
0.0424200884990034
0.0388862862955724
0.0416583261657109
0.0410004916309566
0.0405413078625142
0.038091753866284
0.0416172752660724
0.0377723134126762
0.0403592394082419
0.0430636301622799
0.0408678745004989
0.0369107854452138
0.0410974635642105
0.0385750143292915
0.0417939105534994
0.0375424048279412
0.0393188564735388
0.0377692701650159
0.0411264035694792
0.0371325499106365
0.0400099610729471
0.0367752456404626
0.0396691189631665
0.0375084610413587
0.0375773160998078
0.0376140689258412
0.0372518492993027
0.03744354603442
0.0368037412095182
0.0364274872095948
0.0387480753484459
0.0344909263679539
0.0397451982866213
0.0352336640303627
0.0370881876502593
0.037589656248568
0.039385039677146
0.03784547575688
0.0380016843224298
0.034705608598941
0.0412242226644787
0.0369003940459806
0.0387839559438293
0.036047427768487
0.038645715441284
0.035883354011194
0.0375840473065861
0.0377078731262071
0.0374453815535095
0.036563782588669
0.0413650232670601
0.036630996952946
0.0366225812084369
0.0378034739400091
0.0359090822066032
0.0344803437459102
0.0369500346833821
0.0359963214701606
0.0380470321042279
0.0320863200194147
0.0369635224966051
0.0353249380871164
0.0363590631050732
0.0321568145384559
0.0381825088504905
0.0337724671243944
0.036511208227121
0.0343859555878336
0.0378992655778814
0.033351258900983
0.0378964802819047
0.0342345386957556
0.0356549312900334
0.0343404243794231
0.0380106879426353
0.0330922498641757
0.0338058277348613
0.0335917964319699
0.0380661518085469
0.0321932581416682
0.035721502068421
0.0308548191704158
0.0363139729593916
0.0329570459036184
0.0354535306725073
0.0326554444276741
0.0349006127064288
0.0339597425259646
0.0365696045269943
0.0331785218237684
0.0335394174052595
0.0323683378104812
0.0328758492833893
0.031900249735484
0.0342955061318425
0.0343442666930451
0.0340512386746443
0.031331514935983
0.035458169125499
0.0319195856593221
0.0331858112778516
0.0318784391028478
0.0342014265050193
0.0330298016649291
0.0338355626533293
0.0308706506092304
0.0366351039722472
0.0318034894151949
0.0362188226741929
0.0327068810952985
0.0389709806853074
0.0326719530283507
0.0386782999588652
0.0336673909192073
0.0389440960665474
0.0380971798428255
0.0409105751102168
0.0366812902915556
0.0445078722939746
0.0341580611602434
0.0406254480384013
0.0314746719561547
0.0379826918678237
0.0246851055174952
0.0343896914962882
0.0295268080435955
0.0392985096869945
0.0240088063698927
0.0303030017875829
0.0309145921577647
0.0430396643776722
0.0218617470310507
0.0342462672369164
0.0266164228056682
0.0316077861060361
0.030040012447705
0.0309759601801017
0.0216110913064229
0.0373243942717393
0.0281353691247056
0.0403744146185475
0.0213874883347596
0.0435038806287995
0.0306991608705567
0.0416874842446979
0.0215181112491827
0.0413023575509126
0.019504226893335
0.0413495145532144
0.0196100134790179
0.0401356280186164
0.0182488584223747
0.0420466676598674
0.0192351849301479
0.0399454580569697
0.0141197366012928
0.0486446301378308
0.019361286969485
0.0468598241377583
0.0126218167088374
0.0433808087687562
0.0102312583024998
0.0455077096452708
0.0164919268126158
0.0539962033166136
0.0217438819948258
0.0447040429257089
0.0170546631683172
0.0357355953277863
0.0278507625064046
0.0422071868595369
0.0262169823668759
0.0257760028466613
0.0415427419540522
0.0330251085836262
0.0473471038018399
0.0110014098160616
0.0605885601626839
0.00913467046815334
0.0620773523913055
0.00626059571665648
0.0666312785864141
0.00353439324323451
0.0615931583301639
0.0144110175704011
0.0531745821100393
0.0210518522865178
0.043608520038864
0.0276993720200075
0.0368502873064765
0.0339863759796277
0.0308954505909565
0.0329806457260295
0.0307837051538475
0.0293681061293498
0.0362395627791307
0.0262717506141402
0.0374315851228531
0.0235055602560384
0.0352808657387743
0.026570309422724
0.034750707133605
0.0271116155547358
0.0341350901333904
0.0291860004806597
0.0311008619628302
0.02722877470736
0.0308201189382175
0.0259722084282851
0.0346463151372234
0.0260535670021168
0.032097566078242
0.0263785909746838
0.0326657069130573
0.026604719758834
0.0301991274192879
0.0274681864285584
0.0322262288966842
0.0270484751147567
0.0311710536212166
0.0277196798596088
0.0279059704565733
0.0266724571308778
0.0309044068888643
0.0257443939971641
0.0291271427605054
0.0264041297734107
0.032422147227599
0.0283423683733371
0.0322778115813979
0.0278315041080031
0.0323792073533463
0.0268000078335138
0.0312536236524339
0.0271539028154732
0.0297645105101912
0.0264059821594532
0.0302216708716506
0.025366559296256
0.0297100152746165
0.0279092218155295
0.0302444892546542
0.0301260542286815
0.0323257092044556
0.0275637363319825
0.029431794098022
0.0284918446952109
0.0290314443680889
0.0269484680907606
0.0303677863771363
0.0256345439869539
0.0290849621860119
0.0269739779447516
0.0307106019086601
0.0281107832058366
0.0289368649708218
0.0282586499695812
0.029453322567996
0.0281260748825462
0.0292522791690488
0.0286960365070995
0.0269771377211762
0.0265261714348632
0.0276986017697889
0.0269954689197549
0.0300400690442968
0.0279433763712283
0.0283138748288786
0.0271420566257702
0.0267583251040771
0.0269079477769375
0.0283388691147726
0.0268477717365544
0.028690096913716
0.0280428325358165
0.0271315358614072
0.0266940486028794
0.0296442435067512
0.0259708641038471
0.0278173890420981
0.026151676929556
0.0289233108221149
0.0276251787212613
0.0292869008234992
0.0266319602539691
0.026834865419867
0.0269369345448414
0.0285433880558688
0.0298371218112833
0.0281571456712287
0.0271749084619769
0.0291336208648968
0.027052592605815
0.0293566415405977
0.0287008753848441
0.0308090749617893
0.0276656107563636
0.0282465232978874
0.0272753742200238
0.0286352384171764
0.026500806160474
0.0302302215442822
0.0293286889438242
0.0275094818757652
0.0293667996524219
0.0279297670063777
0.0289284763084326
0.0286837490449067
0.0283836958101605
0.0273742978577165
0.0290687765100988
0.0284536772252739
0.0267199536686238
0.0285371413741813
0.0286044740999588
0.0293828077699006
0.0286550002459802
0.0283230810444885
0.0275022332699705
0.0289691725435055
0.0260171309741261
0.0278196335621256
0.0284325495091566
0.028196930327662
0.0258415588538901
0.026538063390315
0.026502253631803
0.0269909743378363
0.0261807296178594
0.0277153721450182
0.027568624852643
0.0275302411489381
0.0290523575460125
0.0287009888346047
0.027480176589956
0.0281905110189109
0.0263417826215429
0.0274650932285325
0.0283352930353577
0.02826711618569
0.0276297928187817
0.029844062715804
0.0285674961121467
0.027041078845357
0.0280591982847368
0.0290357675191934
0.0284269943732164
0.027881550511888
0.0301067514074925
0.0294829702741982
0.0283621852002362
0.0274825539886533
0.0297817842002974
0.0293154197760091
0.0277273732850808
0.0291237220122878
0.0276568995547404
0.0275620948807192
0.0270057159908576
0.0280953370253574
0.0284332484835352
0.0293198561553351
0.0290416026243137
0.0277562355222962
0.0275572429233731
0.0256287219024683
0.0278945898241279
0.02870384207619
0.0285984742968316
0.0298482735613574
0.0269056591734241
0.0263712496483727
0.0271284163558398
0.0265081341112132
0.0277461700137663
0.0271711731489548
0.0266572505267608
0.0277317431644013
0.0266312952807863
0.026004207300677
0.0255170196917701
0.0239260052096383
0.030357850413784
0.025736451158779
0.0276269221099325
0.0285116314625227
0.0273453338878293
0.0265753842256784
0.0264033427575792
0.0259525925253751
0.0263662167293603
0.0259537677636944
0.0269734219019752
0.0270854241442405
0.026636849346799
0.0290984380950129
0.0278617436732143
0.0254889302892344
0.0269583487227557
0.0262838822954643
0.0267304402800273
0.0259408784795146
0.0269579172627076
0.0272247252732133
0.0259602033410546
0.0286244801717418
0.0268966176779037
0.0240856733190096
0.0256645748649239
0.0250823113121903
0.0276612019768751
0.025317197770504
0.0269268488576537
0.0262337445895986
0.0254048144202361
0.0253534347018876
0.0264174199997233
0.0272212161020817
0.0260857288900045
0.0270763728989614
0.0259395562809765
0.0269208856414607
0.0279838676843307
0.0277979416910935
0.0273035975428292
0.026583292978993
0.0263520480435177
0.0255894702686129
0.0268862422293844
0.0254861163277235
0.0249234856967139
0.0261184184656438
0.0262234160086556
0.0259950298846591
0.0247042523546524
0.0245990229369796
0.023804319951208
0.0243572952439081
0.0243468428608843
0.0240415238341357
0.0248145851358432
0.0255838276595802
0.0250282907682825
0.0274292173549305
0.025252524818483
0.0248086320425418
0.0247870699387424
0.023992973340552
0.0257757282399806
0.0276999076917498
0.0274558560381589
0.0245651199198763
0.0269694689584549
0.0230610250761373
0.0266292942298925
0.0234160089512723
0.0240477888328476
0.0246058777660886
0.0261612501539286
0.0240013662192429
0.0258032863028595
0.0234718407634464
0.0263564873505274
0.0260326969245604
0.0231365010376884
0.0241176816204469
0.0251382662032046
0.0249996561016218
0.0267743302486299
0.0253757390581032
0.0242305724750981
0.0247952341172316
0.0262948991476091
0.0242428075073738
0.0253278592808576
0.0296618607647779
0.0258959045618872
0.0248263121410317
0.0258590057287303
0.0240030476339958
0.0258426483973684
0.0243261421908565
0.0237039598161367
0.0228918206034346
0.0219412755841876
0.0230576040831332
0.0250464438087958
0.0245144917894802
0.025058937858269
0.0223751495432826
0.0245841417754452
0.0267840007746059
0.0233151617724028
0.02338723888746
0.0249194367192256
0.0231000580569131
0.0233061412928131
0.0225684728473696
0.0237297640499128
0.0277969244852307
0.0261746912982489
0.0290007610707101
0.029088722376619
0.0234935283755562
0.026282900559798
0.0214238418323943
0.0251494297802336
0.0214224367594404
0.0240759478098872
0.0220175312445053
0.0228726951810739
0.0231329885178624
0.0236218651766124
0.0217917867512616
0.0235167106784683
0.0211853937582833
0.0236661346968701
0.021863940326844
0.0235360689917226
0.0204808162113718
0.0229975449852297
0.0219564254878826
0.0244166155735537
0.0224229243250621
0.0243449065551402
0.0178806480990005
0.0269397348262774
0.0282866514402869
0.0388589431093777
0.025349672529795
0.0232904168290301
0.0245229202766946
0.027641291452683
0.0212339216946643
0.0227358762154301
0.0236242506251782
0.0217766237459512
0.0230798022317387
0.0217167824982464
0.0212994210588616
0.0230463471461033
0.0229370447979892
0.0226408446195408
0.021433075106419
0.0240841995252394
0.0214030551967939
0.0226418852467321
0.0232339167496701
0.0226117922180327
0.0215493896112743
0.0225591399515217
0.0211315743147396
0.024051172218772
0.0237035314468846
0.0322140948961239
0.0295021155991848
0.0245379896081449
0.0246208908942258
0.0195378736966108
0.0222328107254254
0.0221570867406347
0.022716544668865
0.0227091483780358
0.0219475188048519
0.0222835937224239
0.0225292611289257
0.0243208305051691
0.0252761902236097
0.0227086770494661
0.0212148995030268
0.0213906910323575
0.020422987332963
0.0206919104556029
0.022318733069415
0.0207196134243476
0.0218797170509903
0.0201282544846271
0.0267426952399371
0.0210095570711087
0.0241622465010391
0.0286247752540769
0.0416026397539633
0.0258323824139733
0.0230171685215044
0.0231537074342312
0.0184443751833693
0.022715689966699
0.0207429921593498
0.0225645123809945
0.0205598624961216
0.0224367288371534
0.0219001851859528
0.0230320585250724
0.0221504146868048
0.0223816637994245
0.0202543867352921
0.0215582565521873
0.0191396083378775
0.023951932738747
0.0199169506451188
0.0211394537305893
0.0268142656252741
0.0369108290055437
0.0307237765932304
0.020949235725796
0.0234506089197015
0.0259671556900762
0.0341674533649681
0.0390280723991522
0.0151940892033915
0.0282037960512734
0.0161830420648318
0.0232272277672503
0.016718981070764
0.0235491396583959
0.0172193490166802
0.0323875571320321
0.0224874956114087
0.0262747647887422
0.0225161647148812
0.021693416523799
0.019034167390925
0.0214567170313225
0.0174204635019153
0.0212622954926137
0.0180821574539716
0.0196843439792992
0.0193342394989097
0.0214091222148721
0.0181792808875281
0.0239245420881608
0.0220896479467808
0.0324335256849981
0.0190605059522886
0.0239268205113117
0.0194340937524403
0.0241826672717072
0.0267338423155536
0.0410946475883138
0.0225660503832986
0.0216322579544489
0.0227589897215756
0.0217709494738005
0.0240829010529052
0.0206022263666089
0.0209164781110243
0.020600557774875
0.0188818721894056
0.020901884794639
0.020463466261503
0.0193275459249388
0.0214741846516249
0.0193418593768361
0.019729688586795
0.0208569003360896
0.0213295741373544
0.0209807191351374
0.0204279566995204
0.0277165995321411
0.0314322967478147
0.0549386229823699
0.0342326580982513
0.038437021023031
0.0258294818024356
0.0251897921946556
0.0190622461713045
0.0248807125464815
0.0205342714045503
0.0254506233273376
0.0207527441119737
0.0242655222429654
0.0206203276741926
0.0235446192513292
0.0180349626053912
0.020621419779921
0.0179140886609685
0.019729862758548
0.01839325964733
0.020522475144065
0.0172835854888239
0.0177544962400717
0.0226675399789939
0.0305499626640258
0.0333315122486025
0.0211796850337551
0.0334829047295429
0.0371027475664176
0.0594008673473691
0.0255893728542441
0.0315224546818535
0.0222881174224402
0.0189102280398123
0.0201952157451932
0.0237357395030567
0.0285020396968961
0.0245111955450645
0.0196049280441224
0.0220590801845514
0.0229062289678824
0.020306870684226
0.0222255394454867
0.0349629056414961
0.0576891930660613
0.0396598123017851
0.0207694673223329
0.0255097387146562
0.0294913463131815
0.0495675334582059
0.028820203937259
0.0191961382739927
0.0308974853123
0.0188549971848325
0.0228803863643596
0.0168167582567181
0.0243639739880569
0.022719121991185
0.0249554720164868
0.0165101854506177
0.0208014791369233
0.017928285444274
0.0238343174393061
0.0290493465608825
0.0353143748202144
0.033260170365028
0.0260472209443328
0.0235264875493351
0.0286989275026322
0.0202856952557134
0.0271167263338069
0.017487762501767
0.0248150520310068
0.0316188301380008
0.0419686962451095
0.0327439223282268
0.0416861295974062
0.0348449171809068
0.0238634977853467
0.0232777265285053
0.0412404335921716
0.0217267415527762
0.0323285491429484
0.0259648668330092
0.0633792195107141
0.0460346885552754
0.0435995385354772
0.0277210760576065
0.0205960625571955
0.0237639600823659
0.0170745216256783
0.0314535250134845
0.0305240116098863
0.0340397594433954
0.014923195396495
0.0312059635467951
0.0294994256610342
0.0455646971441298
0.0255429295543601
0.0304809609588475
0.0181039043176892
0.0296523722791641
0.0319017396702044
0.0339216615909035
0.026951253326083
0.0529790612286111
0.0748353420998086
0.0471729890878574
0.0359221815564431
0.0286476593483221
0.0536952354349976
0.0389472719074594
0.0229682750281696
0.0301981235884931
0.0175534336651693
0.0272309985928541
0.0326905511843972
0.0530817933034798
0.0392553484241683
0.0219162577302936
0.0310577938383116
0.0326703285614051
0.0424789548896647
0.0430344217704033
0.0205428572457663
0.0268561787121652
0.019631719539385
0.0396092429318315
0.0515450623974178
0.0637454829168198
0.0357322720908915
0.0667884787196058
0.0503622519738338
0.0451238029187847
0.0377187812883327
0.0356233481962248
0.0496768497270478
0.0523474265191596
0.0320505478191906
0.0311894835914212
0.0439717267263833
0.0551647332275626
0.0377048083205691
0.0299971666693011
0.0333639323788319
0.030489894335987
0.080029386228159
0.103729389911748
0.063990404800612
0.0377934197153607
0.0459815273410514
0.056496979766356
0.0440238187897521
0.0261441812190967
0.0320102281092109
0.027419066229355
0.0274941533572768
0.0323296911550291
0.0368161258419694
0.035291937887702
0.0288778800255834
0.0320534720182245
0.0340011943226914
0.0632446726356312
0.097821798624201
0.0743383446269361
0.0643649048531238
0.0650301774411572
0.0725157755168795
0.0402533604042359
0.0389668846033638
0.0308617716544327
0.0465057698212012
0.0373582604685163
0.0323770922118895
0.0433314876940208
0.0545400492102192
0.0608185285037185
0.0603321851118783
0.0595258313923803
0.0442453353699017
0.0421362489324614
0.079909021287481
0.117544501402097
0.0987719061304798
0.0433595940949141
0.0785692043255923
0.0605235760350548
0.119281198226823
0.0639956226211328
0.0447883139286521
0.0433296810755606
0.0458126521610551
0.0473525059558001
0.0610631581135292
0.0596274943474111
0.0702799142505637
0.0525496705893515
0.0661024813106694
0.0669444446760578
0.168176481705231
0.12033738409922
0.0879583604239102
0.064679687558703
0.0861886771254587
0.0785990611837225
0.0689627957593591
0.052802660585316
0.0692437314957518
0.0724482362219337
0.112102533165778
0.0798537078776683
0.0692205409732703
0.0882324717862421
0.0880290049101281
0.0926319123430642
0.0937200302438455
0.119046012428928
0.0773826866058363
0.0803479729913735
0.0746883444922869
0.0780511590809737
0.0846730364952154
0.100371396797841
0.108369901358962
0.0812938610120985
0.0885692874449745
0.0824693916242417
0.0860432662518038
0.0859197003268496
0.0889255532363201
0.0936035513143317
0.131447620984505
0.171760185831607
0.190633428485214
0.139302474275572
0.0957463824933647
0.0949162911051873
0.105501024616669
0.128177316602219
0.142567687361568
0.127319367538954
0.121255034962069
0.0903543821655226
0.0959418981362726
0.0933607387845813
0.0891570992584485
0.0946067343136937
0.0895716441704628
0.0954340505947761
0.106327874358158
0.11585903597258
0.11559134863845
0.157722133926858
0.107424784202189
0.0922412471110007
0.0903223204791772
0.086687201945842
0.0895345348195728
0.0845716178514749
0.0974066948875433
0.100483960203438
0.0924601804266818
0.0819788749457898
0.0933516792011018
0.104414691702783
0.117304636871671
0.0910980316653322
0.091237315944047
0.0846899449999969
0.0826158169706655
0.0855477304232829
0.0981669712010872
0.130010467354472
0.101930244925178
0.0784001964842003
0.0842842125953267
0.0764378082459382
0.0807536936256604
0.0735647194193168
0.0876192100707761
0.0778614337357012
0.0806621107997564
0.0789761960892489
0.0822780362691477
0.0729520080436691
0.0794371065186829
0.0770169341031532
0.0833312946589914
0.0745124132915575
0.0777589142036951
0.0704838063737652
0.0762274560409753
0.070159195010855
0.0817034441873903
0.0751813939346546
0.0851046300655676
0.0761193795359667
0.0789495222912847
0.0725939131072129
0.0757118761220151
0.0720949012595133
0.0768057521884728
0.0688138299280163
0.0751378412314001
0.0726124058649723
0.0731019510676762
0.0670720975291392
0.0737226876201591
0.0704401057008353
0.075239700015176
0.0672984752949147
0.0734947126242379
0.0683845255585127
0.0780994797762447
0.0886487784176656
0.119382075412557
0.0999288104536731
0.0788570405181807
0.0716820399063661
0.0737120915896287
0.0699571920084556
0.0760454272235085
0.0985246215850941
0.0998096213692057
0.0746630548284281
0.0702903241229291
0.0676244102332363
0.0881915620506644
0.0753669312097329
0.0703043901634419
0.0615501813818154
0.0779966680562685
0.0817250389463444
0.167053312860322
0.169463695022935
0.161809641564506
0.0880786690746692
0.0742620322696138
0.0903599876938612
0.0974423928854004
0.0690505577164738
0.0644265344110202
0.0681789373830653
0.108490883398328
0.0812567646248361
0.0652937173847862
0.0574707070489583
0.0673626509958153
0.096325371677445
0.0958666371136881
0.0876511183313438
0.0973132786671995
0.11096105366229
0.109043708533903
0.144362081146302
0.152302456778528
0.0955084789673359
0.0641996099333496
0.0630428842220185
0.0682790935262974
0.0765962199473151
0.119186638021892
0.0803331454519691
0.0759554269767398
0.0561652366837482
0.0571874282341592
0.0656079866407846
0.0901698046847848
0.0728277995578223
0.0876650764836203
0.0901543668518185
0.068017743832271
0.071196727964013
0.0971966562296586
0.111954703894535
0.12565445409164
0.0660527560093521
0.0657771143891217
0.0994938065862495
0.109321454901741
0.079300975965345
0.0769274234176605
0.0475519535046607
0.0664345277639425
0.0700029758961628
0.0628838104145922
0.0820187976432518
0.0918010325785747
0.107551532090169
0.137725278503673
0.154950517794884
0.116783457970821
0.0684097656498771
0.0530310632800494
0.050854381438419
0.059915058967714
0.0520079963615423
0.0567827104674431
0.0844760238643863
0.0651460892857568
0.0608004994177785
0.0985364916810988
0.0652619959961341
0.0512214256410145
0.0472637823067719
0.0484843334434089
0.0581206829722836
0.0893395496759524
0.107545314987988
0.0780619726179291
0.0798665426325797
0.0839796318538036
0.060932568068789
0.0549199244225471
0.0534812418974992
0.0530374641778457
0.0586566919120597
0.072461892021521
0.0625426896067956
0.061738266604942
0.0608169586705144
0.0630939430269235
0.0939307649128583
0.0899381740211444
0.0776320863325929
0.102528405203436
0.109652801189199
0.135497581687855
0.0913409557580566
0.0772572664519915
0.0714312707170954
0.0740129982017506
0.0720574491063054
0.0742511095579267
0.100480851181663
0.107727086977168
0.0806598861059117
0.0831460215354489
0.0809043283370222
0.0814521716195227
0.0903455541410585
0.121181224966356
0.120426250235157
0.162155363531218
0.135625598917568
0.125020816020501
0.0964664967532575
0.0884950631728501
0.0990685450875552
0.0937111507712511
0.0895931010186432
0.0869776642231124
0.0988698816785562
0.117853043871614
0.0915760925022419
0.0934907495196751
0.0897755274260392
0.0899649882534785
0.0878528570936654
0.0919583948142056
0.0895053673702862
0.0915806144462212
0.0908443280996303
0.0991063025785248
0.102358507649012
0.161421318281647
0.117728110731847
0.10280235572638
0.105982643382855
0.106846100391343
0.0993103633962055
0.105470897045376
0.122710535423825
0.112994412572097
0.105878844284142
0.103839773907356
0.105040644787566
0.102159683903102
0.124364830532212
0.130281193217466
0.106018364473304
0.112411349035346
0.105119877958621
0.151880457910607
0.151314132073682
0.137807945423667
0.131901732820806
0.122813145902895
0.11173023386542
0.110455268896095
0.106290473068301
0.109857025845565
0.114833643002711
0.116327259067899
0.109293727313682
0.107177575825512
0.109838347241626
0.109084687915704
0.11392692305801
0.138614737482833
0.114350565163777
0.112897268884829
0.109974910836401
0.109213669937022
0.109611534661577
0.136376488000907
0.130182687844749
0.12103054419797
0.117920781613729
0.130907734935817
0.138332981633578
0.125251905234355
0.104321757930556
0.11454158108377
0.108791100753933
0.112841450046454
0.105880545345815
0.124753147183617
0.136942626921223
0.124023210881562
0.109379994534408
0.109702116320191
0.109116340605854
0.112435528368342
0.10804333997298
0.112461437523439
0.111555016571301
0.117058321176126
0.1168733286307
0.115709248656081
0.116456667259126
0.127579030471966
0.135000303885881
0.130258709730145
0.112959113967768
0.115078054833044
0.108178913319811
0.114286996021674
0.115313091775109
0.112113629444496
0.100444353813857
0.107182210874846
0.101543657008249
0.111126218402986
0.135412098623637
0.114492060156845
0.120567937388459
0.103589423054292
0.0966308333688941
0.100317398651211
0.0993435654859706
0.100493503713479
0.0974280205736345
0.101141139867265
0.0925845306376607
0.0949257630572906
0.089816607040332
0.0947364103282416
0.0958839587768768
0.0954958948054138
0.091585922541193
0.0936677450289631
0.089687760481506
0.0922814504636313
0.089484443447848
0.0941671716260999
0.0913959024521502
0.0921862655566334
0.110919837378629
0.114983456579954
0.118953179467919
0.102040915596358
0.103582934422913
0.0970072783839581
0.089218364056437
0.0931195035639671
0.0862363066951787
0.0928191090493156
0.0876241789480278
0.0922349795983429
0.0888309623579961
0.0925463996349362
0.0888554643083141
0.0927285573401398
0.0864914584640664
0.0915371507836913
0.0879024630606603
0.0922213532740003
0.0879140558546812
0.0962174415785657
0.0900793972464152
0.105168460562837
0.0927498240209755
0.0975936667565927
0.0927653065950957
0.0920235909283602
0.0928638794831078
0.0949140195840697
0.0951258253385856
0.0922883299589308
0.0905107764987512
0.0912434543794857
0.0892275267863281
0.0916121495007625
0.0890880667446891
0.0901020769401737
0.088376201805679
0.0889879403493139
0.0863735982525546
0.0906024577093648
0.0868612009614683
0.0866000056509221
0.0813390474122363
0.0847436135987551
0.081260011051367
0.0862359457075021
0.0803447054929111
0.0808405767718003
0.0808056776534637
0.080919469164631
0.0769671841753748
0.0804009129782128
0.0781230090145787
0.0773616429404126
0.0804494126981332
0.0823629669920199
0.0771684306046923
0.0778193145236825
0.0756766161605342
0.0745645840843653
0.0763318269061608
0.0768500952077858
0.0752555553942838
0.0809286270112484
0.0757071640244435
0.0775623522528003
0.0769835047728337
0.0784982114976285
0.0756772343711775
0.0790925116798343
0.0767732225970762
0.079910035233274
0.0810054235391556
0.0780899415370151
0.0813367130929991
0.0814290809385128
0.0809313299436549
0.0812844726360212
0.0826888836059583
0.0832268242602141
0.0807322258683597
0.0830188162065608
0.0797660851012406
0.0820038140955426
0.0865078664099523
0.0838443142021133
0.0806171922929824
0.0847985649124775
0.0820204219554216
0.0849821834591472
0.0796782271436854
0.0839998048832245
0.0794325630872154
0.0838345286581972
0.0813795044006334
0.080778316195709
0.0786340693023073
0.0806816716024288
0.0783363184260556
0.0820292433815495
0.078573823459743
0.0815989692769182
0.0784131412660103
0.0795766206546271
0.0799558886537903
0.0794948418976317
0.0772887880086415
0.0766884798030737
0.0780558979094984
0.0765836804065958
0.0767909079944819
0.0759414502568982
0.0768996775464267
0.0764938016030536
0.0766181193910959
0.0764260678319745
0.0754218474751974
0.0766953863719879
0.0745322850883827
0.0769980333963414
0.0732943045309261
0.0764359333798308
0.0749948844797263
0.075043994205113
0.0738199321616344
0.0759674429444993
0.0736059634965063
0.0758867130198819
0.0724413068809351
0.0743269683262178
0.0717765821703604
0.0726717495056792
0.071070824383424
0.0716190475630609
0.0699324332779819
0.0711380484543124
0.0719581554408511
0.0695607620657722
0.0677709560977995
0.06804806550946
0.0655345265867737
0.066580055584647
0.0680714634130819
0.067496233524492
0.066281353310499
0.06727969092963
0.0664290454100492
0.0682119134662694
0.0652567921750366
0.0674707055258106
0.0656679501606005
0.067065243713849
0.0658308329757536
0.0673212185267298
0.0647573855957457
0.0642378272621788
0.0644689219428132
0.064522167953138
0.0635574586606237
0.0624560035822958
0.0605393413525146
0.0611620458070021
0.0593585856256456
0.0636518115313835
0.0602843559938387
0.0620134037775565
0.0616298116571735
0.0632392013997811
0.0661671519723273
0.0665491729938157
0.0697447342783026
0.0730111051415196
0.0731789303614408
0.0768898034077117
0.0801872264882886
0.0832378267382765
0.0850049265933472
0.0921117731081265
0.093558183423582
0.0982481806559194
0.10036630383926
0.10515240530992
0.106941526118265
0.112741878565241
0.112802024543282
0.117253250580147
0.118646353449631
0.12267317780489
0.124053508459706
0.12944919990356
0.130109354708611
0.134102658867666
0.134505417619128
0.138492755381654
0.138553585159465
0.142678609405141
0.143719066622217
0.144356236650604
0.142613112686974
0.146567899896828
0.147375015820393
0.151430369938659
0.148184305718579
0.150035431231565
0.150184355699828
0.152817096114926
0.150921647251325
0.151903637697991
0.150875532021285
0.153775833319839
0.149248896038454
0.153982978138476
0.151936024902697
0.154134298134355
0.153968186627845
0.156282285734376
0.156696963719779
0.15788038141249
0.15746583079938
0.160770036590686
0.160798233705304
0.162884241081343
0.164344020132388
0.167625178508776
0.165727130272107
0.170267605097917
0.170374610229412
0.176258020327856
0.177557996932747
0.180218452456241
0.178850423745795
0.184878405706534
0.186344558522071
0.189662727001708
0.191473435522786
0.194148833601006
0.196294372898046
0.196199731950808
0.196235821904811
0.2006588873028
0.197177238561117
0.199409753576878
0.1974624865624
0.19910578552316
0.195637509618765
0.19847601703108
0.196765234682863
0.195506627193656
0.194051273797976
0.195518060146298
0.197225479504448
0.198410453050016
0.201705894989127
0.203830814924309
0.206737946010617
0.211440227117974
0.215227585650079
0.219732388442952
0.222085213499126
0.225431822268855
0.228627913713807
0.234037928741581
0.23632898486229
0.240949005349388
0.243281066344999
0.25033368218127
0.254134425320034
0.256381742909943
0.260130021905009
0.263274109812137
0.267597550348206
0.2734026452395
0.276610586805281
0.279425317864406
0.285055732109708
0.291789011316887
0.293050165403016
0.302768283186421
0.30424348407508
0.306797615808382
0.308983400666068
0.315278223621462
0.315135070555711
0.318984692521715
0.322802852536577
0.326336391275642
0.325689707634231
0.3273954948346
0.326753880813906
0.326901109980649
0.327604790161333
0.327174171600131
0.324356267959075
0.323261287608184
0.317598252155993
0.316603823849025
0.312467766578031
0.316389415667511
0.3123669693685
0.310650251111842
0.309344638171064
0.309484887384714
0.308641110715062
0.31274129309242
0.31175114139786
0.312289441051014
0.316775042195019
0.313992534268805
0.313836015661148
0.321255436620854
0.31964513105198
0.324147567262538
0.325853768114853
0.328488381700216
0.327239029559873
0.331419154805818
0.329262898358061
0.333624591573286
0.331587359555212
0.332520425639494
0.332680319652322
0.33348142786127
0.33263402994442
0.332794163837766
0.330434981390451
0.331258144521662
0.326349677836137
0.319655020802256
0.330464752297637
0.334822082758737
0.32185573708737
0.324524856686996
0.318391241662216
0.317065451853542
0.312686993484892
0.313618633191087
0.30747838730783
0.305558712368711
0.303341161140609
0.299123535627028
0.290492042003039
0.291765365287503
0.28803140395557
0.285965693523747
0.276328979260694
0.272515296475921
0.258341342828097
0.256440791443567
0.24582553936985
0.242187784935619
0.227304115686301
0.220068292088391
0.208650370547067
0.200367241346949
0.189103283248844
0.182009734277563
0.173739556239263
0.166694748364312
0.162079844285707
0.151115112681792
0.149722374125027
0.146535204473892
0.147614728639041
0.143447570061722
0.143986291587408
0.1346528462878
0.140175566139004
0.134125500612698
0.137675981679202
0.130949083974335
0.137146399503016
0.126491908037184
0.131157548522142
0.124541767572319
0.125761624932926
0.117744494761506
0.119672154152389
0.117366390853379
0.114689429577439
0.116663214898443
0.111539540637668
0.107249311815856
0.0986121037554707
0.0987093975433395
0.0942056034316841
0.0901953654282309
0.0885107886097298
0.079300892907494
0.0789252675761796
0.0739473926297522
0.0747252213494922
0.0695161839814446
0.064663847868858
0.0626546874063405
0.0616000316522675
0.0574424441382967
0.0559665902672649
0.052257691806686
0.0546069182676419
0.0509334441885419
0.0513719085319505
0.0475668301400015
0.0476006991926517
0.048825248338169
0.0478263810454678
0.0432306159277918
0.042041891999773
0.0425351015341757
0.0433463498870695
0.042987682235492
0.0438306738113011
0.0435365256308132
0.0467450134098809
0.045824887501352
0.0429788818140173
0.0445652895387605
0.0426929623762111
0.0419152221651827
0.0446269491351824
0.0465361096403259
0.0460894680674717
0.0425934558639313
0.0446549582089044
0.0456161281684972
0.0453501182898037
0.0430789878194044
0.0450808916099843
0.041080438086507
0.0434283896489467
0.0423783811696568
0.0413691520577903
0.0404065427487306
0.0385094741568743
0.0390491608973803
0.0383159422630303
0.0404438002553532
0.0387165512278276
0.0424766497558555
0.0406493955506415
0.0419229115847861
0.0439658906210013
0.041361205075647
0.0414120302987917
0.0437869345573362
0.0436964739547664
0.0437421240151421
0.0481588989209253
0.0453052084276159
0.0486390933171166
0.0450626779506216
0.0470276061859411
0.0492987622516274
0.0503019913778361
0.0495888327810202
0.0461586771711877
0.0462905417760196
0.0478136458008432
0.0460298403366851
0.0542259238519823
0.050312344898302
0.0497222196431365
0.0504492861008534
0.0524397091945964
0.0492881552359024
0.0526562805412813
0.0570404383369175
0.055393572559366
0.0547688344252191
0.0584251871015943
0.0573790056278695
0.0574923171540426
0.06138393662536
0.0655794301121678
0.0673663295863293
0.0680253818250644
0.0678632280489873
0.0699877436743753
0.0722416928093819
0.0705965495238498
0.0652773105805994
0.068295742577888
0.0709879552939669
0.0710378485360583
0.0685880342516682
0.0685317365881816
0.0634467444505535
0.0684839345423748
0.0628270958250954
0.0636228382400592
0.0593090059631958
0.0615867216974046
0.0603685823398748
0.0605265222193342
0.0606534388760827
0.0657336350723112
0.0668342569951894
0.0639520950479909
0.0614042249567014
0.060624497515272
0.0568196495306307
0.0677716524062131
0.0586437359562235
0.0610258124970391
0.0566228878028339
0.0570405590904271
0.0496123348542255
0.0556260519237555
0.0564426674052299
0.0512187761374063
0.0511796673002024
0.0510922913815689
0.0476175119277024
0.0546464095423398
0.0504682290355582
0.0522509076492644
0.0529994557668259
0.0539605008909839
0.0483329975347782
0.0488710813380297
0.0439591486631619
0.0464550825527269
0.0449604690063749
0.0484799627088706
0.0453419490270502
0.0486994852190589
0.0407883476913175
0.0400980523042912
0.040137635895054
0.0471792399570976
0.0417479741971828
0.0468454362789044
0.0395074525455907
0.0487390128824335
0.0477568566104374
0.0447654713792813
0.046359955591025
0.0396642822361781
0.0369066226470708
0.0439885507906932
0.043826107904737
0.0438599946025989
0.0416767324362375
0.0432848406440659
0.0367160627023693
0.0406620237175493
0.0382777680679877
0.0398058499258347
0.0361691224856577
0.0456381176661724
0.0403151990629434
0.0420804053182165
0.0464231009196561
0.0424942898584823
0.0359975335453518
0.0449531965128896
0.0423703910883076
0.0432706755671147
0.037021084359634
0.0482917861338234
0.0426704076781259
0.045301346139533
0.0439527551056373
0.0432505680157916
0.0520375947668637
0.0501167061763655
0.0504024968401283
0.0559060294939033
0.0413739852700613
0.0579909988119001
0.045882696063647
0.0531262443925221
0.0510984547889823
0.0515362363829746
0.0473197279048098
0.0596225898941512
0.0440651764049112
0.0533645979205949
0.0472316432601021
0.0590280113913966
0.0569250703335104
0.0584034290509351
0.0561502475885738
0.0575655065904941
0.0636534990819486
0.072011493219845
0.0594427136219039
0.0679707471740913
0.0734684524891635
0.0854617545155945
0.0810032682294403
0.0776094943988492
0.0718439184861406
0.0959093217306698
0.0808111532610475
0.0871361307535524
0.0909367709026046
0.0750050861158693
0.0780690062005257
0.0923338934369298
0.0745700717292505
0.0748949496122103
0.0798229703527073
0.0929070691618531
0.076052892080397
0.0822755729906829
0.0778852845407814
0.0783359201764144
0.0655150749381964
0.0810862714613908
0.0787362278807951
0.0702351912515509
0.0569703171298778
0.0748457015411824
0.074644010770793
0.0830424437108939
0.0719526250550034
0.0647312302844246
0.0612305825291599
0.0696076870347018
0.0593593988975313
0.0784643708191587
0.0633817662060266
0.0676391418674618
0.0570555964613557
0.0736936920560771
0.0565794997297539
0.0647309299897963
0.0556666963271502
0.0692075275933793
0.0552098915933575
0.0706262898326835
0.0678927418050997
0.0740320922698012
0.0599567606484706
0.0626364137724215
0.0447875843219104
0.0706598201484117
0.0634141620622843
0.0698671647080692
0.0778023841796688
0.0792794767090566
0.0598265994309038
0.0655064812086005
0.0781446008612704
0.0703332432848758
0.0608843987551484
0.0737599018265973
0.0799956506509928
0.0798536694769733
0.0649756799557805
0.0546174206890381
0.0582195649565968
0.0729364808019562
0.0721556584527303
0.084102075320561
0.0475999464438244
0.077521215703712
0.0850689950884916
0.0773138655585002
0.0570668618541571
0.0850749540055132
0.0507880220888186
0.0848397253591534
0.0715392436123951
0.110105403826021
0.0649641378754089
0.0863309434034734
0.0814351129014548
0.100599777055886
0.0862986854131718
0.0742281936960057
0.0672708659737156
0.106069206876442
0.0836482988354792
0.0819905283517173
0.0972865783254986
0.11412929231079
0.088515562900336
0.103621225300442
0.051677361511946
0.0909466678921144
0.0863260391101874
0.0997203969035325
0.100675759969585
0.0986187406604105
0.0836933614214535
0.0890971013679011
0.122130802606895
0.126091781274777
0.0830953814789321
0.0852592295879955
0.0861704668512856
0.0934382257342867
0.0697632483721506
0.0922635303278386
0.0874661006733933
0.104329357018337
0.0701391956849831
0.0973869497481806
0.0735567222943399
0.0911216546523174
0.0654694095595585
0.123841753126091
0.0517636800457945
0.12815102790745
0.0811964319039739
0.0897020438095138
0.0763421997214638
0.105532419358409
0.00183841095905084
0.145966322668207
0.114629038321758
0.125848069048616
0.0742491891709636
0.103813748397366
0.026956280126431
0.0873269910212196
0.014671522692668
0.0419371460051462
0.0865933973893729
-0.0470429841532888
0.0356571961515692
0.0535113951969282
0.00749179321025582
0.124945952166439
0.0321781302083964
0.0492968315208234
0.124522705067851
0.165466237106299
0.112530110160851
0.211490470484645
0.0378774874360833
0.192516669483319
0.00534076031641884
0.235439513303449
0.0829492603052309
0.189887632599419
0.198240376366428
0.0798289026562824
0.134275128860093
