3596
4000.36533379555
650.420452594757
1
2
2
0.0641180914469233
0.0743468023091605
0.0674268570231973
0.0773730466574191
0.0642134355571163
0.0697669851568765
0.0604213430049683
0.0687009523282321
0.0641265775521363
0.0760270799113526
0.0666944492043474
0.0734016672069073
0.0532960298228291
0.0701299488975812
0.0579281225910009
0.0758491271273071
0.0611491125848943
0.0714141479846869
0.0669874999705773
0.0745570276816293
0.0640515974254137
0.075295515384223
0.0620452846582309
0.0690924269434257
0.0658628360828541
0.082203000404331
0.0610728496431603
0.0746794633334838
0.0693736237973419
0.0784046272809131
0.0606651730621223
0.0721246623592073
0.0672343947972159
0.068642232533617
0.0590994628655476
0.0688914552477401
0.0615104644737665
0.070743454566294
0.0562558422502731
0.0786185108963654
0.0740635544045731
0.067679687233083
0.0552600464103569
0.077637017367921
0.0665767177638518
0.0741050681516097
0.0665062114127624
0.069547569083847
0.0628081519425226
0.0768648789538242
0.0695878441508781
0.0737864933079005
0.0760570308664822
0.083668608393282
0.0701564481266028
0.0907837709487509
0.06526567490026
0.0752862393568092
0.06626420617395
0.0721566488362507
0.0860840081282221
0.0941792772903614
0.0662308264290819
0.069188277434129
0.0620715966139178
0.0809986552834335
0.0617368158533374
0.0722629460635211
0.0666535326967741
0.0724026757981045
0.0529816392508399
0.0980423353093261
0.0705281529407087
0.0758041360092667
0.0708261326006319
0.0752947499213654
0.0672838377716932
0.0747066700826233
0.0528324509624659
0.0940611417843266
0.0782242864186145
0.0837564065549378
0.0614905999091959
0.0663302098749061
0.0768248943558867
0.0968478148646156
0.0512131902036961
0.0933401135798665
0.0857874659041607
0.0851331340697213
0.0626360324439961
0.0755598249238094
0.0525356478773558
0.0687096836480116
0.0535851481190322
0.0783457341697617
0.0515121992046562
0.0725105201412195
0.044120116904937
0.082139419921646
0.0663094259705404
0.114184166955309
0.100319965517956
0.0778854642770913
0.121916160451145
0.0802097270225784
0.0859523040371085
0.126419743642375
0.0791454898001911
0.0808054018785424
0.0626200575446718
0.0736278790836371
0.0629550961922384
0.0801084067596708
0.0426300946176662
0.110435361180438
0.0907534979917419
0.0824716927615922
0.0603629059265399
0.0694231607751751
0.0453105673519006
0.122984341095119
0.0903585906187959
0.0885267508066272
0.077172013934734
0.0777703372380699
0.0570030237536612
0.135939872403576
0.0750185824830098
0.0763733985857811
0.0575288256793794
0.0780520583753049
0.0494140818473811
0.0779213495304975
0.104343512123204
0.0795962580683461
0.0667393549430257
0.0726984026863976
0.107116477836921
0.132162546885301
0.0671104343891221
0.0851374009098091
0.0517066165702601
0.0962412519599839
0.106746777405678
0.0974645787755718
0.06242795036151
0.103379663825188
0.0654813283030158
0.0686771940527393
0.0525564992907954
0.071031554855522
0.0791526764096243
0.0967593178941382
0.0377937853116143
0.173922526105159
0.100470202774206
0.148446367036863
0.115226012399316
0.0751480056235537
0.0796767905143252
0.0678358663324167
0.0673020313655594
0.0592369469617182
0.069311794562041
0.0564112963079658
0.0899260029763536
0.0970657206874512
0.0637060230596445
0.0817641523169696
0.102247911224594
0.0785478509731418
0.0670488117870567
0.15995922445529
0.0652254900254031
0.0855104008776375
0.0954352849926311
0.0910733296263166
0.057274535379675
0.0982185806131722
0.0747675888191319
0.0767022227212911
0.0635837375023158
0.0654831913512828
0.0723578399796447
0.100176637469677
0.0617610755068902
0.074220194010608
0.0572271100117693
0.0784747647458665
0.0915607568734816
0.150884463520273
0.0896757835669215
0.0921163516174607
0.068515899528378
0.0526446401709473
0.115334448809063
0.0970620994162863
0.0657670247725009
0.0743308554692282
0.0489364165561929
0.0650185659093873
0.0471105350680325
0.0624758078424676
0.0528033661612781
0.0677106347304746
0.114447559180322
0.0825987634752581
0.0702118505681966
0.064787140011842
0.0713499037489206
0.0764756214184135
0.141847439679705
0.0941265412374273
0.0669933525873823
0.0773390575137204
0.065792978926213
0.100445405604164
0.075136294173588
0.0691341561421198
0.0597995293365912
0.0671295907845549
0.0605579261449295
0.0633256032530954
0.0560135477960211
0.0698262949143356
0.0607616431237782
0.0666052142159696
0.0574146545751891
0.0697815707956215
0.0697588802743797
0.065295408407624
0.0596758512219268
0.0680635516409339
0.042368920918287
0.0986468073460828
0.0841736091184237
0.0764651501114148
0.062849938234992
0.0604848773219694
0.0543851717291354
0.0679277589132481
0.0556585329402996
0.0681566156591623
0.0574962644844425
0.0733785077697819
0.110037406758797
0.069428181215698
0.0706562110646179
0.0516076887282244
0.100185860817464
0.0798758829321985
0.0703953398509488
0.0623435751905145
0.0680527409151737
0.0557248145890756
0.068486070123021
0.108638553948586
0.0711220093047414
0.062127257190199
0.0902142152614553
0.0755591719064584
0.0668092165370459
0.0739735888279101
0.0684305202616331
0.171187186401054
0.0837390163910838
0.0917613179330944
0.132284993939689
0.0882861315704579
0.0874085811962911
0.072320716844202
0.0625264607894231
0.209964589446125
0.111295626820592
0.0724614782450753
0.0728589395357778
0.101336934422772
0.0516037876167789
0.0931890695588913
0.0648073247474739
0.112683104078141
0.0893558821649924
0.135718743283831
0.13612726007936
0.0638120791260129
0.127910892084932
0.0849721506293547
0.0740343909285914
0.0670825832622254
0.066314637690547
0.0620392857854843
0.0936461419277084
0.0822035956917274
0.086326405677496
0.074217018547328
0.0706604337540963
0.10739501116789
0.0739542025793813
0.0644611736068712
0.0733355495056443
0.0827949993349979
0.0562711984190178
0.0702486267649945
0.0599217152850478
0.0908236994406185
0.0516266755848874
0.0851157460219674
0.124742176184367
0.085687448778069
0.0792219025788009
0.1036703783522
0.0632333152916597
0.0678951280734958
0.0533940934477332
0.0658372024356935
0.0543162534961965
0.0619781278667393
0.057248351705604
0.111715684921845
0.0582866566662621
0.0742268617476688
0.0574308819818636
0.0674533727633934
0.0594156940352793
0.0688906764964754
0.0619996764558138
0.0713301167954239
0.0637809504993431
0.0670012999505676
0.0949548613811541
0.109607529335276
0.053944508020838
0.149261696301936
0.0888375925003377
0.0786916938480964
0.0629007389264965
0.0701566566595362
0.0650559793967911
0.0648705195964828
0.0629427908270627
0.0680561530364481
0.0631479682935913
0.0918363583944374
0.0610822416271438
0.0837589312077416
0.0777240211809497
0.173348119896315
0.151628588714768
0.0881737271996258
0.07506880835577
0.050176681133399
0.139100607607668
0.103021092195533
0.110115532956281
0.106445076217069
0.0631319744190761
0.0863219693601969
0.0563157682434161
0.0757896521870119
0.0547132462347494
0.0833740279198836
0.0554921021357625
0.078945450436484
0.062828424929469
0.0829918057022697
0.061462810201446
0.0913972730367139
0.109649525292952
0.0908501581229782
0.0717486847039782
0.0844347857095056
0.0527416884876929
0.140062640336253
0.0915358599686336
0.177507072122209
0.102926372025788
0.142793060703896
0.128159143007664
0.090302515897186
0.0836398325929163
0.0761947973157326
0.0818866421555116
0.0910717627395439
0.0808552025485931
0.0884481140905713
0.0773573412375979
0.0895809398433749
0.0773720914799629
0.0854167837782562
0.0768210424964565
0.0897907979141362
0.113278933983298
0.0936295479055154
0.100307083995774
0.0884752320548743
0.122626447821382
0.163370466469795
0.142658869881161
0.099728832440719
0.102398046374467
0.101675576607899
0.0996255225387003
0.0974799278438782
0.0899839168615624
0.110325525177458
0.0946278478838145
0.16403802528476
0.116664810921838
0.144056362124861
0.130148136931932
0.0971697759821916
0.132987708781525
0.124350043801037
0.129348082489563
0.151124641773967
0.113185794729505
0.105678305964779
0.140545629714358
0.131409603800957
0.124649724646105
0.156106598250071
0.0967502503921696
0.130861784129657
0.111526603380835
0.131676155837911
0.104568367297033
0.1468243194345
0.122742499454088
0.138099525473289
0.125417069921861
0.136068839212244
0.121943985933023
0.165583538754872
0.124654025737771
0.144881596836436
0.138498526123392
0.125701802317159
0.127884341765055
0.123981758362405
0.171425368589291
0.171412702997926
0.156900404412807
0.189240689721632
0.135213247227407
0.152361624146562
0.147386178262932
0.162293131665324
0.133714696404378
0.162439805211344
0.152404563637847
0.161531590467038
0.133163825623723
0.170770003965595
0.146781757573027
0.169174634386249
0.157920927177905
0.16822952371306
0.154562076481073
0.162438133696924
0.178198321091244
0.168404708241351
0.204921759493287
0.222142920871951
0.204930495528548
0.231435959337229
0.172726200605827
0.197193952845762
0.178242405060859
0.203409997010473
0.168706958742488
0.218481614393455
0.17676184793608
0.197910721907782
0.184196884740019
0.210072614031729
0.189387098552627
0.213197811808865
0.191347712669523
0.227657525463438
0.208804479702801
0.22490802932959
0.203675042295015
0.214296497989398
0.215186983497888
0.239407260847278
0.205213298935751
0.2603596383895
0.221956499663315
0.230226649884211
0.220104534756294
0.239336901533712
0.225031230481576
0.23922807324259
0.22382514313762
0.233030598514409
0.230283687656767
0.24475686808302
0.238829135269144
0.261285518599118
0.235177826449344
0.259517401567282
0.252658470201697
0.257467044430519
0.26268843957948
0.28547779538689
0.24906052275721
0.288176932590977
0.262509703186516
0.274939875129286
0.274351538053555
0.289531165795093
0.274011438350137
0.301060021000014
0.268314455072213
0.308706522687357
0.262789662771912
0.297251422496729
0.281323017542062
0.298547475684588
0.273880202561861
0.313338518950161
0.301702693831185
0.322862674774632
0.300673180283066
0.338971833685085
0.307759000332123
0.32290861639522
0.315731833681564
0.327583792623817
0.314459010101426
0.334837637423853
0.315931893836614
0.343559461809824
0.323038456072555
0.349663690389522
0.31477118769614
0.351023350920666
0.332032464598991
0.359293353681795
0.326386577829486
0.369673564476777
0.338721424739203
0.363123987287694
0.341497963197957
0.362376421592564
0.363114536917251
0.359375936863604
0.354603734875012
0.396191873325252
0.36140444540037
0.391517554233242
0.360315135156542
0.388028285597307
0.363594186423098
0.384445250729627
0.368167751924637
0.39180660716988
0.377332468675043
0.411771584298848
0.373882869472676
0.42884138801663
0.389822545861426
0.414700728655874
0.386090432153119
0.410429432949474
0.3801697125276
0.418351248243434
0.39934913226272
0.428785958289213
0.39775221982931
0.438652639606167
0.421494014093247
0.424287820267185
0.420048715524917
0.456664331155903
0.415641085303268
0.448270475808326
0.416300291014921
0.456066882233949
0.433910274145812
0.466267500749666
0.423304469410646
0.465204337534851
0.453886532554217
0.455900339730428
0.436072004015135
0.477741374770202
0.439490685125653
0.46000378509605
0.448340138088651
0.48897684303264
0.476172671796025
0.502805606512464
0.466660989296188
0.49251937317312
0.454132575012433
0.48973582456022
0.475455900728688
0.504601453961397
0.471526146804085
0.489978986265526
0.470294645347175
0.502084837424633
0.467741160918863
0.489330019966319
0.480456456976189
0.51382264306077
0.491788975868481
0.497400640069887
0.475111277744444
0.512110044533259
0.485724843234744
0.509526362428202
0.504306003606375
0.557238613048753
0.511825835883676
0.507172994952708
0.498003258800383
0.533293102207854
0.506026376313823
0.527405475137465
0.516690365315201
0.529952227147648
0.53545176758704
0.528478102663119
0.505255520708059
0.522355984024242
0.527372336152232
0.538425751625894
0.498987516282307
0.541906686955421
0.507392428194354
0.532302582638061
0.536113167412555
0.560595713624851
0.533173078621113
0.530841065042681
0.519418622205676
0.56675926267891
0.532519307520325
0.580644757370014
0.536437502173766
0.565657420063372
0.561217949328296
0.580050499154987
0.561937825069683
0.558195506830733
0.539549174868487
0.568076020513587
0.54948380694641
0.571569492892599
0.530348390073772
0.586522683110176
0.591411703289589
0.578408670313445
0.557193396725121
0.609596894464966
0.570093390718735
0.585782222674511
0.556391103259084
0.57265048589249
0.564096459983052
0.584925883051682
0.570767697410379
0.590560474989133
0.559393339992339
0.586895116335307
0.582240908423519
0.58233187038833
0.56022911354937
0.604826297584999
0.573492575509897
0.587688035217172
0.560975472857546
0.594856401946981
0.564284166000256
0.580286498584463
0.564779061441623
0.598419007035546
0.575668588186483
0.610062758616056
0.57492866710216
0.594414146126142
0.564702011867342
0.607867207003352
0.586993506631131
0.589569562142636
0.59467676932921
0.624196382470213
0.593986131443634
0.579770220517626
0.568805436748092
0.591928112769347
0.575791280145305
0.608759381910043
0.569936474573708
0.596079889469372
0.578775481232107
0.621912668375841
0.579414733032638
0.605833718746983
0.579018919523259
0.591749649148295
0.593947434271032
0.62190966737712
0.582185714997873
0.593622722007918
0.554000009761247
0.590739564490126
0.584034008414913
0.620125176971372
0.583573871033526
0.589831581206271
0.56500770624797
0.595237404603946
0.578902737154942
0.587625598519869
0.568299241222622
0.602041603144868
0.582142422642497
0.58950832374205
0.568793395442656
0.591626060270132
0.571517192522621
0.5850159034256
0.581225661986934
0.594809452667632
0.569701586827119
0.568898738784758
0.563037755288989
0.604241283078558
0.569459423463235
0.581445655670848
0.558910018574784
0.579425313172126
0.574252697649503
0.587433235612348
0.56617507414003
0.566022699003712
0.546109920656818
0.570324221501966
0.55781174929115
0.572033467736783
0.563845915426627
0.57064104867861
0.559329312825406
0.569724926609319
0.547238618032304
0.55780121605995
0.565222633728336
0.561783944714054
0.539053955286133
0.571468159753757
0.558920367914906
0.559129155390928
0.550686291601389
0.566538101323372
0.549154540346877
0.551893586797094
0.539309734602832
0.56118794168462
0.555646915688889
0.559084803049547
0.56114083435271
0.551647124648115
0.553203787031288
0.562877368763131
0.534223282333912
0.555016827505474
0.526732100416168
0.543479178048788
0.522733168668166
0.552792221237586
0.534553610300167
0.555201773664905
0.544461182593221
0.532947836183554
0.522003639332616
0.542747367465375
0.515308467074682
0.51793329357021
0.506413751585707
0.526874619342341
0.505188233176666
0.523221588315313
0.519325557485253
0.525761224545831
0.516459298411412
0.519915420131953
0.513617113505534
0.522413778453339
0.503659320627755
0.508996517183626
0.494916775920404
0.511640773206985
0.500138279484837
0.503846773161898
0.504849987813877
0.510625260139425
0.497358060363641
0.498267663651613
0.501742756145539
0.4960346535164
0.480623418222721
0.507055557287196
0.492887703511069
0.489692461046213
0.477262901363487
0.479402935670114
0.482130297240559
0.48522816305064
0.480104435474642
0.482111509133735
0.464398646850508
0.471517171338609
0.467277037232495
0.468319375098794
0.473033701037782
0.472496071767372
0.455720041969761
0.466403224753713
0.455416543100303
0.464645089917954
0.450448874776462
0.457385217998724
0.448633500328299
0.46153919748078
0.446346812111438
0.455122868717539
0.44592733978955
0.453736735875961
0.450646806761216
0.446151088325412
0.43607710667252
0.442620665829853
0.437656300780527
0.448758336930997
0.432772431787019
0.437333868678263
0.430368097276628
0.428915735321809
0.420486481101006
0.424619054442924
0.416587537252759
0.429205411885898
0.41898153727148
0.418871860776525
0.40139946991787
0.410626845582952
0.409869624324677
0.412901331505367
0.401997330573794
0.409341688884938
0.391181204911487
0.403304270654057
0.39829469557419
0.404746618552313
0.38611172206707
0.396613392831261
0.388540676468538
0.395472866137231
0.390686449360718
0.391386806173728
0.387517309191596
0.394817274796008
0.375737693750657
0.385686544530594
0.377089687678973
0.379678555436523
0.370146192357074
0.368572875209206
0.363319926482355
0.359817005856167
0.362557953828332
0.366519969092988
0.361068869820124
0.358430707354904
0.353738889791646
0.36240160614622
0.352316558284769
0.360995967889042
0.346178271207976
0.349877902446713
0.348222514860246
0.350851541798799
0.344211919108914
0.341985942839004
0.337810205983905
0.344643820760493
0.337711699896142
0.339858598751744
0.324390575947357
0.332913775088456
0.331211112085208
0.329485504126363
0.323602899747281
0.328958070481234
0.313475727827176
0.320263505152123
0.316418868086202
0.323037888083714
0.310902423841648
0.314833373121598
0.30601571942735
0.312128985653946
0.301636341737987
0.307230061865774
0.298969409386352
0.30982567646823
0.298944254456065
0.296841430808948
0.296823697818369
0.302264024819642
0.29576775124661
0.291857450286473
0.28630922475593
0.287652576745097
0.286608916716794
0.286886311932101
0.28274127684629
0.284209191161872
0.273021731112908
0.280939664833962
0.275742580173481
0.272408072728119
0.270826866264794
0.270706945269198
0.263186196546122
0.265164566787657
0.263564035964565
0.275849262948334
0.26519660880423
0.260726234980527
0.25925129236902
0.265469968027783
0.256153413664621
0.251873333094378
0.245529174231259
0.252465506321913
0.253873866405985
0.253661354553506
0.244947271058937
0.24673369147331
0.246457370792647
0.250349306006175
0.241641574060124
0.241355618465929
0.24186350924799
0.246098599984434
0.242719681563358
0.239415585209027
0.234825645012843
0.23984635956157
0.231596004841612
0.229373192320009
0.224952918617953
0.236085258126603
0.2294337595635
0.231461707817582
0.22013343107436
0.22156884655813
0.227537303807892
0.223267768478796
0.217774655302909
0.222868454787738
0.218168632825156
0.217975373465509
0.213640699348652
0.214778989033895
0.211321621638122
0.217419936803176
0.211313498127287
0.210030581659459
0.204033868312692
0.206969815064613
0.207474039620338
0.205000651986697
0.203789254804452
0.205948402183984
0.193724151042281
0.198815358170738
0.193275026133489
0.193588728835596
0.191908784814347
0.193946499002853
0.193297948086162
0.193175780046506
0.186645617743313
0.192975303119411
0.188672712764791
0.19080831083916
0.185461342154007
0.186696125583854
0.183545092154733
0.189264186737716
0.179247073718904
0.179803486233155
0.1806330018062
0.181058647420285
0.180211688516992
0.182749016352976
0.174686971205064
0.178068333231968
0.174681019610109
0.178148850184511
0.173830601268599
0.171259817461646
0.174553500489386
0.174585417740456
0.172985918675574
0.172197669010809
0.166326441938998
0.174329900173324
0.169483029458325
0.165406271419052
0.161018152042507
0.166435841727148
0.164168125534798
0.162601930262895
0.159002994646694
0.162523296169261
0.155534120818909
0.156839223378012
0.155944119213306
0.157478648348152
0.155153924775555
0.155521405171275
0.15300346308439
0.158840771894764
0.153336616865068
0.151987064516437
0.154308848449606
0.156097146341952
0.153507253136981
0.154612184669117
0.149954018113763
0.149724263789961
0.147865441020526
0.148203730735977
0.145017723223431
0.145601700401593
0.139762200946549
0.143270240483205
0.143633092858818
0.142682324169547
0.137199559441085
0.142754439557145
0.138603135913422
0.141590448975983
0.139571008485974
0.137954632940735
0.135832995100499
0.136507004362092
0.130145910325131
0.136509483223205
0.137757489319544
0.134915100432927
0.132715603427837
0.135597093297651
0.130835356134726
0.135712672598775
0.134692582929483
0.130771222829603
0.132816132670851
0.132771929506095
0.133009198324373
0.135880236600398
0.129241454812093
0.129119932238575
0.13161699630063
0.136333777075674
0.130506027314795
0.12848052192719
0.129838566165058
0.129891688848481
0.129201127827685
0.131942778370946
0.130328100027456
0.129972703341552
0.128360229316155
0.131818725175209
0.126160173349665
0.131410104613127
0.127030429019037
0.132515603293344
0.132687992375123
0.133484724062949
0.132404230379938
0.136947061851036
0.132664573805923
0.130301128631423
0.129690670625049
0.135595043109204
0.129136766255188
0.132207849124136
0.137331372220743
0.137545426563518
0.134263650134134
0.137886501878635
0.138817219024269
0.135798890502525
0.138800082974318
0.140214613177726
0.13695158860612
0.145179525812404
0.14230494541815
0.14149708676459
0.147045174832419
0.147887253543916
0.148047188693331
0.150674901828812
0.149618068863977
0.149308850662703
0.146388226388962
0.153892781120883
0.148632592395804
0.150375189845329
0.149108188593601
0.153567508780517
0.155660745206637
0.155150765393066
0.159787480288362
0.157921392781805
0.161312140225393
0.161529078213038
0.161442446530318
0.16620989137354
0.163775999745405
0.164049552043959
0.166816788740675
0.171486000340523
0.169998596893921
0.171107444219123
0.170971387369077
0.176329228914559
0.176050759026242
0.182797586433727
0.184866878940473
0.183518177910054
0.186651172375388
0.186015555421472
0.179679187525965
0.183679548218778
0.187879388385815
0.188617152869495
0.183176729832398
0.185568204800865
0.184433110045233
0.190883139342954
0.18813758413083
0.189552766609278
0.191058229350354
0.193540522131556
0.184984949720947
0.185802422076314
0.188889977507085
0.183349003870065
0.187394821219501
0.189543906831033
0.187122326866974
0.18084539742585
0.179622766503804
0.183789729833618
0.18016999169377
0.182965771500638
0.183308721647622
0.187526075586339
0.180196249885207
0.180301291067131
0.18449869105528
0.184476760347983
0.181699101096725
0.1824455416824
0.184625872113219
0.185923372356129
0.182399079257187
0.18338063100427
0.184460605314612
0.184608503409243
0.181923517763499
0.181053430937067
0.182117490398124
0.183060377170332
0.184303162622219
0.186849049759032
0.181229259173417
0.18531629026431
0.18648900137774
0.18108288369786
0.185255575620448
0.184786927633478
0.180818524726833
0.184993260681899
0.177003204935996
0.181226324123003
0.181098574823003
0.18307436360156
0.179678747170622
0.176757564378558
0.175060702293177
0.17621106231464
0.175819750847007
0.177088455887409
0.17388409871943
0.176228318405316
0.178599851146269
0.178316180562466
0.171678819272762
0.169939201492335
0.168245447813503
0.171775187988452
0.167509309583834
0.165703707756183
0.166286003591734
0.160638692221978
0.160198564691096
0.16206555869718
0.160409749398278
0.162435675695911
0.15526990302287
0.150043165935626
0.154201186905225
0.156803884284207
0.154500174661531
0.152979635064332
0.153116428214773
0.153323109208758
0.148355209406588
0.147640232717152
0.14397626036877
0.14351977824404
0.139187158047839
0.142534429141148
0.141058464037084
0.141415604480255
0.137345168393103
0.137145202527114
0.134636295396661
0.136361728571829
0.135056737386522
0.128403911943149
0.12973080585038
0.130503844622043
0.129216118126151
0.131632668327002
0.127223343279362
0.126802855017156
0.126538497340108
0.124543405245289
0.12408259048181
0.122851050619965
0.116753520240735
0.120120087006596
0.119298235103393
0.123494199798505
0.117293779518604
0.119189453697562
0.118479467966323
0.118437982372674
0.121096090102877
0.118403833112285
0.118700838672459
0.115126705529858
0.116093379636843
0.114723977136357
0.116467534841643
0.118992540835528
0.113953563533815
0.110565444607606
0.114282330898186
0.113162306781714
0.108303147771111
0.112043544141757
0.110607506596126
0.109296185978086
0.111138331889901
0.110658274147888
0.107201707742419
0.10578732950831
0.109982445401902
0.111194942358652
0.108293193592936
0.106652894983019
0.109905440080948
0.104735110429363
0.103486837950081
0.106406548739624
0.103633884871362
0.105111471242268
0.103107428237259
0.103988410958585
0.102516469249831
0.10272748888131
0.102959763930389
0.101291516078213
0.0994218145866202
0.100590120045651
0.102319443579398
0.0965831331163119
0.0994290502870523
0.0966861586010461
0.0982363696163399
0.100259733482734
0.0990902613863426
0.0999852194449763
0.099327286316102
0.0988806539173418
0.0950689375457572
0.0959120403297039
0.0979421743981321
0.0963129336048495
0.0969987485744082
0.0981724835996535
0.0979315059305974
0.0985652968369095
0.095371046300927
0.0935854990901392
0.0939554010328248
0.0946597857012985
0.0928556241740004
0.094561355474575
0.0963186428107401
0.0968761298755731
0.0924580430715544
0.0929482929232027
0.0948900124805071
0.0906191293815967
0.092643775544528
0.0930935983796585
0.0892063806006299
0.0953199857812412
0.0922465458145292
0.0889775555824961
0.0890393758493455
0.0915557633574057
0.092589655007407
0.0879835124673041
0.0864276547102067
0.0913215183626848
0.0914429801865905
0.0919438578375539
0.0901686835172775
0.089042628468705
0.0871333241104692
0.0888060482450783
0.0893318412873596
0.0869344637696118
0.0867857767660949
0.0886147912871956
0.0885065853857689
0.0875458087463532
0.0860563580329379
0.0882313842104171
0.0870567262365199
0.0895844590074113
0.0887043447888317
0.0897080615294155
0.0884581630097755
0.0875759496100458
0.0873386881152949
0.0837561518036645
0.0863923463531569
0.086497950193967
0.0857198915206149
0.0874827323316639
0.0871053389265577
0.0867358572255826
0.0883843504460642
0.0877077619779726
0.08730605568004
0.0906456200682082
0.0855016869709119
0.0853329961992587
0.0836482264269511
0.0857777343634955
0.0878503817485247
0.0852391702408838
0.0840130058103327
0.0830899452445249
0.0809396199483594
0.0866305350122299
0.0844975683430614
0.081807278371204
0.0838541270599226
0.0851467425424225
0.0812710875549936
0.0818701345450443
0.0839665560464938
0.0820445943500204
0.081501810953423
0.081386632128006
0.0792532156676726
0.0785845940413628
0.0830797995494741
0.0826568279881278
0.078734215863052
0.0802958402404057
0.0799164147910871
0.0798708506624767
0.0834140135480167
0.0805462989154283
0.0791209940633704
0.0787637583586619
0.0750182729528344
0.0800032499020121
0.0767888113966
0.0772772530499087
0.0778075464847047
0.0787634119564403
0.0774896296745323
0.0794558075445823
0.0804810194236917
0.0780471224828949
0.0749008408257272
0.0751548778409644
0.0794628655895678
0.0787976462797451
0.0752650144580957
0.0741423613698856
0.0767802875825317
0.0723454257116505
0.0743966789255566
0.0738752965396953
0.0722811471980736
0.0767195044259963
0.0788296253139879
0.0735179027463898
0.0731459640944682
0.0778616274562901
0.0709946608924945
0.0735969181092313
0.0714919938774191
0.0729544606436765
0.0698113329839941
0.0752070808864422
0.0748183389850592
0.0732461009424227
0.0709915998469978
0.0743273592769563
0.0722504800710411
0.0716399153953669
0.074154475427731
0.0721690017049457
0.0686324504432899
0.0710913023048973
0.0675271160008351
0.0698729742172766
0.0676231889925071
0.0679298971055537
0.0671962179465173
0.0692941085753628
0.0682423078014408
0.0678466746133975
0.0674268471393655
0.0658496423814282
0.0648862211518773
0.0663212363988582
0.0666282971322051
0.0688584725470841
0.0653805579050606
0.0653811919246864
0.0660776045377897
0.0660306336445282
0.0662193784745196
0.0649318390096937
0.0624002863692156
0.0650710960909768
0.0602170469874787
0.0640135945728021
0.0618524471699981
0.0633274952383731
0.0644940664340049
0.0625636667287846
0.0637418123551786
0.0629718761712266
0.0639746973732314
0.0627244807464195
0.0562335457119456
0.0624110193459282
0.0614203932623844
0.0630091653122452
0.0608181330684053
0.0607786957134051
0.0602882081603163
0.0593060527599659
0.0587611004852756
0.0608062786929058
0.0562259092363493
0.0611035266256858
0.0592049468027436
0.0586769996221059
0.0589497729648774
0.0614503042965114
0.0566559259623648
0.0583364909806303
0.0588637458526333
0.0589334118939296
0.0612864557258751
0.0618456230120972
0.0611771921322483
0.0614489805178033
0.0574562150248305
0.0615248916016305
0.0574126463043485
0.0585383706765662
0.0582317277399938
0.0587799743293398
0.0567783423508623
0.0577140685630738
0.0549583378921825
0.0576786693814345
0.0556648798888804
0.0580692656089773
0.0555708348584887
0.0587846380658498
0.0544747494711063
0.0542621032937112
0.0546847789964313
0.0526222398479513
0.0561911028508545
0.0592208121606682
0.0531962601369672
0.0539112373546537
0.0574981615311871
0.0549833488231835
0.0542360306558666
0.0538238273972081
0.0565636946363845
0.0536185885799838
0.0537349711943475
0.0559678342428798
0.0508697278965405
0.0545101681073137
0.0548148380474499
0.0526725689643152
0.0547550138756046
0.0526182752529259
0.0526405328420005
0.0541163586799639
0.0536416036744148
0.0515201307578051
0.0508354992750774
0.054412906068752
0.0513748039161965
0.0531059383412598
0.0536435927253212
0.0527459664395896
0.0505247306918259
0.0526433236094319
0.0532360023768452
0.0534528215389905
0.0502307226493664
0.0544369738623626
0.0507948069294617
0.0528488998923637
0.0519466667577246
0.0541974263916249
0.0516682830888707
0.0548041365663978
0.0542734787246117
0.0524447139814562
0.0527453142272117
0.0519811432958992
0.0505174244451842
0.0528491313192579
0.0495526340522387
0.0483040088284241
0.0487805842984191
0.0515177210542563
0.0498792738047957
0.0517635072232009
0.0502076971080145
0.051131063358954
0.0481939691038702
0.0500567700799107
0.0500422860277199
0.0531758856681864
0.0492615139575883
0.0510156442584755
0.048943888817299
0.0497909823725214
0.0479775275768135
0.0494178802431967
0.046916242071707
0.0510704482022884
0.0482945393276358
0.0480670146270671
0.0476325512256523
0.048085222333471
0.0473339025543631
0.0494522332479297
0.0481340728052658
0.0489594766636825
0.0458310434541986
0.0490442209330114
0.0483367527546885
0.0482968480126546
0.0475399588433283
0.0477327235801156
0.0470432429160865
0.0494280014154649
0.0464764056488451
0.0487550503356155
0.0472660133269486
0.0488062925334539
0.0471650327671104
0.0464058282512625
0.0461701134399767
0.0482971081644337
0.0478769562102936
0.050194441386095
0.0459674858495706
0.0467774104729004
0.0453031126033541
0.0494400284495005
0.047262636411244
0.0478815388169999
0.0471172919781022
0.0478543948866843
0.0450438910390628
0.0467590153994848
0.0463746126645511
0.0475080208384917
0.0445791293459487
0.0463239791080378
0.0455986129525884
0.0467641153000226
0.0445578444184794
0.0456884300384045
0.0429633343245459
0.0459769869685329
0.0424261245736392
0.0445592623116074
0.042566856420971
0.0434339930768844
0.045970734363764
0.0445963135126019
0.0414476053401406
0.0447009144216755
0.045521118195395
0.0456177389977779
0.0406258847376759
0.0431329795141847
0.0429672863615874
0.0468779603504536
0.042762621814706
0.0458061374068142
0.0418709562071339
0.0452895944728162
0.0406493564394332
0.0450052670721663
0.0424451101455996
0.0426795247924661
0.0392353324320392
0.0424445781915288
0.0402265455379008
0.0427692284454379
0.0421102669282509
0.0434351990630102
0.0398557777748006
0.0409348667697646
0.0414884314984546
0.0417959452893796
0.04065365402831
0.0425314835399551
0.0386949124503017
0.0441710052957614
0.0385844603322047
0.0420156446374577
0.0399440395737245
0.041556178159749
0.0394944998777968
0.0412483618736809
0.0408638093363567
0.041720814632669
0.0398230576690095
0.0420292385621631
0.0389019006730177
0.0420671300604674
0.0401357840432001
0.041487807919659
0.0401748979544249
0.0400129870036537
0.0380437568488774
0.0391510841863366
0.0360442572480976
0.0402682347185931
0.0379849051032777
0.038408999738652
0.0349545101654936
0.0390152780807247
0.0366315305431422
0.0388439598414035
0.0349967458060384
0.0421082720217352
0.0343487822232262
0.0416610373904993
0.0373384157753698
0.0407365861538049
0.0358721744768582
0.0390892470450316
0.0357623925469829
0.0373972493641157
0.0362606494922788
0.0388624541789501
0.0343188627937302
0.037304101544664
0.0362141410143716
0.0365609851018822
0.0359059143238369
0.0400685761749094
0.0344105913884894
0.0348792974467752
0.0372003928983282
0.0369320459351808
0.034172673485968
0.0372825651383127
0.0357859970463146
0.0370772897661042
0.0355958866374619
0.0366559814609861
0.033041197228466
0.036942773448962
0.0367123824894129
0.0386586818401424
0.0350389704393712
0.0361101921137523
0.0332787211228518
0.0381653074275539
0.0361063142888754
0.0367270586224756
0.0350987447515477
0.0391403646603717
0.0332064096241626
0.0397636807365121
0.0357140279712459
0.0396921284289866
0.0357039247651268
0.0398148183457698
0.035285060059597
0.041762622957412
0.0371672456480391
0.0393781085694357
0.0392977814959508
0.0448762646260931
0.0358126427168289
0.0421154699385352
0.0318626395742507
0.0390003071183255
0.0248715124353491
0.0320813225894779
0.0290849394158943
0.0400350941362212
0.0258251837791009
0.0356372291119521
0.0300239477051987
0.0428857109026782
0.025460046181714
0.0398331063368953
0.0300077864826981
0.0354511170465233
0.0296354297169989
0.0325029852954113
0.0245126544205036
0.0385313811491472
0.0262809629095004
0.0401689004594289
0.0229307759993185
0.0414672211679461
0.0281949901329291
0.0426744385065595
0.0241627981062433
0.0488700802061949
0.0249789568996991
0.0446344932482075
0.0191600213418423
0.0420016515907176
0.0172912021850278
0.0429023026130229
0.0171312695516795
0.0448658134273682
0.0148679188337953
0.0501729178206887
0.0173868181804231
0.0490492775509389
0.0136221830991783
0.0448253523787502
0.0121556642020787
0.0464052990170217
0.0181713378273533
0.0555509753682067
0.0244059332506001
0.0493207695066248
0.0175324003296385
0.0399977111865543
0.0296000848447322
0.046683811135348
0.025633172392843
0.0325314422573459
0.0418448578605808
0.036176813944306
0.0473942797077111
0.0135335119518088
0.0604123355121582
0.0132724431775547
0.0590241514132
0.0116116236931866
0.0662271202152783
0.00664709295013694
0.0632812837718835
0.0166992081805848
0.0540104778593924
0.0216860645767368
0.0460411462622681
0.0280515248980748
0.0385913587559172
0.0359567661779478
0.0339980070609865
0.0355104462574436
0.0323172338187916
0.0319554511391014
0.0372357764815609
0.027975513338861
0.0404533776208975
0.027797380260001
0.0389469806162006
0.0271223545834146
0.0364915114791891
0.0283110610932106
0.03357859523938
0.0283180374503859
0.0329479667526652
0.0290981812859093
0.0306041453733822
0.03016772946072
0.0370157528494271
0.0292445915652198
0.0327173705415919
0.0294596650162886
0.0345540945545615
0.0266928226958497
0.0329136098396192
0.027080631968075
0.0324352172460678
0.0300113039466151
0.0321918466341982
0.0271983011790564
0.0324966507899551
0.027493824423157
0.032655703369734
0.0263817927605906
0.0318379470871554
0.0293684106409568
0.034713505499158
0.0299266166792654
0.0325592289268072
0.0294727095856137
0.0340913404452682
0.0300139119048046
0.0316627427137547
0.029692956621915
0.0321106764638847
0.0288720298604119
0.0316480334942428
0.0263528467070853
0.0315422966257774
0.0276097263211842
0.0307500767601989
0.0306848055208183
0.0323595766331923
0.0280646867016394
0.0317985447385447
0.0289008364068541
0.0315261145773862
0.028729386902381
0.0318267269221426
0.0284916060453662
0.029993734166849
0.0294475471578377
0.030550859563501
0.0307627037581359
0.0295900758905815
0.0292657176147534
0.0299967538111436
0.0300520121233822
0.0301947206838549
0.0290227695978703
0.0306939947998513
0.0270844000866243
0.0297134514890372
0.0303486211651394
0.0295754569471785
0.0306394199307704
0.0271892079721464
0.0298280692970916
0.028537629904393
0.0301997570584929
0.0306106271384465
0.0284110839523083
0.0317262246723669
0.0314971954537207
0.0289757303767087
0.0277619805050739
0.0294890709925476
0.0283407121347992
0.0287408572468724
0.0299337103521996
0.0298504318391274
0.0292624670303652
0.029531374689365
0.0290031995606106
0.030056477891713
0.0290270606875384
0.0317716388713082
0.0289742680977478
0.0318002540702241
0.0310543762922542
0.031395655134774
0.0289144177002567
0.0312973263229455
0.0292101937749525
0.0308471484461965
0.0294374978091431
0.0287306148885915
0.0283410441266406
0.0310774472280087
0.0294940579473292
0.0318722508794018
0.0305788738146153
0.031131852169771
0.0309441437704524
0.0283431181748141
0.028029754911186
0.0309500252471099
0.0315603111623268
0.0290085651180712
0.0292337191339658
0.0313156884944499
0.0295261609194573
0.0298884928791468
0.0294320633282492
0.0281305538170357
0.0287561598504826
0.030629790158718
0.0281723098611214
0.0295251000689913
0.027102079915446
0.0287104680548437
0.0303514392018966
0.0306689374859337
0.0290892068774614
0.0290590948766678
0.0306205828576756
0.0310410385695557
0.0289602335901589
0.0291157861273775
0.0281603181557993
0.029268737345948
0.0291059760344525
0.0295222977465614
0.0299183332420258
0.0276611836278167
0.0278646796219387
0.0305474879086938
0.0298140303605473
0.0296412552667452
0.0308882455333273
0.0300135611433088
0.0293808900407621
0.0302797587347316
0.0318396235706611
0.0312661903362471
0.0324708937689219
0.0311482247155174
0.0306688883281051
0.0315045811069865
0.029144646558146
0.0305433921610514
0.0305175593936122
0.0312177968766429
0.0306167625830961
0.0301582367584494
0.0321802949852622
0.0301026370989911
0.0293168830332022
0.0315581934298721
0.0319042081989716
0.0306424848383374
0.0319372427509481
0.0282654444217316
0.0292672328938192
0.0282835811778194
0.0282787958179091
0.0306912671297813
0.029161620005222
0.02939405056705
0.0279608542455283
0.0287726254514064
0.0290746992509304
0.0293528793605427
0.0307264863736621
0.026916281834994
0.0294078868391046
0.0287986180183727
0.0273712671698435
0.0276678341149618
0.0279079518040618
0.0271517284644098
0.0312560618709759
0.0270072900463035
0.0292586948870042
0.0295360187493968
0.02943152287659
0.0301412020592022
0.0288769376104238
0.0266797727911506
0.02895555309124
0.0295438572141648
0.0283056123647735
0.0285373602922945
0.0271140925665238
0.02988884952059
0.0288428087681123
0.0283471815629327
0.0301043417296159
0.0283149480308147
0.0290421677819751
0.0297163624627637
0.0277568961469389
0.0283348718918511
0.0283773741270667
0.0286103050774765
0.0281045829867951
0.0265201065948758
0.0269084676730925
0.025439688547646
0.0287290047173013
0.0287061973600021
0.0298310354260187
0.0268746313126526
0.0264769760466713
0.0257158474363657
0.0270559817998315
0.0277954481801844
0.03013076418872
0.0287435673822759
0.025159713805393
0.0282384910756381
0.0301732110693022
0.0279065771397343
0.026618605683534
0.0275942726856287
0.0293668764565349
0.0265725279221389
0.0287856116811016
0.0278844290771583
0.0275806220675269
0.0273986286723872
0.0254156237934296
0.0268723279276255
0.0283045333305885
0.0282068153137598
0.0273852126427356
0.0263502427440086
0.026968633166688
0.0266507237395166
0.027724196584047
0.0269243938157914
0.028602495720215
0.0264147705653008
0.0258676361025515
0.0270980013850758
0.0261664426184942
0.0238298584377064
0.0280853710780819
0.0316631467827043
0.0309958264360332
0.0274333788246489
0.0296510976860874
0.0285608845309388
0.0290703067000468
0.0264393240323658
0.0257947946636196
0.0257948156024454
0.0277548006315517
0.0257934292677411
0.0279114737174773
0.0249230521224731
0.0276430836414465
0.0277237321910446
0.0257015649506516
0.0263999951384612
0.0278116233718843
0.0253801954473643
0.0262532763267273
0.0246863441822981
0.0262770735465591
0.0257151749749914
0.0273289957212732
0.0252172023543712
0.0292765798748888
0.030810558853566
0.0256481003853206
0.027403998644462
0.0263849409366998
0.0261639191251185
0.0269281238965153
0.025445587844328
0.0273644294479109
0.0249285075221953
0.0255802997806549
0.0248813911156838
0.024945312693952
0.0270371530297027
0.0274653495789931
0.0234783073120835
0.0255745711705848
0.0271538358223218
0.0245089770785895
0.025315048376635
0.0264128282517023
0.0251153310823493
0.0253241282140139
0.0261439512212117
0.02490243676289
0.0287125947416391
0.0299024733654607
0.0318739129342295
0.0283985475319732
0.0207768215532632
0.0240746863199904
0.0233601865970027
0.0275567365512407
0.0239999638210928
0.0261672317096252
0.0229808442256401
0.023278551938815
0.0225623062283255
0.0244890737116778
0.0249150055955344
0.0254151650836984
0.0215413500836041
0.0228001499814905
0.0227200264151368
0.0266235252701107
0.0238707678445846
0.0261378858644952
0.0236867798066469
0.0252761994568847
0.0222113447446591
0.026250550035581
0.0205541313619895
0.0281999874571071
0.0290252262125928
0.0397900837204937
0.0260387890067367
0.0250257431886958
0.0262668051937363
0.0303064453086876
0.0246263333485181
0.0241429991704177
0.0226960494011197
0.0246055738794421
0.0251757097903011
0.0247606334355309
0.0231523393972795
0.0229791253044631
0.0242019027058011
0.0256030613308096
0.0234064238513915
0.0230893714374778
0.0217077999858708
0.0234164455417799
0.022082094802397
0.0249653413346117
0.0228769315088044
0.0241786773036449
0.0242578212524621
0.0252366207878996
0.0244614570160885
0.0338248995592243
0.0315923806682429
0.0248994424553437
0.0241334037407465
0.0219371356340629
0.0223864727257806
0.0218884105226531
0.0225928795795907
0.0241489387586654
0.0244557106415726
0.0216312712061819
0.0211812677836596
0.0231099396562694
0.0248361645328578
0.0244202666077437
0.0237592462449748
0.0229832152898896
0.0196125386130965
0.0230845082543911
0.0239539706360598
0.0214882481970843
0.0235767451733483
0.0210028240159472
0.0280998547318378
0.0212274812303156
0.0244862395593592
0.0279539519585546
0.0431622531910507
0.0274388506562297
0.0241717301453826
0.0256993523811187
0.0200862769236734
0.02459764861944
0.0215690265421843
0.0229511370758183
0.021071902740885
0.021929227641139
0.0229329502186547
0.023091466615343
0.0218344780099707
0.023691508452862
0.0211711313683188
0.0233866374908216
0.020693130969876
0.0229829886205646
0.0201383093840517
0.0225727659373891
0.0280037594195499
0.0397881241358602
0.0326508233143902
0.0220258201545197
0.025450370943933
0.0263610092534701
0.0362011704914819
0.0415076433220227
0.0169278689815394
0.0278435528586444
0.0170428314501174
0.025853932036213
0.0167837856272019
0.0240901251995925
0.0186060878978818
0.0331710480763874
0.0224295414957246
0.0300972139697195
0.0221887267620337
0.0220454986430794
0.0204288335267672
0.0233823669675643
0.0195062817162892
0.0223333609659496
0.0197177869490114
0.0214074366242573
0.0204697429071622
0.0231917048055111
0.0211138691765874
0.0235391946442948
0.0214105201715489
0.0336728089671002
0.0183295976172513
0.0257753387663781
0.0216773891403716
0.0250141273119419
0.0287237237702687
0.0428690065289423
0.0223642015624854
0.0231962072180559
0.0234771519336156
0.0228325685601124
0.0262621896927547
0.0217131196994609
0.0221061185933961
0.0229526835016712
0.0204260464944779
0.0214394128125625
0.022506961165558
0.0219834495489031
0.0230003204615763
0.0194662010030878
0.0219044019312558
0.0215231674185948
0.0229729104122835
0.02373577362783
0.0213784168186775
0.0292477130654577
0.0339318262132661
0.0556368607552565
0.0356801058705863
0.0406399703625789
0.0244248080703326
0.0269600118850385
0.0208024485932501
0.0235182342258892
0.0198783328167749
0.0276603135719247
0.0202363058673247
0.0242327443926536
0.0221220414589562
0.0243654172666294
0.020145966511803
0.0226380112546145
0.0183277541672684
0.0226991810316183
0.0199037692837844
0.0210746012328264
0.019283589260367
0.0201367501433915
0.0215299177308306
0.0308356379916301
0.0344380169184021
0.0203341935397097
0.036629410804548
0.0400729920178534
0.0620069079452156
0.0255143863698686
0.0305022790979475
0.0223856793701085
0.0200742154119899
0.021393984204903
0.024446188376601
0.0283606801890656
0.0260149050004449
0.0202197161761769
0.0218149621376985
0.0243443460566511
0.0235488256285011
0.0240655863709809
0.0359723398052851
0.0587500640362872
0.0395664701698069
0.0223356953172058
0.0280969399160628
0.031169482249549
0.0512125280191973
0.0303177563838375
0.0217776820690585
0.0294186663669889
0.0181187856853457
0.0245423516883988
0.0175933695405049
0.0257000492297198
0.0233288104354803
0.0256546265095048
0.0175155339599861
0.0229341664339923
0.0200284987316375
0.0250829229094007
0.030309817189697
0.0360882756636448
0.0335158188461676
0.0261146748540253
0.0256277894293696
0.0303900730659166
0.0197859033663154
0.0277751541792066
0.0185550143977601
0.0258301672220221
0.0328979067109637
0.0433658296640623
0.0338665499053108
0.0436284675644735
0.0367697057014541
0.0257093023101655
0.0256238680008425
0.0437841553183765
0.0237866178825639
0.0339178936628027
0.0267484540250484
0.0652869746877019
0.0458268650137327
0.0468245743499612
0.0303272296824598
0.0239357536206201
0.0266887648930649
0.0197925984517452
0.0327905380081023
0.0331014579119586
0.0379975446085073
0.0161781668245041
0.0329846331635103
0.0296961482182661
0.0471392640571111
0.0264847370988103
0.0316060673448866
0.0192833397734517
0.029824492104606
0.0326150358417193
0.0364604130653132
0.0295341293141329
0.0583166556544677
0.0757306516229481
0.0447798074070786
0.0371049231792276
0.0308970825353159
0.0562973677894025
0.0420197888148079
0.0221043935494913
0.0320617235970198
0.0208795620268671
0.0293204692688609
0.0342079789718129
0.0574270514692665
0.0402870696287858
0.0234810944048413
0.0332212456814498
0.0328764134650495
0.0444806819832906
0.0430624680491192
0.0231814892875475
0.0298176467856249
0.0236888054185672
0.0447200784870887
0.0561200355813963
0.0708078968637305
0.03948720140598
0.0696678786752416
0.0506760285415232
0.0484007964849575
0.0386556900358238
0.0380661713047008
0.0523654335889098
0.0586332324470161
0.0332170079624541
0.0303514669114579
0.044621175690117
0.0586602248007628
0.0387448848090527
0.0321740146260043
0.037382275282722
0.0372014669576047
0.0863776815527148
0.107224685664483
0.0690426103497798
0.0402016438072666
0.046264793230516
0.0588366907465936
0.0468881171098105
0.029320855538898
0.0358062089897668
0.0307652151500815
0.0318627171151081
0.0361146275604918
0.041363059117764
0.04030354120061
0.0327156779708051
0.0360326125439371
0.0375803749259322
0.0719001883534602
0.10587283761068
0.0774186746900963
0.0658691094432932
0.0687102392998072
0.0779112916336295
0.0453958095689504
0.0446256436526839
0.0362650530948576
0.0506744107945903
0.0434207926036669
0.0385246046265191
0.0463206264526912
0.0595946794457128
0.0673162211193186
0.0641341877924541
0.0630940427862914
0.0507996447745055
0.0512478311427506
0.0918365080821467
0.133015397512002
0.104011768466246
0.0471699773462632
0.0858502649513776
0.0639610192923323
0.12711475762683
0.0695670108167455
0.0514622212417341
0.0514655272608641
0.0562498440725516
0.0565284973482828
0.070639816675529
0.0704431963512345
0.0788380004081405
0.0597288045856486
0.0756055943247803
0.0853385640022911
0.187257679189811
0.129292486836358
0.0962576311929439
0.0750754836300554
0.0995093253574726
0.0886355613480049
0.0830137154825085
0.0698418263849838
0.0843530524471461
0.0910916189655119
0.133917030720666
0.0926373811857646
0.0829555964562107
0.100508070722114
0.10350997565252
0.106920649687788
0.116409464517257
0.141437218691795
0.0942055189602757
0.0979132823986662
0.0914195466391213
0.095798032421263
0.10460697473777
0.1212798306097
0.129086359259408
0.101756084660175
0.108214563507918
0.102506783390166
0.105908284871357
0.108212428069273
0.111414105129495
0.117837847053103
0.157372503067228
0.206009437605903
0.233335356581059
0.156511584981664
0.114300021790279
0.116992245486908
0.12885787440328
0.149440995042039
0.165958639844437
0.150108682914607
0.144722145963013
0.108176476098454
0.116447735162608
0.112424173016678
0.113927106407145
0.11839439821457
0.109278341545593
0.119199478187284
0.130849446592554
0.139827255681292
0.153439272174559
0.18561147972192
0.127544569214387
0.112530317450595
0.11419172246586
0.109791853021869
0.10696753012284
0.107682375054362
0.124658956009289
0.127830789120184
0.113076611807695
0.0994128821405539
0.115068811696686
0.129873952887651
0.145268486638444
0.110681848159798
0.109760519717384
0.105889095321843
0.103722173908681
0.111866608327013
0.128510057883877
0.14554890982561
0.119210688090795
0.0948614127793354
0.10476447260844
0.093060714748708
0.100240665980417
0.0942694741223291
0.110470329473006
0.101057778173519
0.105205169704276
0.105117814001283
0.105625684915433
0.0917256841970254
0.102604466030342
0.0996963102877243
0.102718190860138
0.0960756159670458
0.0986971899675473
0.0927206486500097
0.0995832851727489
0.0935880884252029
0.0989798183214878
0.0943144781624232
0.104201503513463
0.0978542793580326
0.0988532858164698
0.0933693822732194
0.0970238314265327
0.0950166627460118
0.0994085443382499
0.0906639211137162
0.0973635270101738
0.0935808644497998
0.0955692353503022
0.0872014054490587
0.0935855397268198
0.0903557515546407
0.0946261955318087
0.0904348388530424
0.0925321670823634
0.0894403760283206
0.0953272338707828
0.1079633107608
0.13937610365013
0.120027256520759
0.0935773895749497
0.0897945159126946
0.0909333920975596
0.0845784378841571
0.0977072672472891
0.132499322283525
0.12301778118377
0.0885576918869079
0.0873503096264297
0.0837359446697279
0.105135980601814
0.0898800195602899
0.0868937788471111
0.0776492492786488
0.0961481647927594
0.106687345227677
0.188582144618357
0.181620310631616
0.172439301510715
0.0985458188187345
0.0862925168423965
0.103297411631262
0.11035619211326
0.0815807798754802
0.0750408732405451
0.082054773748909
0.125468709257721
0.0949525804410604
0.0766799314803347
0.068914736435652
0.078878039452189
0.106700027997006
0.111856266102201
0.100944225250686
0.116014073420811
0.124548888704947
0.123925356263475
0.151990469677454
0.165031121814999
0.107364578866261
0.076533792742225
0.0755778570287242
0.0758335906759283
0.0957946692289929
0.134097297165312
0.0938642582147551
0.0857637248964378
0.0656035461292022
0.0670850426871121
0.0774401082476009
0.0987246440284597
0.0807818781680314
0.0990427490441465
0.10182646889665
0.0803213053844674
0.0845050237337273
0.109133176737795
0.128771293003236
0.140386179639952
0.0740693693575846
0.0748969875316397
0.118297174744795
0.12421147960521
0.0929832343862212
0.0862164065842679
0.0575321551365694
0.0818164643588373
0.07652034198112
0.0743483986731347
0.0946339884245924
0.104274114688139
0.120549840002977
0.154867878835657
0.166928981967491
0.127572877333788
0.0783266243322792
0.061364533147298
0.060812774736869
0.0725081584035531
0.0622448112737481
0.0696610271089904
0.0936761401061371
0.0770008700968147
0.0722325305830257
0.111484471788925
0.0786381257667903
0.0645351343497285
0.0615438250597039
0.0641564847675736
0.0749301235529517
0.10947473745413
0.118212319521409
0.0920762310620404
0.0942048049567613
0.101130773653174
0.07669398488334
0.0694732070240585
0.0700568593294679
0.0715507997922142
0.0793993947704498
0.0892587472897776
0.0786277962382949
0.0812397874302611
0.0788783360089628
0.0836315459708338
0.117932426600438
0.108882149882957
0.0969825235815215
0.124299379015708
0.134800351514618
0.161220672911246
0.112103355269989
0.100291556347873
0.0939968184579449
0.101315413004465
0.102085287785348
0.0998294621234958
0.124944182604003
0.135171075980332
0.107574929756734
0.10937313549167
0.109029611257773
0.112418341060395
0.120760629997173
0.153985436104061
0.158322921767999
0.19531237390176
0.168458480455844
0.151341178899223
0.128263290936345
0.118947387839645
0.129638158309757
0.126043888032185
0.120314454631239
0.11954514749204
0.13218979971347
0.150060383816381
0.125931381641905
0.124592536462084
0.121909268150419
0.127206573125577
0.122002361720834
0.129834790612474
0.125675910345039
0.129905586695027
0.124392787958708
0.130155124355261
0.143814269671513
0.208314572027601
0.154318329512708
0.138235002122963
0.14121687045103
0.143568133490158
0.135796625413722
0.144322917685895
0.16587772732379
0.150036355710225
0.144033607315735
0.143829232949718
0.143703942602109
0.141811598154445
0.1635475224734
0.170195866287461
0.147165780348239
0.15236565168516
0.14712451536083
0.206622783610827
0.191266227921669
0.179535569434395
0.17073229643891
0.164401700821092
0.153608669174903
0.153484364092503
0.148036685297363
0.154207502718635
0.155284280969939
0.157384785482542
0.150884675504018
0.151467904601589
0.150026193347008
0.149342396730809
0.160413685792795
0.181943826438704
0.153330378604552
0.152094961692789
0.146788615881467
0.149638256474776
0.15292004879305
0.184706008443868
0.171585269932004
0.160008322634276
0.161727867831528
0.177081613000962
0.180713761055704
0.165746862835225
0.14666163959029
0.153493731081019
0.148581371727989
0.154592762817341
0.145167334369647
0.174564910354282
0.183546750267057
0.167941392082003
0.150628597531346
0.154479731784446
0.150144066178646
0.153557849305227
0.152085808884728
0.158058126877867
0.153912499581303
0.161129150058226
0.161378578655389
0.160188061479843
0.159936711754402
0.172906597063825
0.1826957112969
0.17228447613256
0.157380028438494
0.156921578126722
0.152489029261907
0.155937371781319
0.161000634707599
0.153283748313746
0.143941223757114
0.150195405585492
0.143343733542018
0.154883533112609
0.179352441090685
0.155474299949892
0.160699222169057
0.142369006239914
0.1393987827502
0.14025361333021
0.138659345836377
0.136821758540894
0.13719712100211
0.139960253403762
0.134850235697463
0.13290710274246
0.128277735419255
0.130061779262006
0.132193455282441
0.132204217680215
0.128782536553667
0.131887689759331
0.127803498363934
0.130939986071588
0.127424127175702
0.130134798531966
0.127978065265543
0.128295342741593
0.152235077132018
0.154554250083509
0.155532724993312
0.13647698023033
0.13989416167365
0.134111518219547
0.129031478415389
0.132371198998047
0.125879165693351
0.13057990168557
0.12364488505256
0.128416964957472
0.124104322018981
0.126315180294572
0.126420231434105
0.130796395590363
0.12296569835735
0.127210670173951
0.123739458294056
0.128886849162992
0.124987583896654
0.128684131895364
0.126792671129365
0.139180437278343
0.13314546333065
0.131733974846282
0.125836163568485
0.128557655467375
0.127238061031791
0.12961160921472
0.131330876570593
0.127316675937764
0.126390117558985
0.122720044352046
0.123086415461649
0.125494804971702
0.122953251540351
0.125066434719031
0.123597904960276
0.122916340393482
0.119484087298051
0.121141945413706
0.119197503977132
0.121320948621398
0.115982140011748
0.116266081920127
0.113223855742586
0.117607779130751
0.112361221241361
0.113533200406997
0.110334548343143
0.112376778719302
0.107727334715539
0.111188603876338
0.106828646648923
0.106871364587225
0.109138412884084
0.111610860662585
0.108116847500139
0.104945629257625
0.103944655766943
0.104127209600503
0.105794296598525
0.106715758694841
0.103825032865991
0.109667229862401
0.104457095178933
0.105080560870491
0.103604405735778
0.105573063260046
0.105716215062629
0.105988213993173
0.104417714677102
0.107904830385138
0.109228519296112
0.109719726701388
0.109869537180792
0.110425678292721
0.110062435613018
0.111019183729488
0.111394468001257
0.113498023879306
0.111446335918395
0.110197406182428
0.112250606262119
0.110684360440929
0.116263813944788
0.11282835647613
0.112219326992068
0.114900204214989
0.114117068732272
0.113443771323627
0.111803708257103
0.112942697883967
0.110346781911876
0.114567869208013
0.110815076483224
0.112468373384173
0.110609482112716
0.111410475004429
0.109583694451275
0.110055977821653
0.108771378506723
0.111018682547061
0.108988855440557
0.108437136052188
0.108745221055095
0.107124022820436
0.107654509194303
0.106286197527275
0.106483975226475
0.107653742252218
0.105902026836949
0.105639857847402
0.104107140638739
0.105255667325461
0.103562146169353
0.104537771507255
0.10219828718955
0.105041225203023
0.102474642651412
0.104316589436165
0.101428616701067
0.104645437177239
0.102330706391113
0.102381687231663
0.100718047157489
0.102093857677239
0.101244941223341
0.102831097029859
0.0992234631223967
0.100174282832651
0.0983641412695212
0.0974701794939378
0.0975432649238879
0.0979048941812316
0.0947153226939816
0.0952013889877895
0.0980839210319444
0.0945941698899242
0.0950302120906004
0.0944648298965188
0.0922716315369436
0.0936357389221685
0.0940455178326257
0.0925774142090453
0.0898117219820099
0.0935136110962209
0.0917790644564393
0.0933248594415721
0.0911831641541037
0.0929232211922473
0.0921334336441967
0.0925525411010259
0.0905048249771131
0.0902432942791763
0.0874978811549685
0.088787903261933
0.0868019877105498
0.0881086494025319
0.0848933100547311
0.0867086399151431
0.0843483551410583
0.0843634429697716
0.0803933218636613
0.0843338950739552
0.0819053667119265
0.0848148158331634
0.0848578697259834
0.0863259340951754
0.0877797490384551
0.0896684905304253
0.0932800192963977
0.096767662066648
0.099129315380406
0.10563872659294
0.108826009915264
0.113950066223238
0.118580105963857
0.125496323548154
0.128073036085035
0.135143947700252
0.140667176204929
0.146175329834796
0.148091619560068
0.156387562403011
0.159246303592197
0.166328838309517
0.171935364998873
0.175416657881651
0.181216144682365
0.187739282433807
0.192066443189061
0.197046768629885
0.199191043813705
0.204166476052728
0.206896152815481
0.21312650067476
0.216132935129053
0.218936467093827
0.220270702777795
0.224005415839531
0.223096642823603
0.22572170320655
0.22687656254046
0.228512560796883
0.226542229152713
0.228090683259018
0.227497860289437
0.228125539454833
0.227257092177415
0.227916164260229
0.225342801870419
0.228140729226859
0.225918015241253
0.226875363443882
0.225469314539712
0.22775511100727
0.229699699096634
0.231675258401494
0.233775065061403
0.235182376322463
0.234644168584024
0.238224033095989
0.238662090184854
0.239954940266252
0.242714546170483
0.245669559625983
0.246582008414011
0.255414938679734
0.257125330913339
0.259882144509555
0.260217443442114
0.271367297927
0.274420703024373
0.274681284859242
0.27856903577172
0.28262125009302
0.281763858897829
0.286074949370364
0.285826449255679
0.290524053029221
0.286721972693265
0.285976696430577
0.287970155967414
0.286975240191473
0.285248353048304
0.285465086914606
0.284808174967864
0.287016340127106
0.284620918222449
0.285375720827799
0.287699135757579
0.291017541197425
0.293265314104566
0.299379408986376
0.302116322661313
0.303491960024213
0.313204938514679
0.320062408008487
0.322523267449338
0.331553128459042
0.336832106375748
0.342569398014537
0.347467774148271
0.352130322051206
0.354721991658173
0.364898707789157
0.366571053160573
0.375642265137007
0.379596634560332
0.386920740454063
0.390684291556526
0.400766001992984
0.406944570269049
0.417648271994815
0.423587693669372
0.433593035650272
0.440855527328124
0.44635419463785
0.45343244577249
0.456811199670333
0.464552973753443
0.468600667484595
0.470949941337975
0.470211807182077
0.474596283896136
0.481569111230087
0.486866080073206
0.487302753063309
0.482139247287743
0.482566655076323
0.480291300356785
0.480554329163198
0.472626195407611
0.474221605928792
0.472285732651841
0.467783867279779
0.462933311590222
0.464356113427812
0.457427464623667
0.457322013184598
0.458463896020342
0.455263153393411
0.460182291069298
0.461769551393168
0.463331087202883
0.468889626324047
0.469486540112903
0.476902537160798
0.47557846275584
0.481989193204584
0.48235326508614
0.488012901185383
0.493272845424957
0.493614433351548
0.496721245403587
0.505288463719486
0.504237455093647
0.508942205625418
0.510902606112383
0.513422916656978
0.516144307065814
0.512137424610593
0.51093399194356
0.512769663881669
0.510118517112338
0.514605740482642
0.515921147800342
0.506401092818486
0.513860304518476
0.520753450255195
0.507857097853935
0.503595497966381
0.50285099676376
0.505909747400029
0.4956904390552
0.502941025007955
0.485869172695865
0.483304038711075
0.485744007773507
0.47692329337715
0.467205326097516
0.466421231588322
0.452296592783753
0.446104758133676
0.442399145785451
0.432806845216396
0.410394967470236
0.40839628629066
0.390092032487416
0.38314939018636
0.364954019174773
0.354642184092535
0.337271492212159
0.319757393798884
0.306004089744333
0.299642855264655
0.28410191355682
0.275274496682413
0.266410834766951
0.254088577432402
0.248528513124725
0.240558385189166
0.243722543468957
0.231997282649242
0.235503494008179
0.228008523101947
0.230129259387565
0.221067550070651
0.229104674493762
0.217537915144112
0.218919637715499
0.206081255193717
0.209290235147843
0.202721938349711
0.198871245909831
0.19230589644063
0.190204636504614
0.183937314855676
0.177017750929717
0.175739803506042
0.16904687632168
0.163837631341212
0.155147622052794
0.148208354707866
0.141851081807007
0.136874959197388
0.130678207963828
0.122508275761998
0.118029209615191
0.111474240576287
0.105808211808999
0.101947020289668
0.0949331313819133
0.0911931540597108
0.0896069881132407
0.0825367426457212
0.081499111302033
0.0766454502277125
0.0755979907028251
0.0729567901547878
0.0719762491456217
0.0666935499592071
0.0649842953478909
0.0654310657368397
0.0666523731057435
0.0596943719191095
0.060907643145918
0.0622629713618273
0.0594092898973167
0.0609655830747876
0.0615128199617086
0.0598215086847078
0.0619228112716516
0.0618194957244907
0.059439316606819
0.0608974817145655
0.0617725216181392
0.0620644549342648
0.0630394567545388
0.0640554341471639
0.064290169622042
0.0608418874194242
0.0647997940010873
0.0620075620648445
0.0631844398380946
0.0620904552039894
0.0607724364424341
0.0597992150313238
0.0618391661385992
0.0600389671176318
0.0596457245604358
0.0609999123487407
0.0564600425904388
0.0612532427161762
0.0609817079697007
0.0610949036519938
0.0589668640729785
0.0616526718108339
0.0617654838495704
0.0622596088550056
0.065559665322344
0.0640475078169027
0.0630301240077331
0.0635821058832762
0.0654984291190616
0.0672041278746347
0.0652621944295031
0.0650738335404448
0.0697296919000086
0.0685390867335778
0.0673246441732947
0.0696380944618041
0.0712576622054939
0.0696088182492262
0.0712012061205417
0.0669149616006589
0.067312835713247
0.0675783947399554
0.0727755208390988
0.071270923544223
0.0709811603680843
0.0709363539064288
0.0704793606248463
0.071064913657693
0.0715089426004019
0.0764865517629207
0.0782395698164579
0.0796012637702878
0.0797740911012
0.07810645986251
0.0821359947425186
0.0843519103804778
0.0930513684673184
0.0929436552981269
0.0924494067756856
0.0993263417776604
0.0999111716941247
0.100438407037381
0.0974498838336532
0.0946814924383507
0.100172882040593
0.0958625132290494
0.0951903911694531
0.0920546756016133
0.091909016340672
0.0882048298006149
0.0907565204013032
0.0879283127203129
0.0837012515518557
0.0827505803113971
0.085517579915688
0.0841499472414887
0.0835820193970707
0.0879408747367782
0.0883322493916277
0.0879733851891484
0.0846613120405351
0.0831864724247083
0.0871347507424392
0.0846941292901539
0.0828955263794383
0.0824031716409573
0.0843522296936727
0.0801747324077037
0.0783321749324586
0.0723386517991296
0.0761765568908786
0.0775828804691565
0.0766215038697871
0.0776986412500369
0.0766181773978378
0.0715277548448961
0.0789891072774912
0.0720192145456847
0.0713698125749365
0.0700722743830271
0.0771061575238474
0.0687572604479021
0.0693597248315816
0.0668519060554487
0.0693516046194853
0.0661851987212718
0.0654242142400449
0.0665223495705891
0.0681404088845427
0.061164896264922
0.0680682574684454
0.0651056150406716
0.0692136855381079
0.059878051248582
0.0673456369316632
0.056063336853947
0.0672248556766857
0.0650722358166936
0.0617944707676752
0.0640725711135766
0.0653808647463193
0.0649987461029202
0.0649610817396635
0.0581760620890038
0.0627216824849985
0.059324763181392
0.0638476238166876
0.0582187293388371
0.0564597463441988
0.0515371866359763
0.0585323739119461
0.0574540695182929
0.0635720527099727
0.0580722359422766
0.0561267145460934
0.0646389747000019
0.0588550329432867
0.048505283569629
0.059789296359148
0.0630651432151866
0.0654653124063235
0.0545192308176291
0.0631871998278496
0.0609937069664788
0.0545854086269814
0.0613703703356156
0.0594576482655418
0.0673636633630211
0.0708158840579453
0.0616588947079219
0.0750005252951579
0.0662069483343219
0.0719544539945475
0.0653533007860274
0.0791498494247519
0.0665034499907645
0.0767487861180266
0.0714460739969407
0.0760031409141037
0.070016054435553
0.0813604292536951
0.076792544333656
0.0815838257543197
0.0764522684369892
0.0825156507360824
0.0829589421665398
0.0859313002337801
0.0841987740617913
0.0934366299472506
0.0889490352916955
0.0962227655563227
0.1082347599619
0.113456081915641
0.100296900572777
0.103848730123919
0.112144957043583
0.125877806358743
0.114680086474258
0.12559531454345
0.123867704771259
0.117183646786305
0.109546344687718
0.129641347239047
0.116821461952682
0.109132483425116
0.115007881471347
0.125230733910883
0.113438095894375
0.112956465272898
0.112216809409381
0.122400924215511
0.11616100913074
0.112499867610308
0.108443813415784
0.110510501772129
0.0921922734466802
0.11143922044026
0.115903136293388
0.120692779364929
0.109284145817732
0.11175065636287
0.102603882243417
0.102301529211676
0.101064470978109
0.102109192041428
0.101019746733755
0.106516544982285
0.0706508959424365
0.102030191051613
0.0992240998614264
0.0889459422074894
0.0873008129955847
0.0988467105494174
0.0985793322050353
0.104453268551844
0.0949793321127454
0.0935589342774093
0.0993435790874277
0.0948236927307028
0.0863838237111878
0.101655420650786
0.105050026555769
0.121633040815215
0.0978384845899404
0.0983314109569779
0.0899726174601706
0.0888416487267949
0.0967885705052373
0.0998479385414672
0.082748452995514
0.114496040277806
0.113406802343601
0.102703729401139
0.0980005497223556
0.097857455298788
0.103705656824772
0.101523847615704
0.0956914012454184
0.112755995490993
0.0920661573832691
0.115806787272362
0.0833116712118452
0.103990278565331
0.0838909347032548
0.0971657243298182
0.0968495987715521
0.122700167846982
0.106973713465428
0.16055974098554
0.0997645462476931
0.109000820073467
0.136311157392135
0.130506124269766
0.115388138443162
0.14446857806303
0.133798387711437
0.13764572938636
0.10776648104282
0.143273571027753
0.160964865725441
0.12878197289876
0.1223946966659
0.172220665558486
0.117310547571933
0.14063020457501
0.16644507487731
0.14905071434772
0.129444405327373
0.128347883071958
0.121665910878745
0.178829649756018
0.142664614844124
0.10404061442806
0.128521165468447
0.150793218458554
0.144432930991194
0.133198859424807
0.123161332971557
0.130892812517775
0.0893935974240036
0.126763298955576
0.0901753858952908
0.126049350124158
0.147133434940906
0.161120216363148
0.113195128972984
0.169623778213265
0.124083023267368
0.146885273119276
0.112166738510246
0.126852933577725
0.0910778998293075
0.194008526863072
0.0657524605948678
0.209203631562023
0.179967244799256
0.0698995650157058
0.0545907801943869
0.152207452332044
0.163125344692105
0.199668602917017
0.0580140167209594
0.0745557542053752
0.108073744217639
0.253446546595551
0.181117804863126
0.100358869353017
0.106916153231833
0.143053202277634
0.122073952536663
0.320389875838993
0.189673483114492
0.134598084182055
0.072781349029537
0.2297653826281
0.12227992855526
0.155981339434255
-0.0763421651780061
0.158163715277148
0.146131726648977
0.116339678027613
0.0633374559207471
0.151026496073657
0.203340158908854
