3596
4000.36533379555
650.420452594757
1
2
2
0.0699243279333856
0.0853757750521276
0.0774718385409729
0.088366532244268
0.0789706964474889
0.0796652662789466
0.0679967040144214
0.0784589642603314
0.0730242863000506
0.0899262135490696
0.0785392904983326
0.0827045606985472
0.0644495622467279
0.0790667698542031
0.0780811466927383
0.0833576350048045
0.0710045646755481
0.0833628602966807
0.0700420462472702
0.0860087626661817
0.0696426516119413
0.0821061929761734
0.0709205329573188
0.0793497359010249
0.0749181974543731
0.0868889481150226
0.0734866527686144
0.0854134114650132
0.0786326276664967
0.087323053521168
0.0765081458134135
0.0839943779758077
0.0764889955731672
0.081036027246568
0.0633399930222476
0.0734181520000085
0.0709916994501921
0.0820102378767439
0.0657485364610408
0.0908151286457015
0.078906951326766
0.0848978422421672
0.0715546232626602
0.0880394611568465
0.0792580250566106
0.0848619553113505
0.0731042606949389
0.0804854896253631
0.0691970798703386
0.0872823157081784
0.075483164917404
0.0753277524763408
0.0854492894265869
0.0847280102778671
0.0895898226596119
0.10202988882873
0.0715417781909476
0.0794399298610962
0.0757198415956725
0.0840957830656272
0.0969057589355456
0.100268676276259
0.0744663899061907
0.0791357834494598
0.0743268962410499
0.0785713188271028
0.0631103439937346
0.0727072238882624
0.0733046327842147
0.0839790352747339
0.0716831249292553
0.109193187743749
0.0814138754336332
0.0817279653670556
0.0909748269257471
0.0802532181316498
0.0710098051587842
0.0807955804625857
0.0654325802516001
0.0984059633848677
0.0897803083169924
0.0945812006683659
0.0743696485700844
0.0713746711544124
0.0868705282820668
0.105302887666982
0.0610312211434099
0.10131428176747
0.0990535482812791
0.0959564104287751
0.0643810865186489
0.0757932795579247
0.0626553316296451
0.0780350001426184
0.0658573033912476
0.0784440424243447
0.0635406740519681
0.0846866324725083
0.0591247936484672
0.0937052532530246
0.0755731300815839
0.129027209405216
0.100023779153224
0.0876806003805874
0.130034014501991
0.0927032899839139
0.0947868785243699
0.122986375687246
0.0865898608170275
0.0798433430651808
0.0627983835330094
0.0847898887153624
0.0720915660007719
0.094234457068274
0.0581125446863978
0.116035786824913
0.0918962387057715
0.0855716241190209
0.0678248224014176
0.0794040389643909
0.0556398576733326
0.133334492413668
0.0947280625234456
0.091244348729493
0.0927526292475018
0.0867234592011654
0.0668965057582667
0.148921492252668
0.0865304267389096
0.0849696399590944
0.0626444217340264
0.0816620741148852
0.0555466828129737
0.0939586957623554
0.106691887693888
0.0887411920844413
0.0757929633045221
0.0773049575627526
0.110870056764026
0.13627078963339
0.0860378439359542
0.0894420915625841
0.0633838268648577
0.0997937757627887
0.101875095480263
0.0938560892644008
0.0739190312598093
0.109933097662885
0.0675496001877203
0.0805344351585872
0.058982116308023
0.0755313628249989
0.0919510793170639
0.0987367589446289
0.0495618889772015
0.203459255114206
0.113357900554538
0.155648167043274
0.122937094195225
0.0867551898888581
0.0859098660096345
0.0774953754142245
0.073390746570152
0.0704191213662592
0.0662031911499357
0.0709613709216982
0.0992653853663375
0.0984068372599428
0.0722569149978998
0.0974730226139674
0.106854568306381
0.0973851854670093
0.0787890425942855
0.158293782692816
0.0687467405099704
0.0911412832900201
0.0937304167374288
0.0967838095458812
0.0589710581352669
0.106495256689902
0.0841169177960217
0.0866724355446874
0.0656781944955515
0.0756127367303174
0.0742772579289727
0.100427366901592
0.0693088014273593
0.077946048638945
0.0689501737975898
0.0781888349853227
0.0915073597295905
0.154692866636947
0.103119877491975
0.0881560594641806
0.075505010435608
0.0535410536973779
0.120288917295325
0.107786430371695
0.0790946582228322
0.07674798976721
0.05754862573563
0.0725626407840926
0.0581596295790498
0.0747590682122655
0.0581052401520357
0.0684865753879854
0.126806223991177
0.0970846627989332
0.074325507183133
0.0747632955423684
0.081810011472871
0.0770105495729391
0.141715027320426
0.105259652657426
0.0809005889033001
0.078271319757178
0.0727295601933783
0.100573698338381
0.0808585321269971
0.0744300755001006
0.065661871233907
0.0726609946390565
0.0689468073180498
0.069888676209728
0.0619477682150393
0.0752341912888863
0.066061446116016
0.0819493767718696
0.0687703021750752
0.078401669254351
0.0764529730050969
0.0809445838090822
0.0732867967031869
0.0764697989636656
0.0574014510894303
0.109841680795351
0.0942847354972838
0.0837234882812112
0.0630763637331535
0.064105060113787
0.0643283478741231
0.0681339419621076
0.0650981261720959
0.0726527079657051
0.0653977981944831
0.0796641105171173
0.110010965685026
0.0761470845779207
0.0796191102994393
0.0650243503164877
0.111783997514085
0.0844916279171142
0.0781948556997737
0.0684647782802099
0.0676221183931213
0.0621063789698778
0.0791577013312103
0.122249041288194
0.0784592992496769
0.0672525952564057
0.0994468560492187
0.0814411998168194
0.0721474672017688
0.0767024710298902
0.0723477675762025
0.169877003519451
0.0920288527277405
0.112137206195962
0.144950065990019
0.0940609690815484
0.0966639568831645
0.0757791191640273
0.0610507810876769
0.230132389577383
0.124143157207361
0.0775834529791027
0.0802676523113735
0.104471748826155
0.061694896393732
0.0975232991965774
0.0750488078898788
0.126353445489666
0.105411742410653
0.148888110323859
0.134992219588648
0.0686498745833228
0.133838138169233
0.0974293543401854
0.0797475659590141
0.0703596388761996
0.0738370794113659
0.0732222894465012
0.0950512665298984
0.0950550288046707
0.0994378352251552
0.0780762136032186
0.0862144667285926
0.120853489958283
0.0852519362509821
0.0766660895095564
0.0821233075646436
0.0965825425498243
0.0703571276804512
0.0817930811104665
0.0695036774759499
0.103298051579281
0.0666828956839006
0.0917616970702153
0.131154440314771
0.0899511044400291
0.0867249907588673
0.119807270923667
0.0759553114611398
0.0821339849742079
0.0634878914035816
0.0754513762224693
0.0613992596966968
0.0720078679889035
0.0653207781741052
0.1184140714615
0.0764524472241202
0.0851052744925607
0.0704431518173541
0.0788159479496903
0.073128980005004
0.0814196679162865
0.0680808135327126
0.0832200247125814
0.0735363368924309
0.0718929527481441
0.108216423388237
0.124273882769472
0.0740334238762288
0.160279657400025
0.104597738919828
0.0921138534649315
0.0731665725217577
0.0818479376917634
0.0790063790823557
0.0827601077449262
0.0736535204312514
0.0757519256707515
0.081355980693876
0.10062942722903
0.0797628386016483
0.0982768760185468
0.0981799051678215
0.169173413252565
0.15502402544696
0.106670530981121
0.0879708452871965
0.0770540486802427
0.147731982304477
0.114028783501468
0.133189918172428
0.127671428365991
0.0845933759306997
0.103114758106127
0.0771732210550247
0.0961515292772262
0.0767613384148955
0.10308568150967
0.0830433377097252
0.106404219158639
0.0835928155076911
0.102487934191165
0.078831693830803
0.122601839001268
0.136518181380153
0.115947590559868
0.0921312975268184
0.117684552320654
0.0898869491743335
0.171083617900537
0.115604717445885
0.221905738196071
0.13657290578604
0.182547222686655
0.159008773333721
0.127802154048
0.119010566098735
0.110967103050205
0.120137986690644
0.128446091114876
0.121106733297924
0.124368545169189
0.115773396427739
0.134684892437562
0.121274833181556
0.127412404219292
0.121812443864691
0.13180711144043
0.16659802267716
0.143000240942162
0.138644123003961
0.139325477034529
0.18098099999917
0.210755112115108
0.1951100199915
0.150156983296803
0.154198062500007
0.146896267643516
0.147511389245288
0.148589868198159
0.142247281602097
0.169894896360181
0.158716348638032
0.223152089841853
0.176049365504426
0.208633035351168
0.186536494365318
0.166099520638126
0.206673943900114
0.177682332347003
0.19684273935258
0.227617801815148
0.181542248843213
0.17159465231263
0.22534997610655
0.20707856944778
0.211620402066392
0.228422529195572
0.16926286466998
0.201945001337878
0.183725583917051
0.210737463148593
0.18565962655098
0.225508430063518
0.207709976628747
0.222736755837461
0.215023277149768
0.22808675462801
0.199507985789832
0.259120829058852
0.213740976961091
0.239092176403884
0.227905025825427
0.213486104541482
0.231056159994357
0.207024037210065
0.278429017831033
0.283057023455341
0.267882837922764
0.296918532079513
0.239403806663792
0.251517526275495
0.253337972194884
0.277909987450572
0.247879064309828
0.268582590406095
0.266445848278574
0.275818783670196
0.258915888172175
0.29814971994093
0.26591361439337
0.293521857239687
0.282827718616917
0.291798887227387
0.282622878066599
0.308832495864525
0.295619664125302
0.289245092109501
0.341273355152696
0.378354364965235
0.355718564023654
0.374421117702048
0.300619173106597
0.338275502903116
0.312778919881174
0.360183617960957
0.315213896719651
0.377098708767965
0.311607579139474
0.346816574136728
0.331429642471656
0.368582360054326
0.334421392768842
0.377158290832084
0.328986578333938
0.395632911761748
0.363424304331547
0.380722759681811
0.368178340773644
0.391243312597391
0.381512891952624
0.424390595500903
0.384411376993284
0.455441055256133
0.405933911052334
0.424560483862299
0.402753843617648
0.419898556831695
0.407769823169553
0.439223863352135
0.412500131160953
0.430314174032204
0.42455172033295
0.45891316789742
0.44285927855374
0.445958272725396
0.421930051824013
0.465350813377894
0.453272566252551
0.482264897074745
0.451886313129273
0.500737210050516
0.457122592762187
0.519543405150491
0.481962359240635
0.503822706881397
0.48459324034445
0.514121968831613
0.477832254573454
0.5545016486874
0.48867943193871
0.54372504729718
0.50688630593073
0.539287374549626
0.521594213246825
0.549145107767265
0.506535412919954
0.566305283391367
0.510801659596311
0.579636639836269
0.534826892550491
0.601081666834183
0.546778567025859
0.579636242546929
0.543257755367386
0.598072292498453
0.582733353081946
0.607955789003257
0.573609926301067
0.636990259557315
0.591956460452841
0.602322489726254
0.591625644741732
0.620519582099755
0.600114296069814
0.642287233658951
0.622366620166207
0.644703115696069
0.61207380110945
0.684818976549209
0.626280541379683
0.688632369599242
0.647830667003757
0.664028443258592
0.662444562603854
0.693382449274038
0.625406946751677
0.723177458275368
0.67218124582779
0.760775625905095
0.678206533568688
0.708166436592778
0.658257049205737
0.75776734871756
0.695581388638069
0.729103023627002
0.720462206297633
0.748320230817879
0.69404775317926
0.790256814510602
0.719634192440023
0.76193736024203
0.706002070106389
0.752560687952313
0.728977540790226
0.801356183049623
0.725104016013894
0.788285873725413
0.7480959590954
0.793186134913727
0.775345435166156
0.793790973415446
0.771237619221313
0.85433191314405
0.76089521194856
0.841704687084047
0.774356200722642
0.855935605105274
0.765053224737659
0.851118232404469
0.783555053648426
0.834425651109634
0.823112315286922
0.879045987049542
0.848120359362011
0.877288005051919
0.842230981135825
0.860844106916544
0.834348469473749
0.915562584673868
0.882928538631619
0.878377145655476
0.853376968253726
0.883556388329113
0.852260364484334
0.937788521110116
0.855716709067327
0.892885182533239
0.856231752411407
0.951045411455065
0.910823248262946
0.907742979807431
0.87873690860171
0.94404802543966
0.909492498433716
0.937486910699676
0.86661949219646
0.967142490693293
0.932402152181503
0.952235873003115
0.908949685598157
0.963572546896269
0.970554594229133
1.01286518378862
0.920706725387016
1.00123614235721
0.924959934258856
1.05095327085581
0.930141362742762
1.01519490942249
0.954928901692088
0.992218590731196
0.960080725921779
0.981639522035905
0.879661127490865
1.04961500208701
0.950251318188422
1.01142639785145
0.984204271168149
1.05141671419379
0.927899683162899
1.05309604098753
0.941214720220137
1.04067464380182
1.02935271914029
1.11428705630523
0.9378218819657
1.05107035078217
1.04021932400466
1.07276045213271
0.967289947085442
1.09746203513773
1.06803295438993
1.05720873603311
1.01889867466247
1.05282873580896
1.02216036389402
1.09982412538646
1.02912359078033
1.09998565975421
1.05395654917624
1.11955000514987
1.0689605424363
1.12972472637007
1.07563739127475
1.10259601113893
1.11417978884056
1.1268146434853
1.03793776720842
1.11232952009262
1.00490723116775
1.12920686144823
1.08110147296392
1.14777919474363
1.08212460408157
1.09699015913016
1.09097716006733
1.13865985079597
1.04699294620152
1.13692944846318
1.01562241314261
1.1864303782945
1.04319683431273
1.14686466101489
1.05292674112879
1.22548614352871
1.11575688450258
1.12440429216168
1.09823995146579
1.16456160249048
1.06085716497979
1.16239915567668
1.08711511576949
1.07751945903696
1.12147684148227
1.1729921967637
1.09204227952349
1.17186650589888
1.16013773791152
1.23820370240395
1.09862881849413
1.15687667895415
1.09512733218739
1.15097042440827
1.11211574646715
1.23086108213048
1.15559898297347
1.17770708784049
1.10357307929897
1.11230535052936
1.07676940859356
1.18288884511696
1.14571143044389
1.15575504085245
1.05322976694489
1.12861399880919
1.13746417239092
1.17058086245059
1.09186735964081
1.19579711404799
1.13221165688332
1.18511778052167
1.14205309476824
1.19847044860519
1.12338748296029
1.20271241292601
1.10142808568513
1.21510375781144
1.11933349152513
1.14626434216523
1.19959462778312
1.17401064917479
1.08914917177742
1.17901223471189
1.13307936426683
1.22467888954899
1.18310263817589
1.18718747647716
1.08565915182936
1.18416760389659
1.13283404304178
1.24365955997767
1.08361362347456
1.12169401517347
1.13750410164796
1.1527324181893
1.10028594731809
1.18692606478244
1.07673933068619
1.15880009904856
1.21312979395181
1.10658433310932
1.05805007099616
1.11055990904881
1.12120448790552
1.17020507113097
1.09519998107919
1.13466619236542
1.13152402078528
1.12930391247701
1.06429281040132
1.15143325267207
1.10729112682214
1.14179921326852
1.0608088586582
1.11361454694157
1.10772215088145
1.13485601110335
1.1167201346073
1.15283222175464
1.09672900362192
1.17263480145604
1.13472137808559
1.10628206419859
1.03927861185384
1.12240331446147
1.04259227669866
1.13909497598252
1.12350519796077
1.0837459209573
1.08672471565025
1.06384132585993
1.04838116589531
1.10542382950874
1.01328958690531
1.10919658237351
1.05716159885086
1.07114959667187
1.07372065926501
1.14043303165304
1.07604892673437
1.10429499853093
1.04211902203027
1.06758858863
1.05743517214535
1.07066182737889
1.0602143963491
1.07438117039462
1.02113229534848
1.08365257069636
1.08176836886447
1.06950327205829
1.01264232513377
1.09245891955275
1.0541392804865
1.05028332273552
1.04231676215614
1.06048436219007
1.0173549255145
1.08410611390606
1.0056630129083
1.02153440480804
0.998479232377855
1.01408227466227
1.0332590549766
1.05751571955034
0.985581059456475
1.00769410425769
0.984364566105508
1.03755969497904
0.996750770108459
0.98413158322146
0.986741960434207
0.999854307541503
0.976059957390517
1.00394892527825
0.977617699097502
0.981075980990272
0.955431222886775
0.98239259402759
0.941059738197611
0.998858620439761
0.986725709919105
0.991457716170433
0.978777256537125
0.975210674022475
0.952729972455165
0.951364909829141
0.978969841234189
1.01639293209941
0.976297369880677
0.973455933749555
0.907750430265254
0.949743111386757
0.940621687942319
0.96884012379609
0.905548403733854
0.936028913533818
0.925449671461823
0.923490489347493
0.925475902015049
0.912030343023523
0.883129127420296
0.893037477600786
0.89115714679812
0.935048944038901
0.914118454161519
0.922638225229862
0.882898718435146
0.877544819788288
0.855616822043423
0.883825135183305
0.870641998754096
0.862950140605493
0.854837171129199
0.86757001472507
0.837569688541573
0.86826232914241
0.843860111951924
0.853185198953184
0.831575241616756
0.841420237227704
0.834843924070112
0.875617644231809
0.831239109345731
0.830465840874558
0.820594753890023
0.80806567721591
0.805344507101852
0.822499329525281
0.814912884412581
0.806352973302814
0.816368670328884
0.839215092125732
0.793030422186846
0.815271413653691
0.782532887421509
0.78472861929729
0.767416865001129
0.793726028125573
0.775329868825959
0.769005332249267
0.747287239637357
0.765663810391418
0.754185787080255
0.75250584134139
0.748047859550458
0.750273644056779
0.73664942544777
0.747471438111457
0.717743389990666
0.750432274027714
0.736314667224658
0.726212346509074
0.724373025338717
0.735955348909738
0.713556938251452
0.719270804716462
0.705846871707989
0.695088854388016
0.683876124169986
0.698388228311958
0.681132941847514
0.692847274772654
0.670052919239712
0.676375160154471
0.682629329190624
0.681700902176756
0.6809700168378
0.670346265869861
0.652715700682655
0.675851460096128
0.662329396532569
0.669512627881202
0.637386441330247
0.650779376807456
0.642321016472608
0.633789356570761
0.622002999058055
0.632359840458007
0.618446621067363
0.630833438935263
0.629779443841228
0.627638738820417
0.615205203583672
0.618765840134583
0.607013745388985
0.598190173875957
0.602330511799684
0.603391734091199
0.584522215462417
0.600139932649158
0.584834045337214
0.589847299834633
0.586044851714552
0.576497532001934
0.566063042030651
0.585104691949386
0.570296888619866
0.564199237604525
0.552863376555762
0.557577512502503
0.55612465970345
0.550278982762177
0.552039322650635
0.559972300136785
0.545638893613403
0.552472758341829
0.525171569499398
0.534257008085453
0.536082022443979
0.52779966742359
0.526451620411622
0.519104974072049
0.511314194139606
0.521293152046124
0.505926399255432
0.515766730728582
0.511020279992302
0.511185704573986
0.503880153469542
0.510152938519525
0.504619972481838
0.492334347121018
0.491376487891841
0.493624214347554
0.481837071816453
0.488522869873832
0.484343295955897
0.477332843871902
0.47591909159201
0.471990556644756
0.461581435256869
0.465493559590224
0.463593638653251
0.466327338454733
0.452278568659636
0.453705020780918
0.45549248339127
0.456953319428877
0.44416082550924
0.448365216277054
0.439782158123428
0.440631453049536
0.431591616407508
0.437598877993294
0.431622006530953
0.432498617110655
0.427019855563347
0.428015655130398
0.427614840602821
0.427129434796945
0.423394902338279
0.427076177061511
0.409758500089198
0.412544057982154
0.409120851376727
0.407725674223074
0.408229486127061
0.411404456769838
0.401305365325254
0.408822450875346
0.399982304486545
0.394626497733879
0.394823841309389
0.390390533969514
0.387496664847024
0.393294849771261
0.38586622756122
0.387334047258202
0.384130783405312
0.378536788739153
0.371019385489246
0.374103460690959
0.371563742500006
0.378628541822338
0.374604333732197
0.372772000258659
0.365405141868554
0.359546212559372
0.359450882692419
0.359954870607286
0.35320018979606
0.354370500695974
0.348831043565457
0.355316520530871
0.347268952917561
0.342696537361128
0.339421308729459
0.344360014986691
0.342143656198652
0.336308797164216
0.333819312299163
0.338859409351594
0.336939711807508
0.336564218992894
0.328558790062588
0.331724306501838
0.329312516833613
0.329894757113752
0.317809976063087
0.319529693126115
0.318474407042465
0.320124512095471
0.317077715057231
0.321106958173418
0.320796013656331
0.314913136543356
0.30473390428244
0.309987745262949
0.306880440017534
0.308663136272301
0.307279052210524
0.303197254827856
0.304048713926787
0.308745228721101
0.297153406023115
0.301780085636682
0.30135333214994
0.296459616889364
0.301094022080322
0.297239913064701
0.293408700464038
0.296796749018639
0.296721606709539
0.298972015131569
0.293319788773186
0.292451552277287
0.288529259978029
0.291074680081648
0.292836292035386
0.295519166636357
0.29148557688268
0.290559599581565
0.288368079534517
0.291991846718026
0.292343661374387
0.295609381007126
0.288990760645022
0.294244526987793
0.292995371041999
0.298530956587681
0.298999571700042
0.299958302510139
0.29789360370052
0.299172317905557
0.297679534138377
0.297113250731882
0.295604464855508
0.300014249659961
0.300234765715927
0.304525826664536
0.306328012335575
0.304992623141235
0.305558768245099
0.310882394531327
0.310283642876613
0.31131192037024
0.311637979885386
0.321818346339025
0.318715805221667
0.318354676925768
0.319839028184921
0.32246229178698
0.322896735772355
0.328223786696808
0.327532907731021
0.331872930133067
0.326338601565834
0.326883681858415
0.334594127103093
0.341748112201064
0.344045625892504
0.347069202864107
0.340593511945455
0.343505855347826
0.348824239009334
0.353508858603962
0.355926073244414
0.359278697067618
0.360307509019905
0.361725698214264
0.366538815102328
0.371841809279994
0.376257071932419
0.377119800969916
0.38554849335057
0.385400326192003
0.383689040302456
0.38912321328714
0.396917160302844
0.403777414807992
0.395519345826319
0.402091583661845
0.406669030881786
0.416546638322485
0.42046667163103
0.420403126563864
0.415655886926327
0.42359842582861
0.426817034573658
0.425439603731042
0.428770016233553
0.427776122018994
0.432089781120801
0.426346665355263
0.427052573564942
0.440806549300889
0.430184924562528
0.431311567993433
0.430404127758255
0.428156390676025
0.430768116972929
0.431148435972979
0.430365161609109
0.431508541003826
0.422525623769352
0.423191542160842
0.419193975413248
0.419336933137727
0.429725033914876
0.42614923509439
0.427640206406562
0.425235587047744
0.42683981712837
0.419114840732685
0.419970864748792
0.425042190876622
0.414506907582709
0.420474848378883
0.427968177308729
0.42273940357975
0.419446739666517
0.425826092572251
0.428516968763338
0.421862854284482
0.422233048469373
0.42397105626339
0.419456657597146
0.423300702459251
0.423990179073942
0.424415209496863
0.429340114994317
0.424790022408979
0.423625971298296
0.419498443975043
0.409629207404719
0.421478937902427
0.428022427167852
0.418650989576118
0.413557236545409
0.418293693475052
0.416085302604534
0.420880689574589
0.420896627389589
0.416943709728423
0.420164807912949
0.410157514933117
0.412106706655884
0.402637622990089
0.403113745336866
0.410720329977892
0.404893811207603
0.400243497372185
0.39678327905897
0.390443545904568
0.395867866618958
0.392790993186238
0.390261768006932
0.378875555682817
0.380649437406829
0.37805883861083
0.372903498170148
0.372541181582706
0.368306678950624
0.369037685928977
0.369911902723992
0.359904378143463
0.360457100273442
0.353271010475635
0.354500789406768
0.3525755424485
0.352275804221796
0.347993516406453
0.342385175474525
0.33966472714936
0.335170339505839
0.330797606914495
0.329248105361643
0.329882826110771
0.320518541706959
0.32073264550365
0.320300500217843
0.321980630423
0.319451318086032
0.311350755149105
0.31574186383942
0.310307845883372
0.304298470240722
0.304609033892625
0.298549457780932
0.300215430418859
0.298417059540888
0.298968849927019
0.29373338834142
0.290825927389803
0.292274443419408
0.29396279026329
0.286464312051951
0.284095819926848
0.280717920361662
0.280017083207427
0.281053773809783
0.280795255425874
0.273825874415911
0.274378740432675
0.274921949671347
0.266458485979028
0.271269877539915
0.268324232208555
0.269180051077511
0.267506421844073
0.267729432755971
0.266284619992128
0.266121622241737
0.262358669345895
0.259280856647613
0.261973941469374
0.252536391089177
0.256935584906161
0.256411894374175
0.250536105689811
0.256608101875072
0.252873090001475
0.252209225635516
0.253184078286768
0.247846471906086
0.25018565881115
0.25282479690223
0.244715462179361
0.246573221301754
0.244421971053109
0.242214000700155
0.239552388968907
0.238920677923447
0.240312419031749
0.238692820332217
0.239255782193497
0.237057425662696
0.23470093313035
0.23394346979617
0.231177409076498
0.232441337639064
0.234438114137165
0.233722616452218
0.229051557239702
0.232349458993909
0.23048103008604
0.225901887023728
0.226141881981358
0.228099280337198
0.225132806405126
0.224288954298658
0.225658203387292
0.223520946271647
0.222925439047944
0.223785607064301
0.223982525308071
0.219594316593924
0.219903347288489
0.223620006880503
0.222790133773675
0.219046857376626
0.220982588749778
0.215553572682796
0.215553263217716
0.214906703891441
0.212428121293135
0.217589636641284
0.211755596273051
0.213440830369187
0.215507195044065
0.207986996148636
0.216018357890314
0.211359857928671
0.214123511008516
0.208390562226578
0.205960185133122
0.21188945758415
0.208752657470256
0.205481742364716
0.208589713165267
0.205802825830484
0.20609805677808
0.206201797244501
0.20249436683206
0.207670797565128
0.205902296969458
0.200285794960851
0.20643107522601
0.204508199425143
0.200950966251326
0.199984899989506
0.19824403738576
0.199010250721825
0.200092887262944
0.201831722342492
0.203607497572997
0.201768310401986
0.197207118800346
0.198827355209973
0.202619255368412
0.200540984655645
0.202834909343743
0.201417264625494
0.200164314486285
0.196284125042332
0.197153099593053
0.193699009402659
0.194789741361795
0.198769004976937
0.198408884811972
0.195875597742201
0.198132184453991
0.197611032132596
0.195567526891394
0.195373482581367
0.194208576570214
0.194613352775611
0.194145726085243
0.191313813137061
0.194643993074903
0.195244712204713
0.192138839011399
0.19017535672982
0.188207651416015
0.187540273216111
0.191389915458326
0.189737739766466
0.186370501205714
0.186447474468929
0.189604863801304
0.186038235977524
0.183777998573129
0.18771757541188
0.184443882140983
0.18291760298253
0.185330999525813
0.18568461997998
0.182504747618666
0.184649409043156
0.187140340248166
0.180127957668449
0.181852292145035
0.180783921384173
0.181749250487359
0.181474708876046
0.181587441211043
0.179203771831834
0.178862755692805
0.177308778630117
0.181185019817345
0.17608301197603
0.174929498772764
0.176235033929414
0.176487525325192
0.175244230589806
0.17620699333233
0.172590124813684
0.17300832846234
0.173507479605977
0.174811638387546
0.171094742477317
0.171025224062657
0.170196759408341
0.171216363407939
0.170319050478901
0.164422866535995
0.168623844806927
0.168832363437362
0.16741523094326
0.171896869903778
0.168242422349199
0.165201410161004
0.165929105146504
0.170061666979253
0.164135792929327
0.159192913630334
0.16387288469076
0.163712242976903
0.161559403732175
0.164057787313985
0.159561714173884
0.162178563525864
0.156905571451886
0.158447176764386
0.158806965779352
0.157971044751423
0.161270730150217
0.1584367742884
0.156707164189445
0.153990252633099
0.153361893353067
0.153744686842689
0.153372323759503
0.153538252180174
0.149346484709748
0.150080945815903
0.15100825977627
0.150114734607813
0.147576745615
0.150618866729003
0.146277468686755
0.145826839894856
0.142554203540028
0.148248727982452
0.145175339577971
0.144339873898004
0.144219679402592
0.142839368512995
0.142786948994323
0.142939075545703
0.137462647168128
0.14138930199608
0.13906034314835
0.141121784905644
0.140548394653084
0.138744089404657
0.137815603284455
0.137145391508104
0.136108763016299
0.138512018034458
0.133464561300679
0.136564102926618
0.132236987617124
0.137105036326138
0.132133388150438
0.133032171643882
0.136221515656279
0.131564774674509
0.131415651615684
0.133080717438508
0.126926497663872
0.131365596707508
0.127141680493524
0.127905499232095
0.127678910847595
0.126457815410033
0.129595375001866
0.130771762117244
0.125526351039606
0.128809408564388
0.125153930674773
0.126274358931515
0.12485670059383
0.128731218122731
0.127463506406725
0.124935460074859
0.123809374947614
0.124758886568914
0.125009858125967
0.122623658618728
0.122043645354067
0.121078594947614
0.11855423228596
0.121325026799319
0.121620539066556
0.120512376141304
0.119928683806429
0.123699356581053
0.120561378886942
0.119176757743698
0.115090885743337
0.114611989028556
0.117770943341392
0.113123707131718
0.116531066548205
0.118210928882396
0.116843393075445
0.114053800829918
0.115400277301173
0.115129132944109
0.116233555148222
0.113078746862215
0.112224529191642
0.113836889844608
0.114080723762843
0.112584912475737
0.110421077619018
0.111062328926476
0.110626966272909
0.112721667754842
0.108879299081468
0.113924159134899
0.109417427992494
0.113360047987153
0.111619918694924
0.110713648358531
0.113746662452412
0.108606055128927
0.110719418183126
0.106735017668771
0.109284364276177
0.112022341360001
0.110304041043812
0.110092090444365
0.112206923349227
0.111203080713689
0.109093181659302
0.107977548600482
0.107648524159313
0.108855622199215
0.104641388868449
0.109335307040722
0.106907186310775
0.108397423692541
0.107505714597525
0.107141033644489
0.106256223421162
0.105129994417977
0.104549953373274
0.108177604370485
0.103042723461134
0.10345757066056
0.10486653235748
0.10669838973508
0.103286530817028
0.104214710394911
0.0991577383949167
0.102645271708557
0.102740854072673
0.102886529127456
0.104186711886018
0.103799317040666
0.101469590096303
0.105231499252013
0.098089258726758
0.102237183668847
0.100269988625462
0.102316898188549
0.100707309641628
0.102542999267612
0.0972885289528939
0.0984670655622903
0.0999075992504203
0.0982160468105523
0.100625785189044
0.099865430895439
0.0960833740790081
0.0982798592158007
0.096098803601567
0.100306057858168
0.0985342617628274
0.100837441265009
0.0973720389549514
0.0978053332551829
0.0979077029235786
0.096056245520895
0.0941151032165933
0.0941859380466974
0.0954552523658492
0.0956944992220869
0.095698999271626
0.0948818336568661
0.092705940363892
0.097061331094461
0.0930211012542199
0.0966810329351959
0.0939773863191066
0.093121150793379
0.0942351755959194
0.0984870658046428
0.0937022514476029
0.09354986675472
0.0922640818883986
0.0941034183456377
0.0918914899433883
0.0935584113899863
0.0923142835162359
0.0941727800377796
0.0892539225198205
0.0928016556316164
0.0894916077327747
0.0933391154155848
0.0893127958168091
0.0920818895762206
0.0896104210565494
0.0900726317350775
0.0865424727085224
0.0895846852589479
0.0883011819280283
0.0889754352118215
0.0915039421093212
0.0883411569852307
0.085484180381108
0.0872107386636335
0.0875778656112459
0.0874390215769346
0.0846596212508295
0.0868267815030789
0.0855724074518149
0.0849360261037064
0.0838544489033138
0.0858172652071063
0.0846112172438748
0.0855838814846807
0.0813464447532606
0.0835923643967084
0.0822475889144132
0.0827521915940764
0.0822150948791972
0.081649554683271
0.081058513544439
0.0831140623197797
0.0784714910925865
0.0818594763500746
0.0809621782941442
0.079998585596224
0.0792392550281522
0.0825743590098576
0.0776889756904334
0.0790653003988413
0.0779617993158288
0.0790936607538097
0.0779297023069043
0.0804011566392574
0.075478779847079
0.0795933104288667
0.0775665127514212
0.0789926212031267
0.0770959680405228
0.078272014789605
0.0739525263925811
0.0785515154180436
0.0751545142048971
0.0765560122722726
0.0736460085618795
0.0733149362953535
0.0740070390229534
0.0755930146048028
0.07426239250624
0.0757028020044063
0.069671040116511
0.0742542787791534
0.0720585379772155
0.0726455318616591
0.0686549427876908
0.0733667974348575
0.0713831009328987
0.0716010111853387
0.0683906737903199
0.074359573018001
0.0691349119702152
0.0720892040427724
0.0697806537583619
0.0704477072479854
0.0679108890951186
0.0696391010295956
0.0662746551816904
0.0685439325559677
0.068521872128896
0.0691116231199974
0.0679446096031139
0.0710521612131623
0.0667453714446252
0.0666501962355087
0.0687183028849821
0.0682333461952953
0.065227070872987
0.0670223094523934
0.0654658917259745
0.0674241678128975
0.0627687315225923
0.0670299115090287
0.066644669275194
0.0659727716956445
0.0652045979405199
0.0661815275626142
0.0649529327591625
0.0655271317049877
0.0632396390952314
0.0658376399503594
0.0639510629257772
0.064589618596369
0.0623005118898914
0.0674466863998159
0.0637319513027249
0.0669215481746128
0.0624681831249776
0.0656163382023719
0.0641066848259839
0.0688347754248348
0.0646158953078925
0.0662472228061067
0.0647420696286599
0.0680452984532368
0.0636724104148356
0.0694479614838207
0.0652629224024094
0.0705313151290651
0.0652060230498357
0.0733691075563691
0.0647052922146067
0.0705348364667732
0.0618804753951531
0.0673937713168514
0.0499952287102279
0.0607162015007818
0.0589623873173748
0.0712638665201368
0.055629985983713
0.0605144070185079
0.0567165043004456
0.067842662309076
0.0503793103847569
0.0690702306076207
0.0543345655603426
0.0606662613049216
0.0615519948838925
0.059044804650656
0.051766002200662
0.0659233202603872
0.0535496165011829
0.0692143839276289
0.0522303066253577
0.0706514685166603
0.0568035372591928
0.0681863696893669
0.0481654480907854
0.0713932981958269
0.0450114345177924
0.0689286662636255
0.0424881746275491
0.0645433468610834
0.0449376129887612
0.071378600883475
0.0451968683644946
0.0678377109492814
0.0458496995806418
0.0768725136107425
0.0445164037993544
0.0765581451732615
0.0396493528098347
0.0688038885101539
0.0344637225665474
0.0698718303206924
0.0438801380948763
0.080640250222985
0.0493221025658065
0.0752826907613697
0.0391944675567679
0.0647446914076021
0.0495594576362386
0.0735477913215978
0.0485773913420063
0.0570201260626052
0.0613569142841379
0.0640654192450393
0.0695241597490144
0.0417232527389392
0.0824395580510756
0.0380299666805688
0.0824617043294304
0.0353968546876236
0.0918266975741037
0.0318885842773843
0.0867760839486196
0.041670024662522
0.0768803474640729
0.0473834136199931
0.0705894327072438
0.0515188117675555
0.0617745817336537
0.0590685499887603
0.055049438204336
0.0589304688577144
0.0577310330753353
0.0547064379225056
0.0624256958891111
0.0510728438303202
0.0615018893423647
0.051153796697913
0.0601055799558007
0.0503566605430369
0.060470879937872
0.0509275089864484
0.0573928957407591
0.0533105944297466
0.0542128617555994
0.0518094012156187
0.0558556314530826
0.0512568933516656
0.0575945911662075
0.0528511435551209
0.0577549624089492
0.0525442342064538
0.0578763357229699
0.0525980288187236
0.0579459547834025
0.0509143430427294
0.0564441404251093
0.0538689454409056
0.0543263093560022
0.0507698362112065
0.0552964279151787
0.0539262167540833
0.0551562389068943
0.0496761011860078
0.0552911231338395
0.0502509558148777
0.0555311061741716
0.051144300023876
0.0568881434392273
0.0521902623034464
0.0579167471446844
0.0522055535466314
0.0558585376926808
0.0507778782610319
0.0544737666895744
0.052755414341909
0.0555124620758907
0.0486861380279894
0.0533499690401595
0.0518059836427343
0.0557874726598436
0.0544797434980315
0.0560677904765249
0.0530407331629988
0.0545967971457129
0.0532421252124204
0.0545365157874237
0.0510382863451515
0.055878742687598
0.0524106809142269
0.0546832310789398
0.0518398621523373
0.0543778659992535
0.0527442871631999
0.0532986487310453
0.0510891504757709
0.0531450244757385
0.0516703339661164
0.0532897095610017
0.0527386412631136
0.0530246295468118
0.0505580220244332
0.0537291436420402
0.0540660944992628
0.0535184311913073
0.0511495084427881
0.0551062545211045
0.0501221076812393
0.0534819335776124
0.0524871082114644
0.0542728308582522
0.0519970268199082
0.0545875435665693
0.0543922645329899
0.0529530438126456
0.0514008352293638
0.0553616283555776
0.0526057980927415
0.0517732754461298
0.0538931626570149
0.0548846492208035
0.0528906393486375
0.0552699635412602
0.0529743370875416
0.0560349919226268
0.0528732027724465
0.0549545559056504
0.0537188814254139
0.0545547418445495
0.0526331429536057
0.0557743771879611
0.0523581849354971
0.0559913473238013
0.0532570206301256
0.0540474375994697
0.054360715986262
0.0541385263626479
0.0529208319418302
0.056110264988416
0.0553454401917546
0.0573205037948511
0.0551771303783955
0.054877020153772
0.0542760947136454
0.0555066788811824
0.0551792491543249
0.0537324878487298
0.0539251536053086
0.0538478348783232
0.0548859398172418
0.0556281971976731
0.0522168293759374
0.0538321709459386
0.0541540833507961
0.0562828247111069
0.0550064479818574
0.0570477724242211
0.0548072043368922
0.056146922225187
0.0526695118064711
0.0550065202577384
0.0559966007818069
0.0567242772582389
0.0552239621712033
0.0547241698516872
0.0551326667592837
0.0552557943685452
0.05470232052757
0.0569145273005677
0.0544818949162636
0.0550698453179333
0.0554115752717796
0.0566224981807257
0.0565991358390971
0.0577225016358562
0.0576057959769825
0.0563738630897844
0.0577829343861966
0.0567779913302032
0.0558782291563615
0.0587773579463575
0.0556820099183161
0.0555305293811165
0.0574268503309264
0.0567838557815158
0.0576606334331319
0.0580629390910661
0.0585743609688621
0.058004600501903
0.0585435824708
0.0549467443290917
0.0564227470019744
0.0602465364754141
0.0571566462389902
0.0590325908261319
0.0574992595630642
0.057321866876304
0.0565426977746224
0.0570356908136083
0.0588396323511846
0.0588310449044647
0.0575898810118011
0.0570889495129041
0.0572586933823724
0.0554367294196616
0.0562404764124356
0.0573407560772314
0.0582939859255934
0.056955404582071
0.0541361027427539
0.0550424460177172
0.0566136545794356
0.0557565393935798
0.0569587353479273
0.0551241279474115
0.0551679060378123
0.0562976748170888
0.0548530740880213
0.0545342136307143
0.0548153153294678
0.0545430566908948
0.057318833803145
0.0540576792355338
0.0570471911513255
0.0540186469865899
0.0546809522596879
0.0537431170625504
0.0525992591705384
0.0533528553442346
0.0555292933161012
0.0552311924863363
0.055014117382426
0.0549407648277363
0.0537521112193686
0.055307414465663
0.0565700236967824
0.0527061484334253
0.0522347624886971
0.053084034540298
0.0530656409056034
0.0538378736414245
0.053633988175156
0.0540609519589182
0.0506298925616288
0.054181010865442
0.0546654733507689
0.0525573410502896
0.0529247001305406
0.0537245053965683
0.0527020849564139
0.0522969131219845
0.0525764884059712
0.0529952165141971
0.0542888366844366
0.05385270326806
0.0524783664908534
0.0520435960579423
0.0538005832980824
0.0534450254120696
0.0512995639678326
0.0545932626286603
0.0546803269172815
0.053375699617163
0.0524319856220489
0.051669425042234
0.052915869970541
0.0517083271979009
0.051364431132496
0.0493383647025098
0.0524710982570129
0.0505027289104593
0.0513610867713787
0.054765030241731
0.0521261882868668
0.0512566758447913
0.051125349205351
0.051278098694348
0.0516385013474681
0.0511899528644684
0.0503720669768992
0.0516044441371391
0.0513683163778253
0.0521966060383743
0.0505983614281878
0.0513515536417322
0.0532672321405034
0.049727322778803
0.0533120216992091
0.0550633669810811
0.0530414869766567
0.0500978023855811
0.0523347727186037
0.0504035967287036
0.0527955078197827
0.0512925542980739
0.0511279638757528
0.0501125417313406
0.0513547184226157
0.0512698182007537
0.0529040413910086
0.0499501422048077
0.0536263114686403
0.0517080357215531
0.051231998789578
0.0494532955281555
0.0496417279988596
0.0516203716343687
0.0509538663247127
0.0490826173741814
0.0510031623284592
0.0514399340750756
0.0496761970430279
0.0480255075147482
0.0499802174955297
0.0527151789833615
0.0500831464198337
0.0510482448112788
0.0513612900119613
0.0491449064421413
0.0477770785129952
0.0475928528081504
0.0491792449507259
0.0481715470116252
0.0468640188177981
0.0480378986383533
0.0470112490104604
0.0477286490444654
0.0487439045265135
0.0459653482236942
0.047055042192492
0.0496673968248846
0.0489159352178836
0.0481390079060617
0.0480032572726446
0.0476084812190382
0.0450980659400257
0.0465547729210723
0.0459419333355775
0.0504996354860661
0.0518092383879704
0.0536079660943258
0.0505641969025322
0.0445496213833531
0.046919069276025
0.041998493872473
0.0473385925304337
0.0456889295865983
0.0461940200423725
0.0453235357284613
0.0464599076564134
0.0459582360679798
0.0453391992628013
0.0438217249330158
0.0456308350740555
0.0424375294860721
0.0438719830925623
0.0433095835285983
0.0456778709166507
0.0419676233986476
0.0443064257974949
0.0427263967623103
0.0446340218327417
0.0420298967325868
0.0466765323530561
0.0403732321670483
0.0471385625706165
0.0473715151164657
0.0584909140687636
0.0444044787710518
0.0448361535720827
0.0456190635096523
0.0497015104084294
0.0426006103440867
0.0438052307013109
0.042979988710194
0.0424187127786926
0.0435776186170068
0.0418400330605636
0.0439598326094597
0.043209262443508
0.0431005490669343
0.0450264123913559
0.0422509388873152
0.0410528907835943
0.0413975654971165
0.0450313420473993
0.0422076685039091
0.0421125528607118
0.0400814776701542
0.0434243477268911
0.0437935641382127
0.0434285125563114
0.0419338230675012
0.0522382840406884
0.0503817723936923
0.0452320252351574
0.042697387426619
0.0390890000940787
0.0410340133799795
0.0427997084234109
0.0436874671973679
0.0410920504628192
0.0413307540937138
0.0418979986921102
0.0416615050348605
0.0431868148995039
0.0449610164880194
0.0416059113815718
0.0404859478913895
0.0413139957607444
0.0399651612990063
0.0406417877716641
0.0413807259825702
0.0410475777212222
0.0416032504462973
0.0370635310198126
0.0461602862731903
0.0407403747959833
0.0431747619732003
0.04658845076949
0.0644272397984579
0.0454937752376612
0.0422822504944733
0.042764628635612
0.0371461470618771
0.0424557694910779
0.0385065732067842
0.0396347201036642
0.0382777216694409
0.0404275857061747
0.0414564790975201
0.0421133878563906
0.0416168292642253
0.0407334011474024
0.0388548111069728
0.0409883143513116
0.0379407263117677
0.0414260820992713
0.0378833766149135
0.038730594569961
0.0464495385319767
0.0590600130751833
0.0513344279194708
0.0393192612938841
0.0419847162479838
0.0441793863886245
0.0545845173116825
0.0560877183012876
0.0325127410337649
0.0461941401007528
0.0340004923395262
0.0437154877719173
0.0348429778367361
0.042097263566476
0.0386814665689327
0.0513073298874853
0.0383237084369292
0.0461028740456492
0.0400877337417238
0.0409350736424161
0.0389544693825647
0.0405313674429504
0.0375411699739981
0.0390520865567407
0.0363786940712287
0.0379249447101139
0.0379124213981352
0.039032695613605
0.0362533201063939
0.0432569118428245
0.0413930387012914
0.0537103470026295
0.0383361736585759
0.043123499829435
0.0374478132767197
0.0408584951294393
0.0456210111007542
0.0621517838540967
0.041038148832438
0.0403475482474953
0.0393005502680459
0.0390424394030146
0.042273375414018
0.0388878021716906
0.0387005409023959
0.040028623382428
0.0381950978890614
0.0386176940913738
0.0393193430324355
0.0378844729982236
0.0400884279893111
0.0370300239887613
0.0377702389808399
0.0377630468288029
0.0390913790824139
0.0400602841776427
0.0409959305945947
0.0472679765723605
0.0505853563490333
0.0733378686865965
0.0529218319060233
0.0574600472795144
0.0417726973998055
0.0446644275954148
0.0379786287241898
0.0430782766818402
0.0384576074232702
0.0445531283549317
0.0379005977772756
0.0423982150492463
0.0419606150044691
0.0438678705280476
0.0360556636972504
0.0395753815146938
0.0358359253279312
0.0406936639116396
0.0373583662922195
0.0407310866107725
0.0380820355878234
0.0366789328860237
0.0412554640459859
0.0499617730495346
0.0500855066985176
0.0381807340408373
0.0526923594757431
0.0593965827766796
0.0823522041929454
0.04295267196979
0.0509224704508711
0.0402150557704746
0.0380773341290588
0.0388380533355412
0.0440148811903233
0.0484790977781646
0.043697131207339
0.038724839140288
0.040300809472534
0.041805079521017
0.0415035704401022
0.0415629025525598
0.0554177135388601
0.0809848978839241
0.0583502977130422
0.0388067980390043
0.0466495756954965
0.0489618817745158
0.0711253560238544
0.0491907613717083
0.0417000214585622
0.0491341092908145
0.0358719782778358
0.0426350858788697
0.0367676973139245
0.0456003697296105
0.0445176056081523
0.0459411864646901
0.037123344754802
0.0423433960007771
0.03857651175128
0.0429059102108265
0.0474537905332963
0.056112154736143
0.0535971844895026
0.0450536947299945
0.044356483625878
0.0505613869043496
0.0401225440559696
0.0480825271846276
0.0381344344883622
0.0459566679133757
0.0533677959753243
0.0645203659216807
0.0547844363410055
0.0641582446010249
0.0557049102602945
0.0454328478422051
0.0458904893370751
0.0646030944279229
0.0444533638414658
0.0557288281413096
0.0508883332619146
0.0897399935271531
0.0650559741768906
0.0694767486107195
0.0501358638123356
0.0428724285928225
0.0462864115276735
0.0425980690899778
0.0550679189411594
0.05304848596842
0.0576222611444592
0.0367280614773239
0.0559520902369557
0.0525138517994564
0.0710382337149608
0.0477388281077093
0.0535905892689779
0.0418721695661082
0.0532134457234232
0.0549700201350504
0.0583825066382947
0.0503763235630152
0.0825542292953936
0.100081830051001
0.0685072279905737
0.059266557739885
0.0545049862498009
0.0822946841071381
0.0649119470487166
0.045208467644073
0.0547544130362612
0.0427541187462801
0.0535204536347589
0.0599098937184898
0.083541457935944
0.0642346125813069
0.0458404302508904
0.0563705290232771
0.0568940111235059
0.0707280844603783
0.0696272728971296
0.0484116802714153
0.0541525527542739
0.0460627999547174
0.0700231786334203
0.0828256328078684
0.0975205881588635
0.0648155169652075
0.100254693232216
0.0757588580369087
0.0751444543663206
0.0659645615010262
0.0656071775784158
0.0794842600463614
0.0867548079955942
0.0607317522238846
0.0608134545294697
0.0747034755262704
0.0878489000694025
0.0674051433260639
0.0618485624840558
0.0654097773784667
0.0649133148505137
0.121167986825243
0.145432271074158
0.0966159816723352
0.0718787024918872
0.0826839907904829
0.0926222832175749
0.0801674115055224
0.0621127863460435
0.0695776035355171
0.064726291724366
0.0667004884098291
0.072193580555818
0.0793437085261098
0.0773377902558095
0.068734689237403
0.0744277107390834
0.0761265727367734
0.112383708775426
0.141622062942778
0.117845631709653
0.105096350406
0.10767198968858
0.118455514372082
0.0856826940090538
0.0854787654452196
0.077233210437596
0.0942348446352685
0.0851279680594109
0.0829788876832926
0.0906042996104024
0.104251063916328
0.113076613805603
0.110173418828496
0.112846398479534
0.0956981524992337
0.0976008163106458
0.143001478563066
0.188480487315786
0.15768231307776
0.0943975234887163
0.136523976163255
0.122601784193113
0.192416277647576
0.125639383140038
0.106474210470125
0.108373827072326
0.115703963397152
0.1163079473195
0.133354447334602
0.132965413763214
0.146076546951223
0.126085096250347
0.140141027468433
0.158275966269433
0.271986597025965
0.20741480381543
0.170704539459282
0.14573677704332
0.182111068258308
0.172163085591555
0.163553026510917
0.152687147811061
0.171113528882603
0.180490827529071
0.228224206258415
0.181429625875166
0.176873329008856
0.201380831774331
0.202787765798802
0.209533554165845
0.228957196278287
0.247258220539969
0.196128461894466
0.202288365763453
0.203348225480471
0.209618192450975
0.220210577969685
0.243725788380734
0.2451763808327
0.218878964815806
0.22374011890744
0.223110748288598
0.229627685616528
0.229992882448297
0.234017316747957
0.240700000895
0.28633777964123
0.345470405927543
0.402304588717326
0.287082275378353
0.240978903987686
0.243566672111522
0.256384158896575
0.284784792652985
0.300381725093232
0.288697048871792
0.279966470317169
0.238496402975112
0.248780721115536
0.249572013147564
0.250080951664718
0.248151260410305
0.24431469922698
0.257897171873972
0.270750917493525
0.277123619038619
0.301206292692149
0.330482667900188
0.263501636939651
0.246443953800006
0.249673657899087
0.244700278555649
0.250678549897391
0.246505137650015
0.259977173076842
0.270292625838314
0.251012946811751
0.234557733942199
0.253807004191891
0.271617936076639
0.278079983501489
0.238739056493104
0.244479117775349
0.239058603108496
0.236272261544243
0.244282906653317
0.264679678938272
0.300537763815764
0.249425534780758
0.227094052787715
0.239175377032002
0.227648274079706
0.233539481218283
0.222944999691755
0.238244085563621
0.231173847303683
0.237303185876967
0.234054529418188
0.232994346144171
0.220281156354728
0.233313728630912
0.227582009700766
0.232187815536399
0.227408426152101
0.227934181329151
0.2205468403882
0.23074185390841
0.224865761653585
0.229483684154026
0.223938901452592
0.236636061020851
0.219856243614835
0.224228622105228
0.219798612196399
0.227183943355115
0.219486783863698
0.223090235327453
0.215474671302707
0.21891910580403
0.215469682704127
0.220619587753819
0.211885505441206
0.214696598829428
0.213643644963133
0.218159891861536
0.207843971074252
0.211081368360922
0.206860531442656
0.214370008932956
0.226248200309384
0.281404731879429
0.243578194510986
0.206054326578428
0.201366960187327
0.205314425176013
0.193712674597162
0.209784514533898
0.248689646019363
0.229981482651258
0.192775128009744
0.190703457311226
0.187011112977781
0.210920554915859
0.191356975677602
0.185636810329674
0.174662285292587
0.195020088274445
0.218094732563339
0.292168021546791
0.291026114939778
0.281845588486447
0.190550627540957
0.174268250058013
0.201705155630087
0.207526109364377
0.168254145976394
0.160238900419513
0.166287044328603
0.210399145258346
0.179782237888073
0.159570236925026
0.150254090261905
0.157843788805419
0.194470674077216
0.19446943850857
0.182781526731525
0.201626048029954
0.206386424658223
0.206063008183351
0.242190249819898
0.253163650169236
0.18066826429343
0.149326868433039
0.15148729995438
0.153816262535674
0.172307688119175
0.210671467657467
0.16961761714111
0.161568060033912
0.139438728397136
0.138212690300899
0.152135500154529
0.178013222054836
0.155555417080852
0.173154174465849
0.177095039107471
0.153270167226092
0.153572170626938
0.184708167731976
0.202412689984712
0.215080704980282
0.141326757341744
0.144999518792201
0.195034723902294
0.197086635377129
0.158975065284192
0.159252245042752
0.131620033987364
0.155318529837821
0.150944044980748
0.144019702756278
0.163990267933909
0.177614268833002
0.194549717692702
0.236766318563279
0.252946968374836
0.20641562108456
0.1516335842266
0.134850273467381
0.136231423932179
0.14613372233951
0.133490950999796
0.150205615017514
0.176441577795969
0.155602839028358
0.154961372436827
0.199455356023194
0.158826733542748
0.145217563361917
0.144657108094443
0.146840466808793
0.159447973368592
0.203994032193108
0.215742839561255
0.184460091850759
0.185890445382673
0.19617762216414
0.173675664615819
0.168437751864766
0.167333826125481
0.171264082202063
0.180552745285914
0.200566854510461
0.18738473684009
0.191320800041582
0.189437795126605
0.200252340108086
0.240010432548097
0.233301508894509
0.216621475238748
0.258777389434489
0.273560109334395
0.299739649419442
0.251998549912553
0.235206260277227
0.233110232516269
0.242927848414263
0.24557908835147
0.248709902185166
0.284477791989755
0.297322181377947
0.259556559770027
0.267105773858434
0.271424825633357
0.274047639015037
0.286961564157728
0.31999100761245
0.324006075839544
0.393077559421157
0.344562125122693
0.323416006397557
0.297607808936531
0.291881878096799
0.305253766713056
0.30424732607499
0.292885059212508
0.292228052706861
0.309451033064685
0.33714944226855
0.303272515641721
0.303897097127146
0.299891664355391
0.308184984964387
0.30788976048399
0.316341339027572
0.309996005042671
0.318260481674888
0.314584681961838
0.322202117668497
0.346822927553534
0.41539703253515
0.345649388849169
0.334095870607474
0.338389207374816
0.345717725084863
0.337649283512252
0.349264820104987
0.370880883208203
0.360258385334004
0.35507311689418
0.354106759934937
0.348539656513355
0.354182640038335
0.383511481757309
0.389164224108259
0.361887264098412
0.375273297697636
0.360737719690782
0.446803576295595
0.422625336577732
0.40626305025067
0.389401443461257
0.388186352910215
0.37217072154203
0.376555114695357
0.374698579732192
0.385736837012551
0.379559283740991
0.381301212215953
0.377832251348092
0.380407267416548
0.379418149215926
0.37888262612336
0.385486667846068
0.412146470690236
0.377840115148936
0.377755573695175
0.374681815849029
0.371329066080511
0.371807489647245
0.408020309614714
0.394685799841332
0.383915833819363
0.377479628263996
0.403177227556272
0.408157204022169
0.387962721034974
0.364931496248451
0.380939069739862
0.367793375496615
0.375963246774691
0.364285400673424
0.400718912972324
0.40964688250951
0.394830740237097
0.372115120666825
0.378979971758726
0.380609251770898
0.388755574962678
0.38524730061272
0.395796520382283
0.387935560269832
0.401047570490142
0.399124141346291
0.396036014866613
0.394575013374443
0.411089300577036
0.429656082679576
0.411358633605478
0.390813785145675
0.395767290755997
0.389451838386932
0.401225976600916
0.395455867263906
0.39050833039451
0.382538499755102
0.385338813297659
0.37139020768233
0.393103670333474
0.416416920649614
0.382716891853639
0.391781058795333
0.367465720020861
0.358145665595916
0.365814171542111
0.360751992749042
0.361784674833094
0.357490486212517
0.360785113231097
0.347981286087796
0.350834095525992
0.347605980715264
0.353869726503795
0.347335983586875
0.350227292592412
0.344636079059676
0.346584111048165
0.341095289960759
0.348319597635269
0.337529077159631
0.340140604202628
0.340202744324486
0.339395378106581
0.364498044118569
0.368937886403855
0.367882532642366
0.345169627815031
0.352170669725581
0.346759590847594
0.334630524457776
0.341087921787617
0.333570908385954
0.338142959933467
0.332116735270407
0.343295448822551
0.329678540460733
0.338608536175456
0.333799169578035
0.34071892040149
0.331402967959217
0.335443146264766
0.327885746077797
0.330022356157592
0.325643433065964
0.333312800295067
0.330252494691724
0.343872009380751
0.329664958018793
0.330566483395729
0.32637340928022
0.322994732386265
0.328021938829309
0.33219949947388
0.331497121142674
0.324152222845699
0.321357464484997
0.317818673332426
0.322043037341338
0.324682690350107
0.318162573897953
0.320623609527603
0.316014289377276
0.318993882502352
0.316660762722353
0.317457273863725
0.31493766027318
0.311199320875547
0.305002184572393
0.30503245006691
0.300380277685044
0.303949334918401
0.294893710846937
0.295641136105779
0.289646590660267
0.291590138495279
0.286110060107861
0.287593884644631
0.285278064048276
0.283446690838888
0.281020718993805
0.283770880439412
0.276899339338995
0.275173392089948
0.273602028134836
0.27497432017104
0.273980811707272
0.27347008414953
0.273978723684354
0.279113652665639
0.273941439004727
0.273234313686121
0.272382491881302
0.275577965785102
0.275115518622575
0.277377136803405
0.275342627691099
0.280304109897745
0.283570274342412
0.281949738130373
0.281041896834079
0.28280349580486
0.283287269522481
0.283831471343986
0.287174843080826
0.288992591580148
0.285652856919424
0.288914474481979
0.28658757726264
0.288290674703247
0.293589778018138
0.292938627154931
0.289918571375641
0.294555891147237
0.288291772531548
0.293480606939674
0.286331892367433
0.291857700171911
0.288438574850137
0.292206629597671
0.288997243152597
0.285667744513814
0.284930040146495
0.28795130250763
0.286452211470409
0.285757853421325
0.284554853173347
0.284460355028511
0.282290916291973
0.284755741577331
0.279243904482625
0.279431116098835
0.279289736515887
0.278143077893811
0.279577737554003
0.277013396958641
0.274918850819997
0.275082160900258
0.272174337511901
0.274400796746629
0.273277192257778
0.272592685290334
0.271028465757419
0.270183370189933
0.268731614625489
0.270800058648679
0.266462432433121
0.266912150728369
0.265827923836534
0.265566894444638
0.263371434033156
0.262456480870166
0.259182820830441
0.259152214840088
0.257012535336056
0.257282163877415
0.254390167588342
0.25226955542728
0.250602540588365
0.250533311360098
0.248040202101655
0.24836032691608
0.247269709230029
0.245619515677464
0.242194372302264
0.243971903105073
0.240049487887864
0.239621372989929
0.24066610670918
0.240331729508649
0.239687546861568
0.238891582384641
0.240990323221566
0.241473573526642
0.239164024262359
0.238021100043878
0.237041843027778
0.234912859789678
0.234022857895752
0.232279143073312
0.228944013734461
0.228088607250068
0.224548227553529
0.22277455975507
0.219583997326208
0.2189310369647
0.212906744893966
0.211433141083828
0.209668917987531
0.211788910176567
0.208186119266947
0.209966620032411
0.210494787153712
0.21402766433025
0.218036678163812
0.22211054272114
0.227760144661064
0.237062346978946
0.24130165466005
0.252240545053048
0.26046739272199
0.272114239567565
0.282579991876501
0.297879974966269
0.306949095985731
0.319170307623847
0.334920384227266
0.344887392951277
0.355560237549381
0.370073028614078
0.383034340548197
0.394518444887033
0.411176522960018
0.42709564168577
0.43343899454844
0.456175995046706
0.465034475919996
0.480450819406624
0.491274789444516
0.505153481133654
0.517652607357753
0.52475194352812
0.539227868169831
0.548112781692621
0.551746450966886
0.564437627305188
0.564660502383275
0.573767122654957
0.576198003481603
0.585664178986366
0.574048948047796
0.582598782903192
0.581764470736364
0.583382109187234
0.575970488652022
0.579931708531244
0.573114190917658
0.573551452335194
0.567612589485426
0.56821386215708
0.566230435036942
0.567197755249315
0.570327139111496
0.563147842727218
0.567604327639077
0.573484000378198
0.571542207781895
0.576853604595236
0.57749870021427
0.584172450042783
0.583754517116204
0.593010778398115
0.594005797783339
0.606351090115899
0.60984786497627
0.617426398572411
0.624892548444105
0.630457059293368
0.63739945273581
0.64894666592631
0.658145513888213
0.666126719565186
0.666764393119349
0.667468434164577
0.678940520881083
0.686927011763782
0.689552620744499
0.686160287048192
0.685791118339294
0.683681465611834
0.688174498721996
0.687057432546704
0.686820060082536
0.689006426004447
0.677917819278746
0.686535728688606
0.687528980876119
0.698754692874431
0.695197637123085
0.709627385655285
0.715845208198971
0.726413288341709
0.735415011212044
0.736966042535948
0.749608433494444
0.761548154301597
0.765405197390773
0.775939383710413
0.792258532916164
0.806433781378726
0.807670524626579
0.818948097220338
0.844589396336537
0.839708466306888
0.86704318983525
0.874067751239502
0.884546067919064
0.907349494743991
0.928124374083701
0.943327682095177
0.955981009144849
0.990033880739051
0.995845379288757
1.02346884074728
1.0515168564046
1.04599082818755
1.05208555171009
1.08619597571862
1.08006892982938
1.10101138292716
1.08995152140802
1.10043165673739
1.09698318382133
1.11131394919283
1.09061813749358
1.12628299079755
1.12304022243344
1.10691563734368
1.09364717748207
1.08246024724722
1.09291895874309
1.08228724264025
1.08293931159993
1.10877219430217
1.07947749245862
1.0879543757746
1.10277644993679
1.10157135930412
1.11433481477822
1.13020946226674
1.13373843007315
1.13573904415999
1.12887299539965
1.13630621687203
1.12962473777982
1.14911133544722
1.18932728788251
1.19286892243296
1.19177021983609
1.21042964595204
1.2035966794422
1.2251875584485
1.26950899039117
1.24549966632038
1.24074855128923
1.29559392579812
1.28055348133569
1.29001833850467
1.30458757079554
1.32587333674698
1.28597026425302
1.3237070297548
1.30984541706184
1.30858431174931
1.32337278835631
1.3344421361593
1.30516036486892
1.34301423744099
1.32536812979866
1.38359866808644
1.34052626484507
1.34592813446302
1.32087509642585
1.36122703067481
1.35665964803703
1.35590885178883
1.3277679455921
1.30417702962389
1.31294528214719
1.30838199415327
1.27968415391461
1.28977323297961
1.24104207132982
1.24969351632948
1.18356017348527
1.16226816704484
1.10372383170736
1.0814545325593
1.04738324047704
1.01151262861706
0.992836975417059
0.975735150005944
0.933834873920145
0.912901491834827
0.876289074140192
0.865857727199051
0.854712051967141
0.825054847852188
0.8176840246037
0.817850988020187
0.805390977132638
0.775461418644309
0.783758079323049
0.751358365166419
0.764174838317677
0.738003080580043
0.73208082185579
0.708791063894494
0.717913419706285
0.686783731018397
0.6743898984837
0.650619628965295
0.639326807920196
0.613498158149931
0.59833020924047
0.589147810663996
0.566090318091978
0.546492631572289
0.509441291844362
0.498852118119248
0.474350308822437
0.457718489405727
0.432780417486287
0.409697705092284
0.392486032204213
0.373081161613313
0.357762456382358
0.331988486193202
0.319962358061394
0.305084178081149
0.289999534524688
0.275912708054277
0.270110589600604
0.256169619783766
0.250924724679193
0.243386770194713
0.22958060686227
0.223803272990717
0.221708619959986
0.219146900728899
0.209980306700456
0.206627902279247
0.203682733956803
0.20196808544564
0.197198401971542
0.193758822403776
0.194067593949934
0.193498642081466
0.197242174883703
0.196187039493417
0.198320819517428
0.198504264486233
0.197166192793424
0.199214443833596
0.20509781876182
0.205944957447498
0.206342951968745
0.205814107447954
0.214122838502755
0.210929112408253
0.212234504141986
0.208203554760882
0.209715727942149
0.212492314878685
0.213835354339337
0.210975836609517
0.213449184882541
0.214093601352782
0.212300581553983
0.211076685395322
0.21085967343342
0.215563677612908
0.211848028959987
0.213661680537621
0.213505057851814
0.21533523056066
0.218972351348311
0.216502694519342
0.214739754921727
0.221952002765648
0.223704888677058
0.223083311156603
0.225402871721263
0.226820273254726
0.226703821848266
0.226891569811963
0.230543304735566
0.232388902574427
0.230028013855185
0.231313161839334
0.227585276356076
0.223508332142293
0.229052897152419
0.227817837002309
0.227984893609905
0.227014236813064
0.225537655498409
0.228923765678916
0.228033810568832
0.222510410325455
0.231959041012984
0.236136825482856
0.235720203216285
0.244160450944443
0.247839090895797
0.245690219102888
0.252805527475574
0.26229450804792
0.268814175749964
0.271129702623493
0.280606708535381
0.286143828546511
0.286538778412524
0.299664432233353
0.294071604794623
0.288872432436805
0.289986432733365
0.28538325898756
0.284272582919582
0.277302616473105
0.275797715868292
0.267292169024605
0.268879287148909
0.260347695575147
0.254638642956618
0.252139604097209
0.255366991160399
0.248964443215195
0.254734345189911
0.250227106409783
0.254288178890699
0.255973562999028
0.252018209246598
0.251294740187137
0.250151752038049
0.251035985756106
0.254904031860119
0.249161734702899
0.24808538991035
0.245510510016548
0.24225547500445
0.236046369940625
0.23835377780428
0.241918126079654
0.240538614394271
0.238390128335552
0.236796832354563
0.238983559952304
0.236258174477087
0.226547490261099
0.232564608634298
0.226435410041636
0.2344158394308
0.226592372876938
0.23139678581076
0.220124962030381
0.226142498103059
0.224572634357143
0.220361689865168
0.218682946075766
0.227446064579096
0.219079871957527
0.21650885924692
0.217405379497427
0.222609984832467
0.212584466349251
0.221933205398932
0.206959545354197
0.222566529804062
0.208074067469475
0.205711255051383
0.20175245032716
0.207598678771042
0.206799432971658
0.198461891308248
0.194778779347475
0.199149514426843
0.196779501272988
0.199616366814632
0.191555159406246
0.192392198841063
0.189141193442934
0.186399797780068
0.182652475272239
0.185307434277925
0.188325227812666
0.189996575960834
0.18857058292251
0.190951548820305
0.189657193259019
0.193715864959781
0.187629495634462
0.200788702885356
0.185312798460289
0.188826551324617
0.193630571227791
0.199783650405444
0.196621974272334
0.198130828342539
0.198623916946535
0.210896277887013
0.204129674585285
0.224588757966878
0.210732155956824
0.2141828148406
0.209710358538939
0.224300835998042
0.208081280273649
0.222467791797081
0.220496510026706
0.228658933683555
0.211127461096881
0.229688526548406
0.227320148851129
0.237322944805606
0.24375376112659
0.256140722912005
0.27572728039
0.271363235204026
0.271814270193435
0.290833201236144
0.278676126065504
0.29389780110365
0.300328697971437
0.334391591442719
0.318925812112926
0.321417519155267
0.339847270833505
0.359972312147292
0.338103642508167
0.354051477988069
0.351180880535494
0.363333025096887
0.354650460661121
0.357210103654383
0.340781788968804
0.342368986519099
0.350362343822579
0.350330559290098
0.348287581018855
0.3418738016804
0.347848395261018
0.365715698861174
0.337920297078681
0.350008968575702
0.339472456266443
0.332833733581463
0.315204771853491
0.33827394549871
0.346305569428475
0.34889920752653
0.3406823014587
0.350273671859512
0.32419689742849
0.328526149584635
0.321436625568269
0.343138416612862
0.330493527353852
0.310614836219366
0.291113388877331
0.329514025548934
0.305144114649505
0.317496390498869
0.308898754881912
0.317046620364579
0.315994139307587
0.303488541613345
0.291379610701558
0.312327695987816
0.299749589002249
0.30634004001768
0.271673682434687
0.306154492931851
0.292616682336126
0.305334358723125
0.276535164184096
0.293851578386701
0.292927465413154
0.292758656919964
0.294523219978005
0.297604321742369
0.316099542294471
0.314983942039691
0.300232411785399
0.326397042667905
0.33043153848353
0.322638328831261
0.322100440156208
0.337090261532675
0.308557654933914
0.322357579717607
0.339794417774827
0.352054168445307
0.323031760697071
0.338076132128038
0.298032486724907
0.316418389530736
0.310078993053725
0.364767672635919
0.390303531778841
0.38339431606492
0.337543147748895
0.352519702944075
0.357316987829062
0.428062878113541
0.362840304605846
0.394031646946144
0.334761931504091
0.368785125425125
0.430335925528234
0.415031262207819
0.408527626774025
0.44632967908328
0.422358501895176
0.481831792132279
0.420062118153211
0.420808703989284
0.458661806125757
0.497663791824473
0.406055127444473
0.412971934512246
0.427393971527308
0.425066978193167
0.445389508708067
0.44350508828227
0.454625811054884
0.433434093615356
0.406663068309531
0.415703106287769
0.359284681832581
0.377248314193656
0.337001496455966
0.377073068173405
0.358309246573781
0.439532745481104
0.381826640541161
0.390199935103399
0.378279927928355
0.43745050549487
0.377555835031971
0.433898181537924
0.342709843253585
0.363465412015373
0.46731975322052
0.56439236497267
0.304639632118958
0.466386463737555
0.435549541422853
0.397073692813417
0.347214785745002
0.311137954774458
0.312019746692147
0.469428801819285
0.440957303593327
0.363943592652062
0.374714748849706
0.375379760749494
0.510953895131234
0.36703442492867
0.368230900197717
0.497564440411535
0.287144564194277
0.390683676848198
0.600137315425788
0.538572196447277
0.402633159524063
0.693054474094018
0.318549396283769
0.429645807225268
0.372966437940123
0.579246711973464
0.487706015852743
0.620140613279454
0.541097634562494
0.745756998090375
0.507791993758326
