3596
4000.36533379555
650.420452594757
1
2
2
0.0649493296637268
0.0744983375953942
0.0664847700113462
0.0716749899062405
0.0658254069779364
0.0708091611577486
0.0635557584888137
0.0755308296664107
0.0612781496745211
0.0742435918076175
0.069181962100966
0.0738287149241653
0.0552708182157756
0.0699997362322074
0.0578348599814239
0.0678863169051653
0.0586193397232296
0.0682225876406906
0.0648098708755569
0.0752546007475382
0.0596264593804198
0.0750451844957382
0.0610334940050602
0.0686787142469403
0.0725367111216446
0.0829184417550174
0.0638769849486136
0.0714433700938268
0.0674548465028443
0.0725809023204002
0.0622933051916977
0.0717764939045121
0.0665156956303285
0.0730694225405243
0.0649994196530653
0.0710796270953911
0.0601143176866457
0.0716885857346274
0.0550439597479445
0.0806893946505865
0.0760306455034173
0.0740816145948751
0.0593821673660715
0.0740089726719422
0.0595090104382457
0.0727001133230856
0.0614957877117344
0.0696404311523351
0.0647965956017322
0.0757272616216845
0.0651672723274256
0.0765160414247528
0.0786579855474684
0.0811484399141241
0.0706380172027031
0.0887043402252341
0.0669440733475407
0.0711610956154081
0.0625227343318019
0.0699312235531599
0.0931945617084634
0.08493934184159
0.061837832572937
0.0712794891472377
0.0682838722263929
0.0710678785307727
0.0555189961862885
0.0684550302468906
0.0671177999376853
0.0782958970520986
0.0632450749170207
0.0958461049719762
0.0784522607701195
0.0789468308081074
0.0782446438479429
0.0812636165871249
0.0674451006919898
0.0753805893453311
0.0587890561619748
0.0933419434042677
0.0877674924793335
0.0790906847633282
0.064122461373298
0.0607786481351548
0.075564179228471
0.0921507544620366
0.0613339587253625
0.0896374696696381
0.0908857811702971
0.0909460425269429
0.0641304949378374
0.0716923099343597
0.0594149425726266
0.0700943775462559
0.0606780055880715
0.074216551510212
0.0511850723756295
0.0730307138436984
0.053894417535676
0.0829719482722304
0.0741227448331706
0.119813303159864
0.0958157506807344
0.0799658486127943
0.114617114933265
0.0800851302368676
0.090536705398634
0.124242510620358
0.0813579215353001
0.0725528103893589
0.0571064007634128
0.0736281544083979
0.061680473198493
0.0817953523103803
0.0559768587700312
0.105869133591879
0.0828106241113338
0.0800722285998232
0.0672895761759882
0.0764695940218783
0.0510607910185712
0.12868405436958
0.095712250659871
0.0840809354350505
0.0771811646337945
0.0826441776761025
0.0678179576594103
0.132525421773339
0.0758543441460814
0.0740724532465114
0.0588232353682124
0.0730883002262425
0.0510823073491429
0.0977741447362369
0.102780814249309
0.087784061679416
0.067783680298517
0.0713970594797991
0.106507276707923
0.139102460598696
0.0775548300325426
0.0816431700142839
0.0545149968964792
0.0983820966754016
0.102254297071323
0.0871122383942548
0.0636347901866211
0.104774636375004
0.0681240819312852
0.0675926780920813
0.0484430050123116
0.0802466430672903
0.0854827701296288
0.089393720716484
0.0435959877039601
0.164419778888303
0.0989843422911926
0.14967348389701
0.10695046871128
0.0765236687588243
0.0731353899595722
0.0696736786187472
0.0681078580993679
0.0601622069366388
0.0610698107065783
0.0599949676535677
0.0889556738070843
0.0955684380754331
0.067426142697286
0.0891432268810489
0.10193868356807
0.0948157357846112
0.0773415082960953
0.156899712011935
0.0640378480688736
0.0875118272388527
0.0992769534186018
0.087886744676989
0.0607712504881848
0.0942440056290206
0.0798146830321293
0.0715849602426773
0.060600692970079
0.0710609395093114
0.0775549274381951
0.0939777154181052
0.0619763953765522
0.0771759253601665
0.0593041091143928
0.0718377633557002
0.091951437578051
0.152466980854436
0.0931135761002802
0.0858833346773062
0.0652757647872289
0.049263873945022
0.1015847654855
0.106575662241335
0.0727417283528231
0.0666609244621845
0.0541947266069721
0.0674658612049234
0.0536926721628813
0.0687128573304306
0.0530383493342842
0.0741525247877866
0.119629312721576
0.0869879711137472
0.0692027805006331
0.0660148238697057
0.0665625309340089
0.0704833364551122
0.132019556802277
0.0963822565742481
0.0747292719726043
0.0784836403736364
0.0628011070927029
0.0971314526862101
0.0698050079711753
0.0707565334274856
0.0535221832009058
0.0680368465429633
0.059893588010071
0.0631996882239449
0.061146302603783
0.0719377247922222
0.0610097714984203
0.0744826149064002
0.0587514581817015
0.0705604643374746
0.0745795046939441
0.0670369235860448
0.0616420956800438
0.069523473049532
0.0486986033329778
0.101410088650089
0.0822800357587095
0.0807361568459617
0.0612420480512197
0.0602734577463051
0.0556662998365309
0.0706145872714707
0.0572710617857271
0.0707004877007003
0.0527840317641618
0.0825134194254602
0.102765536770422
0.0682607141658343
0.0634949061402591
0.0529459660858974
0.0968660863091193
0.0808571795366221
0.0706516271861477
0.0603789449259498
0.0669514344243587
0.0528876560579913
0.0737646614533258
0.119791581111763
0.0756739842019898
0.0668198135916736
0.0967226660314792
0.073455177953845
0.0679024353414859
0.0717065329140394
0.0778475610409901
0.169377038267586
0.085430545511105
0.105053903391883
0.132354887900672
0.088461441759534
0.083027354496385
0.0737909745009609
0.0604474653393552
0.209443310534884
0.114245769484558
0.0766130881488065
0.0729643302915329
0.0995531436210583
0.0544283820572582
0.0887426284301871
0.0754108289545694
0.117117554808232
0.0852754208530698
0.159341242316124
0.129304950247382
0.0678843234264813
0.114332334946092
0.0893050724490168
0.0748024162656104
0.0660923064012759
0.0666361555816634
0.0652523692116654
0.091566141501214
0.077464389944658
0.0900955714610088
0.0735159413294256
0.0796049324056036
0.107068921870515
0.0750350484848811
0.0655093875739392
0.0793654252192707
0.0818433811750716
0.0587994567291591
0.0675793166477505
0.0656708186698988
0.0868188932512284
0.0580883054721107
0.0911252753254676
0.127140176621712
0.0840126999861659
0.0813690269668474
0.111781640583717
0.0672927660564167
0.0684032383120065
0.0541270983314846
0.0625691128504579
0.0556823985798506
0.0640712260611789
0.0602552344399368
0.10575171813351
0.0656812519447437
0.0735131824642235
0.0579099769492777
0.063326175144485
0.0592674670923446
0.0665322922097785
0.0632907055311578
0.0695930738694963
0.0659519078623903
0.0642549752065367
0.0948846362126729
0.111570706805235
0.0577948786729381
0.145980838556502
0.0911838382041765
0.0824528318963673
0.0608519470315089
0.0766864092483896
0.0640438177075517
0.0624168899374502
0.0587025756708662
0.0681832724248151
0.068183876050011
0.0883136020965607
0.0650905799411363
0.0836304320246138
0.085775611284177
0.174179729611163
0.142667004332757
0.0913721088629379
0.0723902587564036
0.063425783809607
0.130958705074942
0.0985860843878208
0.127933958707178
0.104072842840555
0.0623076939366072
0.0882291802411302
0.0580700404539263
0.0719834970920249
0.0512914057139658
0.0808479606839142
0.0578343350490916
0.0820267611874836
0.0614144639144586
0.0872256687894349
0.0571711226095986
0.0912045679921906
0.104257945177863
0.0920108215980583
0.072234587432981
0.0896453836846117
0.0595068803696257
0.135281413595248
0.0814190256914052
0.178372155502395
0.103424416229506
0.148728327650203
0.122415445884461
0.0939226100032009
0.0812544031238159
0.0777994297858887
0.0834720252340623
0.0935671465462449
0.0820226769755622
0.0900378253820884
0.0775647812873653
0.0929619749439176
0.0745629065776655
0.094444452515118
0.0761311342883431
0.101105962279196
0.115785892210745
0.0923956357145082
0.0926442893249122
0.0889550912338381
0.119354497911587
0.166423435647852
0.153501385620951
0.107696252393548
0.112972155065801
0.0944936807595737
0.0977786233109364
0.0984637600616106
0.0950259049957147
0.109271411685807
0.104683747158
0.166039925337724
0.113107109632638
0.148315748010982
0.127209366170448
0.09937738206457
0.130902563374671
0.11843859527313
0.142662701896405
0.158724849361678
0.118220115543118
0.100117372855445
0.154425834102988
0.135716681103771
0.138855226993659
0.155092913122314
0.0969477062670755
0.122593890849056
0.110599974030778
0.135762057561343
0.113303375651369
0.143500139343439
0.11617117843743
0.131206321638087
0.124830773208479
0.133369859328666
0.11861850497953
0.162929396639129
0.128155314641327
0.156472608835039
0.134957879529371
0.122758880342087
0.134746755469486
0.130599154717821
0.182557437374786
0.164366752690573
0.179325034687237
0.188524878397227
0.141583102427281
0.160744063295916
0.147700152308138
0.164573570158002
0.147144826916344
0.167556115633306
0.160733922182271
0.159117275858453
0.145515433910736
0.179439183814207
0.152997062189659
0.170055489222841
0.166102504499935
0.172558997593592
0.158663966788086
0.171490755646127
0.175498701671993
0.16776273114076
0.211333963634527
0.217762363910283
0.20917989065648
0.247374047172434
0.182406249588851
0.202218428069659
0.188479826954253
0.211796070396415
0.181913075797507
0.21788139034051
0.189612184417147
0.221465824208536
0.203586076755523
0.217274074116838
0.193690967343197
0.228914741327346
0.203473857227481
0.231816811703304
0.210216768604684
0.233755566983009
0.212741636588044
0.236796434767999
0.224022416961486
0.260107137377757
0.218933363664336
0.266695899512649
0.226553190583765
0.253505286566853
0.236526365634146
0.253298942057233
0.243630935062556
0.261767254716474
0.241096175432776
0.261270064142315
0.233270139521016
0.274061272402953
0.260358805814482
0.264285461745874
0.250925411331577
0.276061965291117
0.263895093599266
0.28643010727037
0.277071571147551
0.308962623750003
0.269635264042429
0.305337112881843
0.273001523703876
0.302733490036469
0.295473453307236
0.320011984225937
0.283939966892065
0.312806628381075
0.296218140479932
0.317245675982053
0.280656298597282
0.331905107555046
0.290932097737989
0.334728723318677
0.314101226480724
0.325464587250873
0.323193149892322
0.345502855356309
0.32008299261576
0.342722218191207
0.331908268747821
0.349091663896129
0.326922955368954
0.373148737794817
0.332608712090599
0.350811963190736
0.339687373828944
0.387315976304147
0.363563200987836
0.382454519587002
0.360912339774455
0.374244345341668
0.355823080862596
0.389461015924069
0.356456145086949
0.386351516518689
0.362932747236816
0.404807249904051
0.392940076440179
0.40767400915684
0.376198576886878
0.402536885655313
0.385002002223125
0.409089469800296
0.389717082320224
0.421938123788977
0.398796676653688
0.432907383440324
0.408871640987758
0.432847470154988
0.402296948981305
0.42556036664636
0.412347077634218
0.459684446277294
0.414568691777764
0.445679475989185
0.428245065060983
0.462727643037869
0.432337400512323
0.462562356691495
0.433919476325524
0.449200138345718
0.432357912381573
0.474178578040088
0.457404702301564
0.480975668915229
0.455084456507649
0.490651353431224
0.454360874893114
0.509166862164991
0.449437790885459
0.488716763838253
0.47090055672989
0.515470713831343
0.477434271791499
0.496997913525733
0.482446465012665
0.498330782147088
0.474303669664544
0.491390647069455
0.48124764240284
0.53809860101594
0.480152097059702
0.501559493761379
0.504385256121024
0.518631408933952
0.516029018330796
0.537743407341006
0.513621914339168
0.52537989972671
0.506065663277603
0.557132308434154
0.510623216631217
0.546958111827178
0.509052200088384
0.537581625956984
0.515267520516201
0.549531181473697
0.518117934790376
0.560326366173489
0.516379516812439
0.569713640582567
0.568181888615328
0.576703387508827
0.530976290113351
0.565800650670611
0.541903531117268
0.586069831050167
0.558747715838116
0.583438298785105
0.569649965193797
0.58079016318056
0.563116859933562
0.588740965472503
0.569688274643533
0.58948053500987
0.574430352164031
0.596674198847996
0.570936986561329
0.580487313128168
0.570704877481445
0.621313034647056
0.592068308333714
0.607612478517094
0.560746886817135
0.617499902489797
0.588074870489616
0.616204391080877
0.581549443438241
0.636729838174415
0.602825299824795
0.6266133667935
0.564976568721617
0.61903219310324
0.592480503201918
0.60618612049965
0.592182379715093
0.619342232161685
0.610296806027295
0.631041331558396
0.599969282721256
0.615387020937484
0.617345524555646
0.619948847060479
0.580265787917742
0.62438590936547
0.623664701265868
0.651960244278814
0.637485225408957
0.660036838667601
0.620084239269659
0.664550316727969
0.649262071968528
0.651893989134254
0.63409679355176
0.645450995445645
0.641955522794366
0.6516528664903
0.626358673594575
0.661154114816934
0.627347460551611
0.660018219596249
0.615483242173807
0.662151319981985
0.627925714053028
0.628206218933097
0.646526216501407
0.665468426837664
0.615907529554037
0.636906815814522
0.619485860767309
0.656737176299367
0.642108017401806
0.683649595867605
0.64673977534349
0.657559971241026
0.659050765785663
0.678641888570011
0.65848825803901
0.673903829960624
0.637067597683429
0.634154230041803
0.643996468418291
0.655133421270091
0.658075937477962
0.686091906333216
0.630116147465624
0.646312629762768
0.623183720118973
0.644534128484754
0.637216153728748
0.677152652179556
0.635690169905897
0.677041916582335
0.643043844656408
0.672837963007967
0.641481346988499
0.656086145439242
0.630055632963189
0.673242673053709
0.634240692584731
0.660964018816944
0.633753617738208
0.66917304732073
0.632519892735629
0.665882066480054
0.646488704654155
0.653461454307857
0.649084218955781
0.675360645031982
0.638995528916895
0.65399841447721
0.623611750499202
0.667140777103406
0.624832395454757
0.643761598872478
0.647427908556735
0.66047499672675
0.631515694086244
0.666686286354236
0.638445628546517
0.648822946321682
0.641511335266372
0.652457036096523
0.630137807585548
0.647892327146595
0.623743846558609
0.662597064473419
0.605215858231654
0.638663842286898
0.628386456827983
0.643924930157279
0.609373898595437
0.651286624966745
0.609532671672119
0.634833284149751
0.63847649196981
0.619963425326389
0.617168953726024
0.651789051724766
0.637566559904536
0.641302823055501
0.613537871004554
0.616479542697527
0.618756516840374
0.638272064392846
0.616608526826447
0.628098374732505
0.587760368185343
0.605632262167332
0.604610759697708
0.623797087807026
0.595884828870297
0.620435032524788
0.601092860807908
0.604717564612136
0.60330688492721
0.620157994222931
0.581524791382895
0.614730540672972
0.616280560396885
0.602291068122447
0.57832306806052
0.596465631715589
0.586011427590828
0.605370131088623
0.578009969243666
0.586007011782315
0.577333158434388
0.606382849318443
0.569263397108842
0.580881023657007
0.582073645188134
0.609885986339228
0.570712700928704
0.57270934500926
0.55264714431471
0.604307326457487
0.563652117150336
0.574358194877621
0.570257980842541
0.584983644939516
0.553274151171052
0.568847882390598
0.560542194884316
0.576521757615768
0.562737716763053
0.560746692212001
0.543717528923367
0.577052570763215
0.538143140814692
0.553576429508035
0.536707097507899
0.539632802060928
0.543053321986738
0.55941533220097
0.548854973794265
0.545922744050384
0.530957362809277
0.538259683956174
0.533162510061181
0.528221215546552
0.5073927791862
0.525307376305807
0.524007072620467
0.518039511183533
0.507561101308215
0.53369880242175
0.509087902467728
0.513675817491191
0.49943768493293
0.512987128655302
0.503440616438862
0.500475672802075
0.506513877221451
0.505585432868309
0.497485329474957
0.512356653881188
0.500246872708834
0.51457825719458
0.484082956035337
0.48650750187186
0.483766190686199
0.495590794329318
0.472772478768189
0.486545334882229
0.47620792879808
0.474968690839373
0.46628989691861
0.492923176362866
0.470717742273849
0.469859564239738
0.463842327761522
0.468679769248491
0.452361565333824
0.460422400853026
0.445512414067825
0.47245057415104
0.447852171466451
0.456802750678614
0.4535969795564
0.44932377070768
0.436668518147473
0.443539873467643
0.43843368988391
0.444309800114784
0.431234571924121
0.442412991584633
0.428481193639709
0.431892471836737
0.430039864346258
0.437283929871387
0.422006818401088
0.429077226130428
0.417353902031765
0.421874687185241
0.408255553930244
0.419108505459289
0.403598156484029
0.410532229378897
0.396023433297506
0.405086886218388
0.407885804186568
0.409426917518126
0.392579079212941
0.397734723236216
0.387049077432945
0.395039461630397
0.38815881633253
0.384671200383481
0.384684243455221
0.389814008084477
0.370454010876164
0.381987732777484
0.367199885000822
0.382596575265483
0.36530976828941
0.369184250117725
0.368112995100805
0.367249014787107
0.353138356946418
0.368750095517024
0.360950066750418
0.35984995468998
0.351816093368043
0.36019849493897
0.354530436957691
0.347765548596281
0.339872141699715
0.349663885747715
0.339011384992887
0.343656083865631
0.324515070098643
0.344585923059617
0.34038968402813
0.337540347420827
0.325270577024488
0.33200849404232
0.322095535246989
0.331023391742491
0.32174466159842
0.318313406744389
0.313024663901052
0.317674564526984
0.311492525626376
0.31903657162098
0.3099695401421
0.311019312011167
0.301904547698819
0.308428218119375
0.294811425003067
0.297526464812262
0.295956116104118
0.302218011485823
0.293195690704741
0.293633694924689
0.286150603456797
0.291708085796764
0.287434308839208
0.29166407303201
0.282116592503936
0.287585678686594
0.278404565264559
0.278905131296507
0.272466755261802
0.274215545917843
0.268399277417617
0.270086242088723
0.268835524442494
0.271729744043337
0.264784029020087
0.268503190712559
0.2652529493407
0.264514221719939
0.259865951342143
0.264822292254149
0.257481305734773
0.256930240340295
0.24923626211537
0.253631358814978
0.247231068661843
0.24817933821809
0.24662106596899
0.250123115436689
0.243352838737714
0.244124279011592
0.236595368036423
0.246147484409624
0.23495931304344
0.234827576793427
0.232338270985228
0.238748277122804
0.233391451216476
0.233346966047088
0.223108876095569
0.22981349104862
0.225750024578292
0.225983996733539
0.220418860040973
0.2274438213088
0.224002003207033
0.222767122653785
0.221657267029941
0.225265517667364
0.214619929879693
0.215220910952578
0.212165935559285
0.209599346224923
0.20666270784691
0.211085987319022
0.212511749854186
0.213374739805637
0.207617970617771
0.207096163283666
0.198393027913456
0.203387140509284
0.195438349289104
0.203467403782021
0.197538463331664
0.196467565191656
0.191693477409877
0.198092666362041
0.189930099165233
0.19697246433911
0.189719936090947
0.193021743263535
0.193359183210175
0.187995677219822
0.184813171512122
0.192825231092673
0.180895137788
0.185294564345419
0.179992946913793
0.181039908902246
0.183349597642476
0.187433428918489
0.179247156728827
0.17770631061292
0.174346650278623
0.179457838781754
0.176318948168581
0.175425289152491
0.171434680079158
0.173714712251222
0.167385068677955
0.171566907636432
0.168765583868132
0.171925720742091
0.167653218526255
0.167975983517466
0.162785580260772
0.166711286790668
0.163317985238705
0.164424742082242
0.161712367358014
0.163154965480377
0.158669930644385
0.162289209670108
0.158648941259324
0.158504293946653
0.15426732027051
0.157335653804583
0.156136401199275
0.158137980957841
0.152382873317426
0.155435979469429
0.151503747118922
0.152376357558694
0.1521099542995
0.150403138490223
0.148320875382604
0.15385515268533
0.144357205538256
0.147418742388697
0.141775387023218
0.147033066016579
0.144612677895729
0.144000696469258
0.140272084961782
0.141594769028981
0.13893753673917
0.141188092590159
0.138105298573452
0.145563508357185
0.138513486299665
0.139428474153335
0.135876622861519
0.13488655279113
0.13074040398352
0.139734704006117
0.139282276710108
0.134051397787933
0.131194057723309
0.13687510728147
0.134818855645075
0.137168974093179
0.135749332322017
0.132934161539974
0.132202052905879
0.134434859940325
0.127678611343373
0.130600852536909
0.129404144824806
0.134812388944718
0.135118602939807
0.135755677134841
0.134866827389885
0.126660329676945
0.123839321120579
0.131148513420239
0.129660114517754
0.134659534493543
0.131092612951872
0.130711490336057
0.131998688869084
0.135658936619562
0.122957227015861
0.129074051475128
0.133204883853703
0.137021131198521
0.135326329263011
0.137017291754278
0.13217184861271
0.139618053185486
0.134669085687145
0.136244335170138
0.135541654505332
0.135674968569394
0.129136247428962
0.137082360414824
0.143908657039324
0.137642481040347
0.135828874430436
0.143966099708803
0.143117330907301
0.14617734545664
0.141610532575503
0.142417247909828
0.143529045278416
0.147519196936919
0.145757655513009
0.150220784365071
0.152083988071131
0.153265649819917
0.149421761976797
0.151127592118713
0.153546447709927
0.156960560440975
0.154985405704013
0.155049201495942
0.154547055121761
0.162226232075244
0.161908368520525
0.163930393320067
0.16463497217921
0.165058997032188
0.162568898454188
0.165552027405672
0.168995534464404
0.175739247440693
0.172293907042879
0.176725670770863
0.178883261636069
0.181350134323875
0.178008172783719
0.183009657651086
0.18205908836912
0.18537534066819
0.190372453102802
0.192436248338594
0.188891422093272
0.197562447783436
0.201570009361151
0.199873759040102
0.198378491700004
0.203708400599361
0.198587835326608
0.199887057241914
0.203846176978717
0.205728732038536
0.200457542754055
0.21003301369069
0.207334386638815
0.206407025310765
0.209411320696939
0.20979833994836
0.203880339352781
0.211008325723507
0.196859448958057
0.199300446463723
0.208006996497307
0.203179897489241
0.205295602504888
0.205593040298507
0.203206273240961
0.202306597629897
0.194933928501142
0.200078528442724
0.199500270503092
0.201300929720843
0.197594311094168
0.194905823434845
0.191990450285801
0.198773578333436
0.199608235231429
0.196969079192498
0.193151713444685
0.196253546336116
0.197914566422795
0.197265226423993
0.19373303553806
0.196055240520759
0.194570560483437
0.195536385101565
0.195089368694013
0.195271446328887
0.195677093456013
0.199234726170243
0.197066549833714
0.19551487344164
0.194210028392155
0.195546617114909
0.192667941652566
0.199485296481494
0.194847150812337
0.195326459969672
0.194747793551982
0.195901880140213
0.189633018753186
0.193215339274156
0.192018817008743
0.191324015449077
0.190508787696288
0.187003279782393
0.186361388674354
0.187263587361911
0.185324864729175
0.185281925302756
0.182355695635657
0.186215256190935
0.183931851574163
0.180395377788222
0.177350978788403
0.178562349349708
0.173306667417021
0.176831458310507
0.175936286720738
0.170956093720811
0.167679541015047
0.173995525579637
0.167914241165172
0.165106994790988
0.165272866735249
0.166735052102874
0.164292506232681
0.159990606374603
0.156522701172099
0.154409048820106
0.154865016795406
0.158987571445544
0.154397987653824
0.154179564889187
0.153094912701691
0.148893159266192
0.145536447949807
0.146714980328398
0.145232449959422
0.145753247021097
0.140316537255649
0.14211590238434
0.138312346194125
0.136039460007454
0.133762293074327
0.134847750431107
0.134127865520791
0.135587438248139
0.130364199288717
0.13428480139864
0.132879223200297
0.13585741079033
0.132802791801192
0.130503386066355
0.127889567924512
0.127530525302307
0.131221712869357
0.124332413740133
0.121915270118145
0.124961378504186
0.122790309733541
0.125100933637918
0.123667421018888
0.123188098429125
0.12047995408284
0.118083877966021
0.121380043454035
0.121977720445926
0.118066228344458
0.119353360100485
0.116634644336975
0.114848838747419
0.11351948780708
0.117107151076792
0.115463942138485
0.115255645387356
0.115918709717744
0.117562390216073
0.111617288894538
0.114215267239599
0.114265445057444
0.11020367379595
0.113215845499897
0.110678906961989
0.109771969376713
0.109600220696628
0.112090814790905
0.10892996897954
0.106389170308108
0.106687735725623
0.106877660364824
0.105182036863707
0.104562439225709
0.108742984414708
0.105958589490974
0.10523178597656
0.1057567888796
0.105519836856847
0.104075610468121
0.102948027058406
0.102163536302091
0.10172139462263
0.0997842468772729
0.103420533263814
0.101144935678621
0.0995530625701425
0.101468442835884
0.102601229330971
0.0997822993011194
0.100056182960025
0.100731104419926
0.0977318547983484
0.099709335528938
0.0998701156404299
0.0977815938049346
0.0985120849322123
0.0994505192415122
0.0975681894875937
0.0957308111605406
0.0977916621331836
0.0984459929747144
0.100238724346245
0.0964493370906483
0.0994405622045805
0.0959872868490904
0.0925341064896743
0.0937348936043111
0.0961461566076323
0.0973101630954371
0.0962048540067459
0.0926317977236723
0.0948705126274884
0.0922593496372887
0.0939251577581985
0.0951007050946063
0.0969329753457231
0.0940729945672766
0.0942072693287161
0.0942169492286371
0.0910347940769528
0.0918624292920775
0.0925761338193444
0.0936426424350593
0.0915144367514002
0.0904250820516139
0.0907042987350622
0.0897933975802588
0.0898818111516032
0.0924346013536855
0.0912884796100044
0.0893697255503636
0.0899468394686186
0.0886230493756922
0.0888619763302325
0.0867549484998692
0.0884849919509673
0.0917116328090479
0.0903868942280156
0.0896291880584096
0.0872471400559642
0.0883504217971479
0.0911863821863158
0.0871598423691409
0.0896427766517867
0.08982442336328
0.0904374360067161
0.0865296627338683
0.085045732279167
0.0875940868441542
0.0878367751975243
0.0867033287460965
0.0923632568881532
0.0900656937096098
0.0877011643370241
0.0875239074852912
0.0853892015886988
0.0873912327422868
0.0893112503103407
0.0874894806611638
0.0838053846253742
0.0828179730962884
0.0834581415819007
0.0850271997890215
0.0881092866022238
0.0851192941601794
0.0822443572189634
0.082804179028353
0.0862873677807609
0.086830569432057
0.0836811366404956
0.0827521784715135
0.0859677657709467
0.0841556986951298
0.0824451420408961
0.0844833738192641
0.0831452528303749
0.0824403812739626
0.0829888154726502
0.0828506552834157
0.0796487049240033
0.0801445205362874
0.0833728405960774
0.0803920928765023
0.0814034035281196
0.0808698478295364
0.080781097598039
0.0824636720515591
0.0807495592065584
0.0829931011466596
0.0807100192544378
0.0765661189593516
0.0817918174879849
0.0804951300755479
0.0798505829704573
0.0789062912098066
0.0806769729752021
0.0786057727944154
0.0811739745321854
0.0807628379352186
0.0789250294441173
0.0759118105282969
0.0760867913319354
0.0763868707878129
0.08134085188895
0.0739450358652666
0.0785754467214466
0.0783790477820779
0.0713788893182832
0.0737892280430211
0.0791576031209768
0.0736080868889574
0.0800895078703014
0.0760448791524199
0.0742845715033357
0.0741132716761665
0.0773407424354856
0.0761540806503908
0.0754964966736208
0.0740803499148899
0.0750843213662192
0.071414477279731
0.0746517342589138
0.0760620056852269
0.0711802585643574
0.0692163151126584
0.0765482585320242
0.07277802983859
0.072598696835573
0.0736313718316362
0.0709789993818928
0.0731215794608985
0.0704837495013664
0.0694312446476572
0.0711714334577425
0.07098512153431
0.0713728645112664
0.069043361968131
0.0699772963281877
0.0686920185338472
0.0688113225865859
0.0681583809811741
0.0634579269583573
0.0659423017012884
0.0689224910895391
0.0674088720144948
0.0683319981361238
0.0649945704603682
0.0627604896268942
0.0659698386534529
0.0648088934296342
0.0652544075824032
0.0680091345853445
0.0642230700702128
0.0661238709581649
0.0623488023318385
0.0643348704782533
0.0641777573175369
0.0630349559132047
0.0645015476880901
0.0622647938712013
0.062924668239461
0.0641042311621989
0.0633088939048915
0.0608959045889036
0.062146390160754
0.0643254747880137
0.0626447758273319
0.0625343432560811
0.0609841793285702
0.0631828420131217
0.0606983369847291
0.0619553295602051
0.057996440705608
0.0638250692086899
0.0597736607626029
0.0594095375101344
0.0594767957321967
0.0592801660632897
0.0588945422895813
0.0601601343477677
0.0561961953331259
0.0596581643719115
0.0576586726795034
0.0611237796972319
0.0611568736106378
0.0620033870712193
0.0585560703063223
0.0600610641531645
0.0572279881398314
0.0577344730352974
0.0576440435745966
0.0618307430216568
0.0597799187333379
0.0575585081609476
0.0578702592945501
0.0587786400851769
0.0574985035711886
0.0578207621606049
0.0557027921069116
0.0576054657704102
0.0579242408584197
0.0580664862029821
0.0567039021109269
0.053504627941118
0.0550144004371853
0.0556363572341151
0.0559291638849112
0.0567573129314453
0.0526459125150593
0.0553700431738954
0.0572503858011875
0.0554518754412155
0.0556866412157134
0.0538551176213653
0.054676676199051
0.054070785315351
0.0533225954388055
0.0565754228142135
0.0513590127967888
0.0565097485493582
0.0546325604189612
0.0541225743515471
0.0530748229350281
0.0546928295406177
0.0545270327666195
0.0549405519673507
0.0551077960606373
0.0522509963611551
0.0540505616651995
0.0562843893890851
0.0508299329179696
0.0549017297200425
0.0546968930201495
0.0569308352455908
0.0500428279889504
0.0555508598329255
0.055467151008681
0.0538276865285689
0.0524666196207063
0.0550697440449217
0.0529266145352465
0.0512182296954784
0.0519430016951463
0.0537340268899876
0.0529350720357923
0.0498965859167462
0.0522601417756612
0.0524755463392611
0.0506646876593657
0.0517253062361892
0.0496544828257265
0.0520908271156231
0.0521539121740277
0.0500438571687425
0.0483245552925764
0.051429131207031
0.0518848284173172
0.0511639677004215
0.0493119994810825
0.0504449102944486
0.0483206742229728
0.0500579074205349
0.0507459095440872
0.0504102512577756
0.050056520715636
0.049658665584308
0.0470460642540896
0.0492335511430184
0.0488339506145571
0.0526242901232274
0.0467028926912092
0.0491277102638278
0.0501852369011802
0.0497626363063161
0.0480633990521582
0.0490991284207888
0.0478153521520007
0.0507010277636601
0.0472164699610877
0.0505268724216108
0.0471201355120531
0.0478427966480206
0.0499251718865777
0.0467136011807128
0.0485950080118452
0.0482668904879202
0.0480964401753292
0.0478758292438809
0.0454557802586509
0.0489898162955775
0.0483707804227195
0.0466058461773572
0.0474611547192428
0.0466566472966886
0.0472860509217473
0.0469910468370828
0.0446402530618908
0.048712749773701
0.0455185593098455
0.0474601570159196
0.0458388170490848
0.0516106747315689
0.0477478812967491
0.0479061242512164
0.0471598212417446
0.0462486895976874
0.0446435889259928
0.0475918378641906
0.0451122447752286
0.0465655486091025
0.0434070220526778
0.0475920187893803
0.045128362237241
0.0470749583137945
0.0443926874541397
0.0474990759963417
0.0463407438506674
0.0449736055072485
0.0434857097731461
0.0460047056972585
0.0430390426811131
0.0427649478266768
0.0465443677324749
0.0447972098617485
0.0427079584116849
0.0460002792332822
0.0461658985485019
0.0434227434212001
0.041322060374799
0.0428937757965073
0.0421520052159686
0.043613137766331
0.0418056689571673
0.043708325800497
0.0425441996535932
0.0441637911979261
0.043137907520917
0.0425230641313195
0.0418698039753696
0.0463515864586048
0.0428597485706698
0.0411628308899852
0.0413417926419913
0.0425613458651304
0.0385420530158914
0.0433369687456387
0.0428423925642205
0.0397509687568022
0.0401878232023633
0.0424167034478828
0.0393599323233277
0.0405701781568568
0.0400697130642113
0.044092479411918
0.0374630932146136
0.0426613771321442
0.0384353822416646
0.0412368647881023
0.0383224256286917
0.0413211175844546
0.0391150509642903
0.0407299859278768
0.0422428060158993
0.0408779567594503
0.0389871725558625
0.0401816423617484
0.0405785271584973
0.0405695662202501
0.0375326467845176
0.0392447844921138
0.0404197716556856
0.0413828337818156
0.03675118434737
0.0386321111038038
0.0378279887488425
0.0393434592649527
0.0361372254047525
0.0382667761121582
0.0370374602976218
0.0398492517527053
0.0357210038259027
0.0401123835076291
0.0351056759569613
0.0388283283137272
0.0377346126744107
0.039204776143109
0.0364501590696661
0.0369863411785216
0.0348857639138857
0.0380498740495679
0.0361456026276093
0.0374429084549356
0.0354012874957513
0.0356860117195606
0.0352959612236355
0.0340633152510976
0.0335630748853825
0.0388569634287154
0.033319869335656
0.0361229741586256
0.0369642783157856
0.0374100498464495
0.0344418546633206
0.0370940844256351
0.0356033139852955
0.035546443266935
0.0335763300760078
0.0367448501586792
0.0313926197773841
0.036195673539681
0.0332395711463177
0.0394729811479874
0.0351113840167102
0.0377786947560996
0.031947037880359
0.0377738221124257
0.0362505052026922
0.0364322312117048
0.0349582112936531
0.0371611231814265
0.0345085290717409
0.0392926118632164
0.0376726531406561
0.0407845751000016
0.0363966880692252
0.0412118038312458
0.0365644681530719
0.041623004115989
0.034761880503979
0.0403074098723979
0.0379005462257013
0.0425060605051249
0.0383610779578001
0.0412340370494808
0.0348373175890254
0.0384951236912757
0.0259800863597911
0.0321079782984917
0.0305501127375553
0.0432891241385425
0.0290533247858201
0.0346042850215022
0.0298938033599689
0.0363410421019469
0.0238336802028467
0.0371638536428702
0.0264211957639332
0.0340512054437065
0.0337677886840571
0.029930550875209
0.0253859534228501
0.0390055910982346
0.0294270838198198
0.043420115468796
0.0285909800678418
0.0409194380236673
0.027280417376172
0.0437424604601392
0.0243765733808664
0.0438443587207961
0.0226222086008927
0.0425226916022114
0.0202850507792083
0.040124020354259
0.0189265756371769
0.0405899970422143
0.0193958203777751
0.0449570536000706
0.0190772717088433
0.0493030837779671
0.019087527807473
0.0498883436331193
0.0155059134614492
0.0455263041148043
0.010915376078099
0.0433265683660393
0.0169154511769991
0.0534743348283125
0.0227776307756933
0.0515318359122818
0.0135856534705833
0.0425702893073262
0.0254114639099252
0.0498685571790893
0.0220224243965729
0.0315384104161576
0.035567503029443
0.0400575411696527
0.0434556119167654
0.0192878570377179
0.0545612639406043
0.0184785088925959
0.0588619649366968
0.0108141269089891
0.0621657406139697
0.00851582684303122
0.0580201517653646
0.0173002530282622
0.0525296824206814
0.0196574667375414
0.0449623361501188
0.027242132293464
0.0369611523733308
0.0330349287957612
0.0325713085576821
0.035390857044197
0.0287902617274035
0.0327071388763919
0.0353026214651231
0.0296359786450033
0.0388649739731395
0.0270300965624949
0.039533556749208
0.0276022380402333
0.036734796190196
0.0265318381065728
0.0324736639746485
0.0274661052283215
0.0323527281368458
0.0283948106691978
0.0313179042091935
0.0283400269264682
0.0357062835392581
0.0277465351653048
0.0320769866054666
0.0293268588358372
0.0323438229952703
0.0283070227832766
0.0314721713328934
0.0256050909621285
0.0318688639378127
0.0270192006579428
0.0304487856462743
0.0280420230088691
0.0302599042925178
0.0275506587651663
0.0301998617262412
0.0266904815735366
0.0293401596704718
0.0289422024309023
0.0321175555673782
0.0280906030022924
0.032191903645974
0.0288251807296544
0.032113601937385
0.0269691925017502
0.0313668222925215
0.0282866887447673
0.0318031086848315
0.0284627784487898
0.0291818312266329
0.0277250761865093
0.0318890059729962
0.0266333822563518
0.0317789499099737
0.0299665677598215
0.0327712871729257
0.0269430711842596
0.0298967918309464
0.0275035101367049
0.0283468531982912
0.0272143847287708
0.0321240092802173
0.0261100017864738
0.0297567190032672
0.0306733723364858
0.0310577132111588
0.0272626961356973
0.0299263524154027
0.0276485722005093
0.028055775430794
0.02850297653796
0.0312555264931351
0.0287858059440861
0.0284682088791168
0.02753938078914
0.0318538526404498
0.0281931360801771
0.0296359448628791
0.0267597713111451
0.0279168047386614
0.0286016637556262
0.028749616119073
0.0293878600641246
0.0295530860354784
0.0289732284364737
0.0275701189519474
0.0284980532185067
0.0301608758672092
0.028540955694714
0.030540918767073
0.0274804183896766
0.0283398860628189
0.0287451787729693
0.0292596543956275
0.0276317141357135
0.0296864514791514
0.0273646043034684
0.0273078577926146
0.0281728121777733
0.0309287249755047
0.0288669315978263
0.0294111157661401
0.0298162181788122
0.0304022747185819
0.0297729502401235
0.0287942552047452
0.0282940142493086
0.0276886728064286
0.0291039476171568
0.0295417552997401
0.0300080081184756
0.0309884172146862
0.027978634527339
0.0295890684413876
0.0308096505463352
0.0293173568826192
0.0292580593629385
0.0293173869303457
0.0265743585335306
0.0287920876806048
0.0295360319726225
0.0283368926597267
0.0281524305669668
0.029586352380826
0.0273328981376866
0.0293123143013014
0.0284441833420052
0.0318618140672229
0.0276155861199143
0.0291199151527698
0.0284010675425468
0.0315514362991808
0.0271482777493786
0.0282960373841932
0.0284158449840045
0.0301020134196304
0.0291668223786226
0.0291490568810813
0.027724805497378
0.0294128805544068
0.0261934615501589
0.0287031089415732
0.0285575159025579
0.029555861450117
0.0288896332046019
0.0287918892061116
0.0293696312368608
0.0298186667597427
0.0282178363623762
0.0290988680273765
0.0280907708340384
0.0291773421516829
0.0302048410992286
0.0304633649826543
0.0294686315264335
0.0272003094065686
0.0291070062046382
0.0302822751496356
0.0285535763729681
0.0310797207748894
0.0312244584539764
0.0295288914187902
0.0292129285691618
0.0304103358289848
0.0282026070958277
0.0313514814581766
0.0304747365975411
0.0311727827898113
0.029049317610729
0.0311829460823856
0.0281439424304529
0.0294446413277816
0.0301156419299576
0.0290307297385628
0.0299481394552688
0.0297786941379553
0.0290778136010017
0.0247497685886978
0.0276444427009235
0.0308547334511511
0.0285938770687283
0.0290794070948468
0.0278778717710015
0.0287839845489146
0.0281767232090149
0.0283393512984139
0.03007994876198
0.0273279459346309
0.0293546607351887
0.0285512457281976
0.0286701193780415
0.0266891633796907
0.0282745978432223
0.0272715578634054
0.0313439403824559
0.0277552899381548
0.0289668288668554
0.0287922675422138
0.0290321919841192
0.0275222194805475
0.0281698458058531
0.0268324707413493
0.0289102493629191
0.0288745279022116
0.0274175813046433
0.0283688582858501
0.0247664545842572
0.0278472717034316
0.0270008262662258
0.026924053032226
0.0276667665673662
0.0271843851757786
0.0290154948534347
0.0282494586184191
0.0283636982371347
0.0279228957484343
0.0258106974755717
0.0286612557759937
0.0281650972148886
0.0270486758031792
0.0274605651242253
0.0270625439804193
0.0267941835251854
0.0272001222280874
0.0300151317524564
0.0274065385750348
0.0256064948305934
0.0274481638829161
0.0264708760690767
0.0268145621163186
0.0261836789240518
0.0282555550320502
0.0261613459620974
0.0281295147553916
0.0284866404250182
0.0275897630965472
0.0287797938228845
0.0273434459227531
0.0286477539044143
0.0273452646813529
0.0252511634998755
0.0256923610923871
0.027455707819093
0.0273962430693274
0.02533052961767
0.0267945254492732
0.0274502255318229
0.0264229204963258
0.0272052808922943
0.0286226447255292
0.0262657592652932
0.026409275860694
0.0272596711829712
0.0267851100886385
0.0264796878946895
0.0269172739355936
0.0263492589196814
0.0274145953527809
0.0256169801896977
0.0256577491132065
0.0271468723634463
0.0296679580835445
0.0301540544054083
0.027566226183285
0.026313644748976
0.0263750220975937
0.0292107734422186
0.0262115811524142
0.0253082347397905
0.0257106778289318
0.0272139892071168
0.0250047995026568
0.0271343450936778
0.0256934999774524
0.0270278791741351
0.0261029034148176
0.0245642374188125
0.0246090525220512
0.0265436217470826
0.0274016887047736
0.026030061944211
0.0267944802287134
0.0268589133862778
0.0257949241213743
0.0255345308093009
0.0244389805347178
0.0266550134450078
0.0304379830666104
0.0271446120349728
0.0270369448265722
0.0249362477654298
0.0255045853510254
0.0261182259061142
0.0256896287493404
0.0269641596700029
0.0261107272603552
0.0258862185799214
0.024074415778732
0.0245426168719823
0.0252640336774884
0.02713738505266
0.0239340427173589
0.024237230507317
0.0246371822346792
0.0251810694884681
0.0244645867964694
0.0240914209764807
0.0261761708044365
0.0240116180838427
0.0251408339057816
0.0231345785940032
0.0276662547885954
0.0286668438487744
0.0318442706759424
0.0286437644429052
0.0212917027423628
0.024890401203303
0.0220564786222012
0.0260195935125857
0.0244687433350848
0.0246817726369351
0.0224353150620737
0.0235036859029741
0.0233049899064253
0.0248866544174116
0.0220274087158863
0.0238143409115423
0.0236875411765037
0.0240402965507607
0.0230190480231173
0.0254975140390721
0.0219662823560081
0.0258998260152821
0.0232659010202239
0.0238069068282945
0.0210916532968857
0.0250750064499337
0.0182813966608302
0.0278989242815148
0.0277944688592619
0.0384692900678816
0.0256188799610617
0.0248007019322957
0.0260842655306199
0.029189760542842
0.0237124843542142
0.0233711487505515
0.0211417271257635
0.0232492547119035
0.0239580223601
0.0230146779740791
0.0244585969873088
0.022502497256467
0.0235471458540449
0.0257358954540883
0.0220409676451375
0.0235252853501975
0.0217917420058731
0.0245362225284578
0.0230364307103601
0.0232562230402743
0.021314348519404
0.0223083858533243
0.021358984828734
0.0237450317886742
0.022442525492886
0.0319062316638513
0.0304911964217228
0.02502609487305
0.0250257349180173
0.0215248294587838
0.0211114374752379
0.0219281371356849
0.0234488370336892
0.0223876750154288
0.0238693732932891
0.0232053290462974
0.0215391695164841
0.0228894831930645
0.0244499562190401
0.0235895044075679
0.0225922985631415
0.0237414138671779
0.0220063190353119
0.0214928973332047
0.0231375644313493
0.0218345082995731
0.0226918182672935
0.0208089876718107
0.0286238489639506
0.0227421484519107
0.0258230923914127
0.0268576321891791
0.0458976715226378
0.0266712613226311
0.0235916284940527
0.0254602204592783
0.0205820315997554
0.0235186432559077
0.0197411374291647
0.0220306935837494
0.0197040964787507
0.0220003365525631
0.0230746723146004
0.0226523141172583
0.0219204477454887
0.0231472600865702
0.0207901287904771
0.021023413851755
0.0212491412612078
0.023228809973054
0.0199904552460936
0.0216726757640704
0.030441230270646
0.0415274782824078
0.0322330196548711
0.0204829378263163
0.0240649253370017
0.025932972703531
0.0369658873554809
0.037914222827897
0.0165342882147275
0.0290305396814949
0.01658820538032
0.024617581989276
0.0156442999410302
0.0241958716936974
0.0194311772920997
0.0341071150865802
0.0212703670315283
0.0275635807125477
0.0216953400868565
0.0240451792491679
0.0204836795730339
0.0240857155983857
0.0204275815941411
0.020657227229894
0.0189927306476594
0.021752643392746
0.0208023557136974
0.0224655435258957
0.0200956151562311
0.022917120647457
0.0211912321214487
0.0350159600032057
0.0190082019028726
0.0249387525814106
0.0198219374079288
0.0249514989160609
0.02723543256707
0.044767448853653
0.0221023995450552
0.0221816042147233
0.0222669506934755
0.0215802700388426
0.0238094003637786
0.0206457180286227
0.0214206560009723
0.0214269907445855
0.0195468942353423
0.0220177452720474
0.0212562029810771
0.0195952659407931
0.0232309873836676
0.0198483549713185
0.018807522397631
0.0198550834550271
0.0228676961287387
0.0215896103180248
0.0216384893564898
0.0293913113610256
0.0353015207954757
0.0563808451332211
0.0331393745934634
0.0406849122074804
0.0251840526251397
0.0275962738501318
0.0205084003077961
0.0247165133804144
0.0191600177722887
0.0263356052175166
0.0210473975560503
0.0254898110207476
0.021182943476085
0.0246534037763561
0.0187748034834625
0.0221132628657104
0.0173346496747511
0.0206640197803697
0.0181584573918862
0.0232978966312694
0.0178238549543674
0.018755850013852
0.0240532566875076
0.0321427573232976
0.0322254942678902
0.0194118530752708
0.035523706415499
0.0389383076698944
0.0612855182400379
0.0240367065447741
0.0328207435833572
0.0213393929686825
0.0199929796889918
0.0212451663066037
0.0249179846956066
0.0277194901293804
0.0258663244810758
0.0205688134712666
0.023315875634083
0.024098843526915
0.0226866391779645
0.0248979862368369
0.0375344068301521
0.0584183026223081
0.0403376277581518
0.0212521396655271
0.0270735299058947
0.0317761971732005
0.054007078943202
0.028038727330363
0.0223102354154179
0.0304264085065418
0.017475554750705
0.0247346026648338
0.0164906837446969
0.0256868863331585
0.0247927426320662
0.0267507162141083
0.0172092648519663
0.0216176084558824
0.0194735411975281
0.024750246937702
0.0284148794936128
0.0356384398295196
0.0353985909271285
0.0257449204222941
0.0238074659553495
0.029602633351566
0.018848399321037
0.0279804087093625
0.0180507479996367
0.0250965853943638
0.0323197796857029
0.0441212815308825
0.0340248606915287
0.0411374872690891
0.0358466969588941
0.0260581558588632
0.0227790373310385
0.0447005806439508
0.0255991413416832
0.03506344905208
0.026210319247038
0.0677758920901531
0.042768520079707
0.0474645986958995
0.0286822422754161
0.0239998784753908
0.0241991199041936
0.0182625350689973
0.0314066683005439
0.03141666575007
0.0374129821004536
0.0144564893402996
0.0329598853812412
0.0292472622227634
0.0484537316077591
0.0264123596568852
0.0332826067000017
0.0200074249888258
0.0304457412602642
0.0308315215147649
0.0365351409146745
0.0265259316817104
0.0590684889899381
0.0766516425778669
0.0467399994201533
0.0367778386406603
0.0284707888674438
0.0573109784116646
0.0409321119516346
0.0211336420116977
0.0310198489433112
0.0172090985343039
0.0296213111963669
0.034073640549678
0.0557596009112518
0.0390785184227642
0.0223950845667052
0.0315746397938353
0.032512052632011
0.0462911495033421
0.0449137667342937
0.0206619416413991
0.0283281760908126
0.0210445050274468
0.0436531140885948
0.0520492956643953
0.0703296923156924
0.0356632122181885
0.0748062385985649
0.0490320449494458
0.0486353756631959
0.0379545623599577
0.0390074665694607
0.050759906547857
0.0558122842351096
0.0307458060968701
0.0328409584672565
0.0427274470531923
0.0587340990650656
0.038490028777124
0.029272061739936
0.0336223804102439
0.0343944308660744
0.085168588390124
0.107045037946145
0.0625639165576647
0.0376533509863086
0.0460453543241739
0.0612229080878451
0.045977957655101
0.026979900760031
0.0349069977403845
0.0271816310256513
0.0281070040349171
0.0349253360219359
0.0406967722254966
0.0396153251541671
0.0299633818190603
0.0339359756870419
0.0345447483985092
0.0701289996969604
0.0995814048430762
0.077804850422484
0.0630778244628913
0.0649274037725185
0.0745491339007585
0.0413317800258355
0.0417714462208037
0.0337588249174705
0.0514094251732758
0.0411612427518525
0.0338202983568277
0.0449247112720234
0.0583536322135758
0.0676146372462112
0.0577869309698473
0.0624495440916704
0.0460897240480745
0.0489957389214752
0.0889442123611032
0.122422085681233
0.102940044465381
0.0413704019580078
0.0851579357672776
0.0614277757533514
0.122098232210311
0.0643363384406968
0.0479038600583618
0.0482579026676913
0.0522803374299621
0.0513248633328378
0.0645010380627145
0.0631516788758474
0.0746791225260462
0.0557643394010282
0.0702829470572187
0.0715948865439108
0.176798266294902
0.122148997535744
0.0900233202741662
0.0681003671889936
0.0946804386482718
0.0816605613320917
0.0752152297523117
0.0593692960320109
0.0781497473824876
0.0776721530400689
0.127446022264964
0.0829799294617847
0.0721693580111758
0.0936171251746954
0.094080321415878
0.100762247177922
0.101837262823764
0.133773221993494
0.0821833230446914
0.087287023868519
0.0786404960557434
0.0857480320117889
0.0949444558001213
0.114180232325784
0.114888385341083
0.0910423327661458
0.0963708246395502
0.08684299819596
0.092589906960779
0.0944864053635981
0.0977774632964763
0.106015485994734
0.145168620213948
0.197327422755166
0.206736007566295
0.152455429360267
0.102561154196111
0.102664362442484
0.112570340636044
0.135377750947375
0.152872559313496
0.13950277857936
0.13625496605664
0.0959976398117509
0.103343087943508
0.0998874753751177
0.0983482152507621
0.101817939939117
0.0976494022052929
0.106332303461309
0.113398794031103
0.128011938957867
0.125215237983856
0.175011851576533
0.11592805395993
0.100996173142889
0.0985675955613572
0.0962224945678973
0.0945244390875818
0.096309711817924
0.108764646331854
0.113043983206198
0.101894466768678
0.0884367691074152
0.103307656076434
0.113014430017926
0.126827385470859
0.0975089903974848
0.0992269522762639
0.0948097003641877
0.0910028690011219
0.0986012429915961
0.115269722010416
0.134245920798582
0.105259506025614
0.0900071559747462
0.0955765192113081
0.0821960397760092
0.0872736924148638
0.0839765892373052
0.097416578190173
0.0868850425484669
0.0916964983116041
0.0902005043453372
0.0902221009642404
0.0800533485661647
0.0909225759959605
0.0872712864688352
0.0927692103990226
0.0876091497823707
0.0866219305624718
0.0815152345336861
0.0900053153736161
0.0826915986786372
0.0876799377602357
0.0836560470532767
0.0909075682710436
0.0839198335444575
0.0882344120800923
0.0811040812474553
0.0876940238363429
0.0822245918546364
0.0859430545377891
0.0784581936831043
0.0831843862895878
0.0797845965077974
0.0836787825430518
0.0764324728681435
0.0802722710481032
0.0785358034587012
0.0824138613444853
0.0766939832831718
0.0795951375927387
0.0768171973289738
0.0872172750380688
0.099055037186524
0.125979689158507
0.112945711100384
0.082269849027466
0.0809149665747152
0.0812622379169824
0.0746528969155306
0.0907901284059493
0.116262517371905
0.112559608763678
0.0788511546568987
0.0778719686279204
0.0747493899105564
0.0947401605666401
0.0836272682616786
0.0754996933707212
0.064900520551384
0.0877387476444032
0.0952995076945471
0.180017033222347
0.171670750025984
0.170770617800841
0.0925626624780951
0.0796548775910767
0.0946530432018023
0.103902732077776
0.0747502980734425
0.0655285985439037
0.0756116578550143
0.113989126658718
0.090784719440106
0.0685888923461402
0.0594161723493396
0.0706330090133939
0.100479580228399
0.104544220618919
0.096504982485657
0.10498936476157
0.116547072968727
0.119149367526919
0.150623361903123
0.162627355833162
0.0991345524819196
0.0726389172996381
0.0689085431011389
0.0722389405397403
0.0869292655150355
0.122663299491843
0.0914879225036178
0.0824588592128498
0.0626786359565514
0.0606123973152385
0.0744030826944348
0.0930576528225027
0.0795973991779107
0.0939361710790674
0.0958249466960274
0.0792021086689039
0.0807171042268671
0.111017611396009
0.12096117749609
0.13328236745225
0.068971724517617
0.0739101403939524
0.11311706682422
0.11681034199434
0.0848809426184844
0.0832799161737189
0.0564594632633086
0.0739341908535914
0.0754920743927341
0.072666053079191
0.0884149414518756
0.102496124013728
0.122407153961505
0.156666939341939
0.169183684409281
0.126497225630484
0.0776552827370314
0.0583480886418326
0.0607217238371116
0.071864250033062
0.0586480644421962
0.0710229565599155
0.0893881152889325
0.0756522827839167
0.0748689160692911
0.112171718160755
0.076057975531311
0.0606149542515763
0.059275805090079
0.0642614180780915
0.0715063006687758
0.10756746986155
0.116861430818795
0.0943896262506955
0.0903332627952526
0.0973842153690761
0.079731182814512
0.0694981795314186
0.0716791493671112
0.0692504925862708
0.0761255323760926
0.0892494330147754
0.0807237315650383
0.0807202744509887
0.0785075849834801
0.0854079475810168
0.115914176083558
0.110019117613912
0.096250883143372
0.124768823791181
0.143342620657687
0.1566822482759
0.117002248113597
0.102754454406376
0.0982006370373125
0.101387497925848
0.102275361838504
0.105887373047152
0.129111603691143
0.142273202171972
0.113381382949554
0.114365850789557
0.116318988475638
0.115632694668959
0.12702081586146
0.152823084976216
0.166907562998868
0.192079459945481
0.179927711251041
0.161631974241377
0.133000965266891
0.126107795155106
0.136065544415402
0.132090039734043
0.125217748970742
0.123408353996084
0.13898200491881
0.153844545784119
0.130354572054877
0.128286679510208
0.129609674836777
0.130188951955261
0.128681352113479
0.130818675144135
0.129659022416651
0.131989730248934
0.128896979180896
0.135562409864822
0.149844281477167
0.205374044522063
0.161574080506817
0.145114785151943
0.14542393966956
0.150510020199841
0.142327942546271
0.14828131600655
0.167513919207017
0.154415956429351
0.151417354484373
0.151542096029525
0.145696610284973
0.148336355558833
0.171421169368001
0.177537446379889
0.154447141150829
0.155652397097028
0.152616888704875
0.205726162599216
0.20328279961328
0.190484242268613
0.179269040722898
0.169668138399668
0.155927280660184
0.158830666429589
0.15589362952842
0.163469982161286
0.161556278675221
0.16422600840892
0.157441286392747
0.158536795081877
0.158383552548576
0.15385590945852
0.168629013601306
0.18780581753848
0.166659727536262
0.158091733195271
0.153915866924898
0.153802473665257
0.159053870392342
0.186103412814517
0.175235366905104
0.167466902516357
0.15964861714562
0.178710264020403
0.184024361410861
0.171446673000107
0.151096803069519
0.156130682740671
0.14971275994795
0.157615376449219
0.148165899919882
0.174340696231524
0.1868003618042
0.171539289366688
0.153554943086162
0.154378691260873
0.156199737593717
0.158400608195996
0.154812754085118
0.161209577301692
0.15934190393547
0.164478405360782
0.16426559293233
0.164982523412653
0.164101514788892
0.178651961694605
0.184933892835092
0.181931014682808
0.163167882145026
0.166981240066026
0.157827571902633
0.165178119382667
0.166756980744217
0.164442931388446
0.1546739243894
0.159578197510166
0.149405691013778
0.165418679786987
0.188510601208875
0.166336419514039
0.171478493758763
0.154219342853219
0.148700730596503
0.152055049718607
0.149151742836875
0.147118742884401
0.147830928491624
0.149907255298813
0.142257455646303
0.145528690333625
0.14029434633181
0.142723127763222
0.143957249811991
0.142326296598679
0.136278214873226
0.142318113729255
0.136628965498657
0.139633372400484
0.13672954035333
0.140224825142835
0.136578094049227
0.137447552975166
0.15696488997176
0.164530229244355
0.162868811139604
0.147590526120668
0.150747504506311
0.14194812991556
0.136559620343038
0.13708751571932
0.133946200714544
0.138239408379781
0.132892984266965
0.13916231930824
0.134584533986143
0.135881470674515
0.132295217065814
0.135175646000689
0.131352463833657
0.132316194994506
0.130196584991746
0.132144259683746
0.12942304452719
0.134560960214357
0.129227782790898
0.143778610670237
0.13313647868196
0.136195411403875
0.130756939236395
0.128186895436076
0.129871224117332
0.133986030439645
0.134318173990796
0.12914281813557
0.125978537394853
0.125264894248786
0.125927075479197
0.128134740624783
0.127835166998382
0.129774676379372
0.124823270404598
0.126761015313434
0.123523324522626
0.124622548576006
0.121265257017966
0.120392989997845
0.11850569670528
0.119858118198611
0.114894739710569
0.118103246187192
0.114853089840558
0.114940591214213
0.113089702380104
0.113599180591028
0.110020514818945
0.113601541916243
0.108982978608064
0.108706107141262
0.110775488082429
0.111897138426986
0.108203048131857
0.108960707931925
0.10539379432247
0.108458311889522
0.106645151357172
0.106911289120811
0.106109565003859
0.108708192247352
0.104824352733638
0.106149014647699
0.10629865189977
0.10761596276567
0.106446345912836
0.108846380104518
0.105666727146824
0.108472899549933
0.111396306705827
0.110214673300801
0.110605075911175
0.110781961759127
0.11050339501171
0.112426863775611
0.113372759778019
0.112544109906564
0.110766124614124
0.111728935454745
0.111275255990249
0.114787769118239
0.115094009785419
0.114671937523358
0.11172253671727
0.115799833695926
0.112932326364335
0.114381626302101
0.11321329524256
0.114743537937831
0.112240927281
0.114536220451424
0.112151000137556
0.112294168143357
0.111631212622571
0.112325882070661
0.111998657039836
0.111701884674939
0.111091761512449
0.112231082125434
0.110997613579759
0.108540568662897
0.110903648203045
0.110491980977299
0.110671622132311
0.108499474708813
0.10854533546396
0.110642276693844
0.107257609989823
0.10723869973011
0.108421655925426
0.108540140512245
0.106421897823407
0.104864239971966
0.105102235315818
0.10834543552367
0.105557761441776
0.105134951713707
0.102588470430282
0.104808592139202
0.105348240675516
0.101905972360856
0.101115967780389
0.102965340861255
0.100325554751428
0.102413948440487
0.1000295952389
0.10007376319411
0.09768987398841
0.0990210471985295
0.096364259996429
0.098415779240347
0.0966634675540931
0.0972960755541273
0.0968269693227217
0.0959655359956612
0.0950090827261507
0.0954669867376221
0.0940671579013558
0.095749071917416
0.0953049060137701
0.0954610177026031
0.0945700307808537
0.0956318375929131
0.0944908666068372
0.0962678463327242
0.0934171021929041
0.0948837891709121
0.092886648085534
0.0935469302498278
0.0911338711067848
0.0915190824265752
0.0888630645339742
0.090616684728952
0.0877748345020516
0.0885805674848076
0.0884120551262101
0.0878509340275355
0.0842355356114748
0.0846016933617788
0.0815307265139063
0.084996854137288
0.0824754043261518
0.0863796917766953
0.0841577685102707
0.0866462966307433
0.0870283486455506
0.090668203541519
0.09312412488349
0.0972614990575885
0.0986768123640118
0.104316534617413
0.106314704431375
0.111990432915395
0.116060877364011
0.124055621186915
0.127011611925172
0.133137902926356
0.140488063449002
0.146709290158164
0.152562535887879
0.160357402692034
0.167753716655514
0.175305786997069
0.182162843035012
0.190333233290192
0.197937029151609
0.208302620106666
0.214182145114426
0.223571675767103
0.230017041634373
0.237039931284352
0.24346601666123
0.249725106786679
0.257573687435438
0.261698311229046
0.265319533526018
0.270630285070809
0.273514353994292
0.277365193517656
0.276950704450546
0.277096066939301
0.276958311230188
0.27699115847861
0.274633519722465
0.275536426371904
0.270656850351366
0.270141218745828
0.266959967378449
0.265868756382365
0.262164560354088
0.26240248815023
0.260200856577493
0.257277227097489
0.256178592724111
0.256816282982637
0.254195160353105
0.257403714469767
0.256018878319015
0.255938488188654
0.258038970474951
0.260048100470452
0.259852029570066
0.266742304378769
0.267877785906269
0.270126599458609
0.274598535513408
0.276266603675871
0.280868677262071
0.287392072427585
0.289164289051215
0.290876005820832
0.296480281886814
0.300267972026971
0.300783342545737
0.302618691013026
0.305523131524948
0.310304622162658
0.308939464505639
0.311080575212198
0.311474678558994
0.313738597900427
0.312352397950255
0.316961085296216
0.312060243434728
0.312897835841521
0.313866340909038
0.316864330050216
0.317487111807352
0.32027895934519
0.319746985518507
0.3289332206808
0.328700071376611
0.335023235436921
0.334345385586639
0.340747566399372
0.346927853537848
0.353460832415449
0.352987903340217
0.360584195725989
0.363546286660387
0.368983307584766
0.375945538747164
0.383579466805165
0.384408746462816
0.395177065648729
0.402620009773603
0.413418231101627
0.418127498381565
0.432424102857007
0.443420022126637
0.45344133909143
0.460993832076319
0.477790372333111
0.482916852952287
0.490859011253195
0.504870895843783
0.504526183302265
0.511218644234028
0.518870771616138
0.514718030413
0.522864070170925
0.521732436931128
0.518700828538494
0.52088582642549
0.515324523878804
0.506110364379279
0.510826276601429
0.503697867165998
0.500739400355257
0.493722090894294
0.495283130272299
0.493591118287738
0.492374171652288
0.483870990114687
0.496079907447164
0.490126200588973
0.49945713863827
0.496938190616312
0.505335706013232
0.509312867983453
0.511906516284476
0.519080088301548
0.524133462900414
0.527204105421537
0.538885842140771
0.548431821071608
0.543761985288811
0.549322904591931
0.557984431576581
0.562012344530028
0.570937114042934
0.577757277758299
0.57714224257648
0.587329222145367
0.595201618555529
0.592918970729656
0.603133198635358
0.603897130486771
0.612547775153904
0.608930973942499
0.620689832776488
0.610587977254855
0.629508267575366
0.620809724124809
0.621523176188083
0.629021350903785
0.638587176279461
0.63306033432533
0.637155244737674
0.622069098289892
0.624928821635574
0.631484937036426
0.638166908212281
0.621996422702456
0.61864660362145
0.613592165816989
0.61262748327117
0.604755705540637
0.592943988256545
0.585042196447237
0.579121090153731
0.556384946140276
0.545757909049749
0.529054140686613
0.521224222002471
0.496913078817431
0.478664223144494
0.460165168464619
0.445792643002874
0.428880311545555
0.411751336684134
0.396197089276246
0.384105674191089
0.367447730620661
0.35556757199804
0.346866993477109
0.333269277115984
0.330945223992591
0.32162812560539
0.319153151071193
0.311498448284814
0.304756889259272
0.294678567289411
0.295817867190531
0.281240022663301
0.28441310109176
0.269852240079854
0.273656696065483
0.254536852885965
0.254488815485605
0.244796988710261
0.238337409318706
0.227326555690256
0.216698214747372
0.2080516088997
0.196124384146072
0.193420449329176
0.182557505481627
0.169894589740426
0.159395046745395
0.154332906070307
0.144602544836055
0.132232549036978
0.129514596839778
0.11893875282404
0.114811649298105
0.107351048891796
0.102185047847093
0.0988481962322848
0.0897834371204811
0.0862185133605016
0.0820969151620677
0.0757618175608376
0.0743011704431633
0.0697779731377319
0.0698206482984445
0.0652949137521527
0.0649021916994154
0.0638453175899865
0.0616177598822756
0.0588188495288443
0.0598538147737481
0.053579636991379
0.0546456828225975
0.0539059382542938
0.0536647788119268
0.0543317643929398
0.0548770360363724
0.0542255292943014
0.0555199853246792
0.0557306963387919
0.0540014410188265
0.0561057072712792
0.0558032891858458
0.055239644990733
0.0601108477649225
0.0617792879909108
0.059719836504
0.057507037514201
0.0631020362714315
0.0634027333597637
0.0625505310462947
0.0634894335602392
0.061831157865233
0.0634478543504674
0.0666391331763258
0.0640040170580108
0.0638803934483
0.0687185773499083
0.0646511907965996
0.0673002960518551
0.067355477704204
0.068850631846874
0.0688868247348623
0.069919573026866
0.0689351499756662
0.0684013747610244
0.0706539271712476
0.069898284657147
0.0658516935110831
0.0677374565614881
0.072494634687746
0.0694450993124106
0.0729270506220552
0.0708514444835901
0.0702104561860506
0.0688130234665131
0.0718755119387685
0.0729377428058146
0.0737964031484293
0.072744091618022
0.0711463036700171
0.0685113424874164
0.0697121575104192
0.0696387532065046
0.0736193868856691
0.070067961725022
0.0680615863099097
0.070287927094965
0.0694524496857595
0.0666661336849653
0.0716580941109471
0.0683335261147515
0.072492211094409
0.0725357766659194
0.0715894775618479
0.0759701804231681
0.0753268051005242
0.0792292288767856
0.0789012549813113
0.0792528904740485
0.0817333326883182
0.0870433673390302
0.082493582109713
0.088025171655165
0.084454437071307
0.0820937194469058
0.0878489094575241
0.0838429277721369
0.0860490118710559
0.0809480499156904
0.0805687796612832
0.0792045239445062
0.0802519966578803
0.0750715029451774
0.0716631047278566
0.0728425162312152
0.0706196704871491
0.0711009590868806
0.0733273900614294
0.0730258452561594
0.0701249975303764
0.0744210674479104
0.0751799286512623
0.0721405869749673
0.0747015670204839
0.0716421901890922
0.0752599469360545
0.0707366655913367
0.0757995549079432
0.0729297390938982
0.0737671056244954
0.0677037647422238
0.0717748417221629
0.073795991645244
0.0676391822966269
0.0682400449274014
0.0739499672032996
0.0699399719925865
0.07304382590576
0.0698838161483417
0.0745232966773873
0.0746397602343481
0.0726051445732366
0.0685345412927415
0.0699399909082914
0.0660356046173949
0.0646199269529621
0.0682759910951987
0.0666574283046793
0.0644050584956293
0.0694949974737128
0.065830341351333
0.0709147351750203
0.067515295131139
0.0679564373012119
0.0652568486371581
0.0667849167228465
0.0597396494955019
0.067157229520148
0.0585655918056425
0.0591245209246578
0.0609138499879615
0.0604692210261126
0.0602855016168606
0.0600788984262481
0.0620393426472479
0.06287001240929
0.0527148591426192
0.0626132698024512
0.0553543371082098
0.0592236377362658
0.0533656896332173
0.0509748559564991
0.0495834801454108
0.0518335934506267
0.0509565100288439
0.0541032313745843
0.0575557196569503
0.0567121824778916
0.0473737940863469
0.0584725744044557
0.0589757864516392
0.0640368732947494
0.0542651417530126
0.0524694629489385
0.0554549828399027
0.0604808439302395
0.0554281496509061
0.058871830489928
0.0627221848568217
0.0647946069739394
0.0583726416344946
0.0682976909409035
0.0577571647506971
0.0625173231081504
0.0528213706859413
0.0735617590916127
0.0624548655855184
0.0665424772338106
0.0665315208140742
0.0768852323049892
0.0613567878444806
0.0693013967762164
0.0628421767282761
0.0703221636699832
0.0744427821411728
0.0747609959087084
0.0814369447665494
0.0796713039208082
0.0752623511362423
0.0862567376996046
0.0785806328771931
0.0938882342605294
0.0961390274801332
0.104607010836039
0.0975654333490192
0.0998650287616611
0.0990462504788131
0.116608110948851
0.10210287343683
0.111212659280485
0.114390815714259
0.108718905669093
0.0999056395141878
0.112407563052317
0.104180906509764
0.107167026983107
0.0989879116552693
0.102419681563092
0.106721634353988
0.115281155674773
0.101590520396025
0.114681496691873
0.104353180776191
0.106196957239837
0.104189407073844
0.108923328073907
0.0845686600486749
0.109447495368587
0.105314682151271
0.102249349395514
0.104565057874672
0.104753454981116
0.104368984633921
0.105783628397437
0.096596241810128
0.10550378838379
0.102073872392689
0.105147053214563
0.0791987877703804
0.106805542700044
0.0963567079090208
0.0997663948063116
0.0859297961730033
0.0989983382556617
0.0936073027302652
0.102568212926946
0.0788976092130123
0.101016785551318
0.0919869454676348
0.082793500701175
0.0840544307066288
0.0867604900677935
0.0693765661038464
0.0993302110036975
0.0908716213537173
0.0895803314898521
0.089920924222034
0.0849120701207347
0.103586066272744
0.0983864291805725
0.070687725647336
0.106765852611736
0.0911059288013653
0.0983679273487919
0.093131147733458
0.0898709613127492
0.100326498696425
0.113820468422177
0.089808633537682
0.104167149535969
0.0782388659593233
0.0984923953568193
0.0940095507925118
0.108629898981043
0.100831908055013
0.0959323077444489
0.0742515702480767
0.109424117782298
0.100760496608741
0.141469698300202
0.0942340833929283
0.11430322743283
0.111502159652197
0.126623871579064
0.110413946564978
0.131681433236359
0.116444092121982
0.151042328847783
0.119105168177081
0.111710658542066
0.126678567911075
0.118641825021449
0.108258340668864
0.152774124416338
0.103434389601458
0.159659384258305
0.160495980412168
0.13799380124018
0.146783400769109
0.158096704770852
0.121019601140866
0.149955155354403
0.145258867445656
0.119752590602648
0.114682423600686
0.0951050511778067
0.0953495809431278
0.117770712530997
0.100953452988201
0.147932198593407
0.12504138617828
0.134408679971631
0.119099088196871
0.142395650503057
0.132076335549294
0.136264455421499
0.0877452230487739
0.159661317787807
0.0717580081511277
0.150697958714857
0.109705632494627
0.131270093222312
0.0926414810781491
0.119650336023929
0.0563261119330282
0.173156406866976
0.14455682627634
0.130874626164459
0.0858416908857719
0.188441961083062
0.114450375068417
0.13638391816977
0.0989836902094086
0.0968120293452145
0.120828764978552
0.0421704168521111
0.18232593731461
0.113411745122348
0.0396631907018008
0.213351854994688
0.0513144430314201
0.159097492592192
0.17012044164648
0.161957961830985
0.0382496734534657
0.139913478940895
0.117264309266719
0.180054684171798
0.114228596926202
0.212813585646293
0.107880201735566
0.284767754535544
0.204843815671619
0.283239482898361
0.0678389754793361
