3596
4000.36533379555
650.420452594757
1
2
2
0.0976250498024835
0.105774416497962
0.104143340042432
0.108198881003715
0.104170353982829
0.105817831354095
0.0936405266940494
0.103962202259345
0.0980180441452138
0.110365753257289
0.097001034008582
0.102642184408869
0.0962887376633622
0.100795983717052
0.0912030252695777
0.102814198622223
0.0961597496677479
0.102267352433303
0.0931157316553233
0.107803904421537
0.100109935496613
0.109317358145635
0.101006067990233
0.0992246610883307
0.0966738344975433
0.113483147896158
0.0980069500668975
0.109698504922015
0.101830476267008
0.118447479364572
0.0962643909689003
0.108373001634614
0.0989535431139852
0.0982185233978931
0.0960397678308506
0.098056283953442
0.0949980948253729
0.106904945162274
0.0880555246073356
0.110826780726135
0.107678542319437
0.113004531394766
0.0924250826083655
0.111467661456252
0.105041294812006
0.110402100742251
0.0935067309852569
0.103138011461983
0.094737394136741
0.109869604757053
0.102852118566455
0.107008166142384
0.111139707389506
0.108467892175948
0.108489486777936
0.121713787994078
0.0931568228266652
0.104717145818484
0.0933017656665882
0.108713209024832
0.118402624996089
0.116721789025557
0.101190139303919
0.102650759118802
0.10010850696809
0.108158537404205
0.089497818808773
0.101778658042107
0.0977367523698052
0.10923399785292
0.102441506740606
0.130180508631377
0.108468164064831
0.1090292914492
0.107195052614479
0.103336108851399
0.0893918409772391
0.105281232086165
0.0906618469719938
0.129547797994587
0.114686373565471
0.108761520168477
0.0970004972840595
0.0977933057085951
0.108767206737815
0.118691443697117
0.0900614835168492
0.12341059052258
0.127247417194564
0.118799639402172
0.0917411187090065
0.0986535185280972
0.0911022281511033
0.0981653767184644
0.0895038899077032
0.102712908375005
0.0870945464786178
0.109574665873815
0.0912596315131433
0.111873308301092
0.100054230991276
0.153366501755277
0.126526051369908
0.116077503965795
0.143291556876109
0.110545872491508
0.123109263677664
0.154750708594482
0.106150905828104
0.104010148822948
0.0895352210562243
0.0998660347375783
0.0964135770552287
0.108680572701697
0.0873964189299875
0.143863012481858
0.120051468647111
0.106460104446695
0.0919308823459883
0.0963152211162454
0.0884397614179241
0.170623840585799
0.116714803790568
0.110289099125739
0.107068096703711
0.101474848807291
0.0968599944954007
0.160852706194336
0.100884579592403
0.106047379043901
0.088546696788447
0.106225754600688
0.0742901776303664
0.122029590968389
0.133236740731884
0.105799196145937
0.0917430456152678
0.101255371805337
0.141232019314327
0.164530287581251
0.110622674265781
0.107869076419029
0.0860190581336941
0.123942007462733
0.123476188758238
0.112929349465926
0.0955236091622611
0.134589219017293
0.0872271167921193
0.0920966163972808
0.07657000837434
0.106254444224752
0.106346688916773
0.118045888743218
0.0838729591514401
0.211764531824998
0.122543921032195
0.170291467333779
0.128445844349191
0.105912943644629
0.103334067439759
0.0961646683920026
0.088752579836723
0.0911401785443879
0.0865963495974881
0.0965639586632454
0.127931245195697
0.117094105654699
0.0948848679831506
0.120855200727851
0.129702811199186
0.114946706474691
0.110016023512314
0.178816454945426
0.0916092684083267
0.114863318630123
0.119654928442951
0.112204243508627
0.0793541399951166
0.120977052122217
0.107965196808412
0.105850195922523
0.084563558182913
0.0989967932282896
0.0968731962060997
0.120348484202339
0.0944626794526349
0.109475232263597
0.0877762110054554
0.106822368830795
0.130530197626283
0.174651643725013
0.124559293481533
0.110898151951461
0.0858819237028707
0.0968923563982642
0.134413774496847
0.124964584158564
0.0937753874623863
0.0934719605475082
0.0796577517453851
0.0981186075300005
0.081158535644172
0.102512838364993
0.0795768975032606
0.110010458154069
0.138000919487111
0.113583532586312
0.0903105368880231
0.0938308390536741
0.0949075860066964
0.115389131930043
0.158721781027901
0.125606776911139
0.0992917522125829
0.10438051914034
0.0984394464119838
0.133268693243635
0.097104016243279
0.0943131912703923
0.0869642478558062
0.0987716989941943
0.0884273166128808
0.0921267713949664
0.0854490120023025
0.105740664997149
0.093661818132942
0.10281477606547
0.0948929638049249
0.0996523505814477
0.100844529489902
0.0990589887449195
0.0897108064474578
0.0977639834569555
0.0827346645128375
0.137101068628251
0.116595914435719
0.106715873231296
0.0853546290625645
0.092005694818454
0.0870330157595915
0.0999372706350651
0.089096174486265
0.109090757874789
0.087175830860889
0.123326989879004
0.119726442748134
0.105739020214985
0.0982367976702569
0.0902247732340455
0.132028927911265
0.106026613230166
0.0996237863502602
0.0925296412418379
0.0978876439127577
0.0890394031923182
0.113149653462467
0.141684449280356
0.101916949772834
0.102499759246562
0.118971484932377
0.110526829341423
0.10416793511454
0.102543692571969
0.112589243429746
0.189130393421478
0.117370439482966
0.152363908831507
0.153507499948383
0.121530266209321
0.113305012353663
0.104037934471006
0.111429188786439
0.247846618517616
0.149250597962829
0.10804628443349
0.104496343156826
0.126320434231642
0.0928002956985216
0.126456144297713
0.104150145981283
0.162084998220501
0.131515938995665
0.195859490415299
0.143456178769473
0.107391965170742
0.157452765677609
0.134720776715109
0.104472593287815
0.100378500266033
0.105820289817999
0.100900458031533
0.124147467480829
0.121234573971401
0.12084598143555
0.109844116185793
0.118756995055647
0.137929966116081
0.109547418451604
0.106988026514175
0.114053020024381
0.114921208962513
0.0966967373600475
0.107090204652232
0.1038670295075
0.129183469132704
0.0922601547558208
0.140415563059346
0.162888004101399
0.118960202229674
0.124437009274651
0.143888842379705
0.107326808441491
0.106529308691488
0.102719680394166
0.105706901297084
0.0983730641500966
0.105858798728423
0.111352089350182
0.151519260139405
0.10148085956389
0.118601732520305
0.0962565781226143
0.112115292955421
0.103157265779891
0.116099182622273
0.100114084180978
0.115652547125452
0.104672337958757
0.123251407697864
0.139617079595064
0.150901854643021
0.111110509383567
0.201198019648892
0.125772184235695
0.12045110013382
0.111898436970539
0.118551633246179
0.112350893776211
0.11553734608905
0.111513334946675
0.120546921439967
0.122291461838713
0.145483706586311
0.114708970638132
0.148178025012572
0.148043123916905
0.241797494799309
0.183013017699336
0.14060398365752
0.123802576239171
0.120130957201771
0.186976172425924
0.158105679629957
0.181611120672067
0.161260776774298
0.130486591631137
0.146922796995437
0.116109690544114
0.139603127939208
0.119253155585887
0.141163451267761
0.129198426408367
0.148497817996502
0.134313062472016
0.152468848046768
0.133255683279152
0.182598832911008
0.174145457508768
0.161444389910298
0.150720455546477
0.161028564227783
0.143490142593203
0.217135265552532
0.172785971089184
0.273205826623919
0.178130711293588
0.243840849313125
0.204270486395905
0.184104329459782
0.161435550847675
0.168966338888461
0.172185105282825
0.184052617367359
0.175782447741134
0.189944689979803
0.172117299835558
0.194820846038545
0.172658129948294
0.192771473435408
0.181828941526478
0.202655032793179
0.22083225809173
0.196244760150954
0.19911912206664
0.213308681122732
0.245452687670887
0.273709277847028
0.258763159588511
0.215286294763989
0.223018373746607
0.211876460992421
0.215489906463646
0.218487303756027
0.213844538420787
0.233941930874631
0.232984925824767
0.299640214316856
0.237574382113514
0.287059448739878
0.245700330530249
0.23633682050288
0.26885948337867
0.271159612130727
0.275590278584124
0.292532916684489
0.251426581555167
0.255090345453244
0.304731221607988
0.289915907307604
0.289310316060786
0.304084736317211
0.24005951141219
0.276860248031749
0.265214033145555
0.295371644901567
0.267097727846245
0.304494225992957
0.281175327510272
0.304576307244391
0.307897797149543
0.305586239553224
0.288995543731471
0.356552609888554
0.297351570381018
0.326082756299614
0.309842761953441
0.31534567416208
0.322478575397385
0.317225546941363
0.370517506360725
0.364985020570755
0.363771048178042
0.372862631177055
0.323804924183175
0.34616839888147
0.339453702869007
0.364056401002962
0.324634190515877
0.375338309780154
0.359528928897875
0.361872440375966
0.341607169985439
0.39740060186383
0.367400072910208
0.380581303825689
0.359745477514769
0.382639184259626
0.36938373897495
0.402440887059819
0.372519834577209
0.39004732386069
0.440765346219078
0.468617002503192
0.438645584430821
0.478421352469017
0.402435482616114
0.424741141365586
0.405196392074716
0.452124585456122
0.429309944462738
0.474271732460122
0.421508762904893
0.458179635712641
0.425151638034262
0.467420635026898
0.420837845523921
0.492512384227276
0.43573563277537
0.485388252321109
0.462451279917841
0.494976675758064
0.472590501169905
0.48430826805666
0.481123062082384
0.515400436354646
0.470131973470524
0.517636564004463
0.494977059110986
0.526136953273271
0.511541867268868
0.534425113719295
0.500817548664524
0.522593143428074
0.498840114426883
0.553655711478941
0.505023819091352
0.543781045344922
0.514929521045024
0.558032115627278
0.521817928863834
0.557179520037936
0.523849548852576
0.564732420828222
0.573550217125804
0.590117865631969
0.579893758901941
0.617286362972642
0.549593775111036
0.569985251170044
0.583025481623758
0.637871987936318
0.568259317494598
0.60789737919456
0.559477137221121
0.640558639436223
0.571707645918778
0.6594613353357
0.63472542537611
0.651122310915882
0.60284307667414
0.662227712929504
0.637812658550173
0.640730037260972
0.654783489674414
0.686146818759363
0.647930897342685
0.68135806940257
0.619361683703895
0.688771597146826
0.665635242028232
0.728532713241088
0.650868954103369
0.73543285737472
0.660256112781533
0.699920081448285
0.654914036067803
0.728632774641484
0.662797172016898
0.716693979804521
0.683715174709277
0.706372568059555
0.732120754834664
0.772115173764281
0.690020516506102
0.758205317049517
0.677226694626723
0.803484004911809
0.719523307822213
0.781219303473837
0.736513657909284
0.789649122087942
0.727267191861622
0.793266631499624
0.73248161361263
0.799325275517032
0.733711793868491
0.831445400169931
0.742199399119752
0.847009440056241
0.775405305576736
0.840693989045142
0.757240699996721
0.812053347833074
0.767096807855657
0.844737184098799
0.767798325594967
0.807703008494384
0.757370584697158
0.827282712374639
0.825841243374804
0.861032047615298
0.83157405718772
0.905818686637221
0.851879731103681
0.904199654216953
0.843203577207505
0.862747132247041
0.825197700419396
0.91215753238368
0.855285175733536
0.906191848158398
0.842320337098292
0.909968837491
0.843509619368114
0.87523120712716
0.868883748024679
0.977452437168388
0.843774846188604
0.983515392965845
0.866736266454903
0.961197110867523
0.945002971335996
0.942363096128548
0.880308873695976
0.964734218439872
0.89553879602316
1.0112084559291
0.881764076010948
0.953846221119031
0.939474958782786
0.93533353228059
0.894637526077625
1.00073713963707
0.961630613586705
0.966852032739746
0.990982041215189
0.975283248030401
0.963684413020707
0.953336931981116
0.90541902218362
1.02965456025549
0.948003644398887
1.04033187328039
0.992821018636952
1.06534502643587
0.930942984521404
1.02676045513502
1.04621953890116
1.05775012876042
1.04344669329958
1.10494511036858
0.968123070532985
1.07289603817717
1.04916954473745
1.04708195780432
0.97241191462245
1.02466794592052
1.00539283118165
1.047851225391
0.997766036725523
1.10545087643692
1.01317945736549
1.06714292631932
1.04059831577698
1.08655776344393
1.0277205227806
1.08936726195111
1.09238521582813
1.08489794895547
1.06905084286424
1.10570205591219
1.01998291050364
1.08053353207196
1.03901735235122
1.16676404994989
1.11573843833854
1.12782457355543
1.06470891169552
1.12789464967044
1.05285109520305
1.09944917637981
1.03820988845489
1.13059878120577
1.08181854638337
1.19557274856214
1.11992962781222
1.21017265641974
1.16258177987058
1.09140125873332
1.10883893066067
1.15911624305555
1.15861884534064
1.21028947205371
1.10908366302362
1.24290170933858
1.15913829339682
1.18854746014974
1.17131982290736
1.17005891417644
1.12906700678949
1.22108739904927
1.15399713087256
1.17576278189252
1.0860263204457
1.17816461133601
1.1647910144201
1.21767261680199
1.18855931845929
1.2403240069778
1.16386846335649
1.21283092147156
1.12131853843056
1.26631691996961
1.18417172857447
1.1467649384294
1.23335282415837
1.19134184007961
1.10813623725601
1.19587646442551
1.22047346498601
1.2671412904678
1.16639983817565
1.20000845643686
1.14441171060247
1.16430355440401
1.18610446501419
1.23882800912976
1.28899783692946
1.24628483215082
1.25609170728048
1.31108921402162
1.19159846919859
1.14561483653935
1.20689774758229
1.21498913289146
1.19739673552048
1.18888425077629
1.20208096709682
1.24244017781314
1.18597883934741
1.29475303840029
1.24253821947703
1.28483486477551
1.19217547107854
1.27053320341433
1.23442168186663
1.21226376782878
1.17893477150415
1.22670321086698
1.20951187803612
1.31552380188466
1.17614066298756
1.22379964107601
1.23764284975906
1.27498792337038
1.16520119004123
1.27544664011491
1.22061773538342
1.23530889491926
1.23929238488049
1.32992912294646
1.2364752982446
1.22949827774759
1.18628441474662
1.25289019861596
1.26886009109075
1.22473640108757
1.19679217760856
1.29921277810313
1.21189723903891
1.27281990288204
1.20180426950313
1.30670721662404
1.23737303238141
1.21631108260889
1.15398330640867
1.22742395516974
1.22299706043022
1.30047711956089
1.35160186530278
1.33851910692782
1.30127631190255
1.31789755305734
1.24338403931299
1.27215862634761
1.20577700412726
1.26431460989566
1.21298355335746
1.2446546636475
1.25168259624685
1.26898532428461
1.24327648381133
1.34398157876104
1.29358693122937
1.31675177722529
1.31946269262042
1.31635607466837
1.32055618168367
1.27204206207625
1.20561075517166
1.3107470809994
1.18819433388248
1.26534860853202
1.27008057927506
1.3050033038822
1.16963406831286
1.22595559849331
1.21222745640352
1.27220207705009
1.22057949384451
1.25994707900696
1.2320344491684
1.28610869942799
1.29188822879866
1.3455502785161
1.21891888626782
1.28515357981139
1.26062325188624
1.31121581061024
1.25175118329715
1.25542435492766
1.26878062826133
1.21991734482435
1.20694058397946
1.28137692939909
1.25053342928765
1.32126411011823
1.19727099297638
1.20365709730312
1.28362280745056
1.26956817054282
1.23708533056053
1.22949809513028
1.18859609039788
1.2155698522188
1.18176358929264
1.27894960508903
1.22193218003106
1.31259371479411
1.2380576706046
1.27195693906514
1.2836480976881
1.23118123442207
1.29944007866836
1.21331395656028
1.23439019886767
1.21303042961282
1.18898044134662
1.20997045745836
1.19558392384434
1.23164040381326
1.20439172339386
1.2162832244982
1.23714466355637
1.2301694751355
1.20758429741172
1.20591428454094
1.14192859397425
1.18329145063388
1.20923737783183
1.25009321719718
1.14599622717806
1.21072489406621
1.2253898235663
1.22456317931279
1.15545253076848
1.21945205386837
1.16292181500628
1.15968122980108
1.20288039171618
1.13280968548073
1.14198067244563
1.22594040960074
1.18730984438114
1.1594882909925
1.15831768531806
1.19317460551581
1.12582837375612
1.17549053655549
1.11323466027506
1.148045547952
1.14810465485229
1.16211498364519
1.12796890750945
1.10033133930946
1.12834572280838
1.16972644830555
1.12095045799708
1.12447329915422
1.16042284786723
1.17231546647169
1.09767084844802
1.12168010668135
1.04962945509534
1.12205849814626
1.10467992292773
1.0920454784074
1.10993722432859
1.1240154319283
1.06403686066601
1.07112958003062
1.06169367544336
1.07544579377151
1.07412443393981
1.13991408893564
1.08007599795264
1.07741654900838
1.04633212716209
1.05393294482468
1.03946286695595
1.04172486592645
1.03177634420292
1.04853506133768
1.01399517769152
1.05152492672191
1.03686430212143
1.01127841351308
1.02003014520139
1.03654400986067
1.05702627756846
1.02553275505763
1.01091563563945
1.02550008694985
0.982066595501752
1.00190530118511
0.979944534444116
0.964753580533907
0.940927551858764
0.993583382016
0.956176560693186
0.959077207819778
0.941373756281381
0.967562376794405
0.943076986345806
0.95808116233203
0.952087842028882
0.94274183520557
0.933116182338287
0.965084303919763
0.906546785221231
0.925089620835743
0.929285918763973
0.914055931922811
0.919065866883378
0.928699669276636
0.914102473939982
0.912138398977539
0.901923162212478
0.904891634748595
0.873231102408697
0.894915116802445
0.858740197367741
0.865886064796854
0.858244664446206
0.867707813059256
0.854693547532177
0.882271954354246
0.860923160159581
0.850138712768238
0.855905935286459
0.853198422966664
0.816449858312918
0.8346246290137
0.826173825298269
0.849541360922219
0.822353505925313
0.817437376499732
0.809281242904228
0.835145838518601
0.819124626755907
0.803448201892706
0.804536082297736
0.798352500643526
0.783380327519324
0.78229966510495
0.775186579119246
0.779587363353251
0.771220919936881
0.769051806844819
0.765104083293565
0.771024176486815
0.74781116098601
0.768304860034579
0.749583051253133
0.745034518868907
0.735850344738508
0.742042985211721
0.725514344633925
0.731733629740051
0.72258261186477
0.729678716787939
0.723028263772715
0.729545363740348
0.707080268052926
0.726474367969584
0.714159741664986
0.698520729938474
0.699522153604882
0.700210365561546
0.689019102202403
0.697871681314226
0.680928828802262
0.665500691138057
0.669365226852054
0.67911170900201
0.665017170991854
0.681530149614498
0.669171634285159
0.663581197568608
0.651956329239046
0.647519640691368
0.638903806080343
0.647042847292432
0.638642636231469
0.642979187371686
0.619792593019781
0.626070388407695
0.630072042042222
0.624249628346914
0.616653001068963
0.629310763339907
0.616731329476827
0.623049854171571
0.624223245544957
0.619368541712316
0.602876286919395
0.607974133615457
0.604971619690825
0.594429921103143
0.594768379033337
0.602925847748554
0.592415970291611
0.588501230247485
0.581864241475343
0.587412056910215
0.568068706939997
0.567472192059325
0.561073153859127
0.567378668995689
0.566194665428479
0.565320620094051
0.567820800133414
0.56365678964305
0.55045720160803
0.557938052121073
0.551345771766412
0.538814769205822
0.533448400180776
0.540596187509108
0.538396294915506
0.535664600723242
0.53199199174428
0.532784554997544
0.519472076487457
0.527725050321931
0.518697011077333
0.523045361375478
0.519860069220374
0.518353776432049
0.513515611996382
0.51070851257256
0.500546793539899
0.502375439411295
0.494424173897265
0.498715662773686
0.497095784687136
0.493343728563476
0.49167841822095
0.503737946391475
0.495032715382741
0.488897402768463
0.471408587232162
0.477355753299086
0.480956380749446
0.47715369560048
0.474876791268456
0.483053508245472
0.469188002414788
0.474732974023541
0.466434119505865
0.46886087908857
0.464916743598894
0.462551954277588
0.450476753546078
0.459983451938602
0.462046518559408
0.454413974294022
0.452349646594131
0.457831239052438
0.45409459315675
0.457223765439615
0.449441236206706
0.45297182194283
0.439010197249853
0.435756805079681
0.443740454540379
0.442868929393885
0.436574675535366
0.439493922074613
0.43914768931692
0.442833962978092
0.439304536507928
0.434193009614663
0.42642491753069
0.4337319066676
0.439487127653433
0.430991409083842
0.427431211843962
0.43031149415228
0.427240167859384
0.442051389251066
0.429120598447353
0.438725101758449
0.434235655279204
0.437871646457368
0.437193701671011
0.441072299360132
0.439647847733724
0.431593101610902
0.426344520313715
0.428228953062743
0.428387896672871
0.437998851344524
0.437161246644394
0.44851460963913
0.441021800829884
0.440388450127303
0.442715087988696
0.44697988217001
0.449670899817394
0.44710498626477
0.450551304882309
0.459197219289108
0.453152741661442
0.455242859863191
0.454627358638082
0.454003417724743
0.457509348547669
0.467014842428536
0.463434409977924
0.468016255684168
0.464372263908779
0.467892734796362
0.475210217043196
0.471173041140289
0.470582615275431
0.482304843079492
0.480828989104053
0.483467764922858
0.485043765889057
0.494326161669675
0.491390718160608
0.49555033775026
0.501109231074786
0.50854062542255
0.511832165270454
0.508177098590708
0.509616884802545
0.518596226538457
0.524625680097152
0.530085556008221
0.531877261012872
0.537907713152416
0.529972645126855
0.546437654592695
0.555649903720426
0.551360214808616
0.560517413333684
0.561976936633158
0.561633455820422
0.577231234851634
0.563351151486353
0.572741259494528
0.580580904132471
0.577182548941915
0.574973175051052
0.574676278928781
0.576272287386736
0.579600278781115
0.595359061575282
0.591072964086998
0.583225451994597
0.592257521387509
0.590421175229135
0.595319025096138
0.579423973158899
0.585349068779544
0.588162806912698
0.5872463799809
0.583251356322956
0.571875708875684
0.570315339930319
0.576339502262523
0.573034056159971
0.570583048511941
0.574605598404648
0.566134496204488
0.566342496321126
0.571289495685122
0.564615456904334
0.563976287372737
0.565669668769736
0.561033253801122
0.56524153416529
0.572461633666688
0.567135937627529
0.571073229837885
0.560862533209294
0.566271159090197
0.561876851813566
0.565284995071179
0.567033322266127
0.569478648937095
0.5688290874543
0.561122576183979
0.562750602523634
0.563103471687557
0.564663390640745
0.569179025995668
0.560386017524825
0.557712231283179
0.557345000111134
0.55612040589296
0.555904532704649
0.566984331956003
0.563623345522521
0.553814141942552
0.554534571562448
0.555166786992417
0.551493202176102
0.53757336357887
0.546094852558885
0.550820291789896
0.536915421617071
0.536499295130758
0.53454829082634
0.53482208764772
0.527297089082878
0.533808179362112
0.521356730386583
0.514144497211178
0.530081643183284
0.523194884930575
0.511154023475987
0.506126428481276
0.504588008174155
0.50136301942501
0.497165748193354
0.500731864025624
0.50356203678745
0.492941891957041
0.487423737131888
0.478700916148001
0.485440396329765
0.486258062785426
0.476108720319022
0.472389661939212
0.471863364836877
0.476805854548239
0.466243219969827
0.457669335994539
0.455025010746842
0.456063260680323
0.457351377287971
0.452113100485629
0.442768414148899
0.443549782296691
0.446279220123331
0.443663507646448
0.441776192770295
0.433375668415162
0.432883639803341
0.433456912995644
0.429874281929471
0.436406233262049
0.430752593223275
0.424226257030232
0.425163922685801
0.425785040178322
0.420563621101718
0.412425055345629
0.408172945351308
0.409634121579788
0.409416647877925
0.414717545387301
0.411189968931905
0.403999932412931
0.399639998324281
0.395100975333547
0.395630307556027
0.396440564113891
0.396704260766884
0.39474344764496
0.391230286557043
0.389471396101012
0.391389078416694
0.392647892970349
0.390631904086902
0.380524752725236
0.384181346936506
0.387681860140621
0.37858697930706
0.378072450486379
0.383736374680946
0.376789523571776
0.372291159925026
0.375739790134365
0.378501746692563
0.37323862866011
0.377020120908079
0.369531471601529
0.365819628322121
0.369511371554608
0.368019546864794
0.361191024171605
0.361864514925979
0.363777363214492
0.360656409927355
0.357266418052852
0.361994661732639
0.361034252970963
0.35758229015175
0.356653720333436
0.353885005703421
0.356379875029651
0.354492180236171
0.346743765410905
0.353482067148709
0.351256867984094
0.352746637514509
0.350988242497799
0.343105857761515
0.339510573710012
0.34723485360641
0.343931699062394
0.345039002774602
0.344057191549043
0.343800174841163
0.339998608622661
0.343153076385725
0.33777178925389
0.341027907969447
0.339413078314594
0.34069900069906
0.341398252927571
0.334948430834721
0.333438848672801
0.337676800059179
0.340703022756883
0.336886948314337
0.333162544995247
0.33214434944156
0.33174724184525
0.331665699409907
0.330394376779152
0.328275362809856
0.325542694916865
0.331467215502054
0.330215521263274
0.32702914435208
0.32492803576362
0.327406079554577
0.326706671018757
0.32693664640736
0.322044388993612
0.320925027612655
0.322477943591451
0.325223867347422
0.325989348634
0.324524533815024
0.323498503245246
0.318057230469478
0.316113052044059
0.323533186022761
0.321886497091455
0.319031149117036
0.314968982521679
0.313991994684124
0.313768255619666
0.322372319938657
0.315118529621829
0.312527529160072
0.312128169522055
0.310955388336276
0.311843828001253
0.308187924008675
0.312594850928768
0.31727113182543
0.309429155177227
0.308841750429868
0.309527899162205
0.310877380850834
0.307167960426094
0.310109669856178
0.312133708354872
0.313804997545265
0.30908725025746
0.310663879290526
0.309552150051721
0.306899012372694
0.30867623333275
0.307715580420693
0.306056175194541
0.307163974026501
0.307866263331408
0.302589337661097
0.30455681008552
0.30389407864085
0.303349712470778
0.304749025793191
0.303115839461034
0.306240852624077
0.304053709991583
0.302044326263341
0.304156434178219
0.301384365063473
0.298639042164239
0.30334379442038
0.297706661612785
0.297321934025922
0.301223574986617
0.295897109471371
0.293175737000838
0.297842471133583
0.293049794116182
0.290878904470334
0.293131819046471
0.293486610043519
0.291979027307461
0.294131595975482
0.291932686727514
0.291936995660531
0.291746197452013
0.289627263206219
0.28927234955532
0.287610567144205
0.284341194774621
0.292722335315057
0.28682826450609
0.288350913933527
0.291397080902246
0.283279892123584
0.284229488244392
0.286307905354049
0.283310078495708
0.285241315277772
0.286750249206223
0.28230579317591
0.280664902597663
0.285478727985174
0.280626351634386
0.281196191236087
0.282017640921052
0.279396787115867
0.280497311714437
0.278963726195173
0.274793986776239
0.275166361899969
0.274603410112911
0.274389926948728
0.27372642349909
0.273341118577017
0.272940106312585
0.270049002215033
0.274096779311958
0.271280308132503
0.272309947001314
0.26746684959481
0.267917684873989
0.267625035460869
0.269972141493391
0.267909293721769
0.266880021381612
0.264900674124925
0.263967943486246
0.26114056038142
0.261969041360517
0.261009176672346
0.258594983471921
0.260039827920665
0.264809422232953
0.259673238838705
0.257384212728765
0.261102265220632
0.255062248112269
0.253682439861082
0.256795771251563
0.259897692769117
0.254163817552683
0.251731902617036
0.250036552461401
0.251076194075557
0.249987403178862
0.252105432302564
0.249007708050076
0.246545595083578
0.245693311725374
0.242796083424398
0.247557988319316
0.245089636165426
0.244273544275558
0.245291266240017
0.244806704762332
0.240678670090907
0.244356052700317
0.239049868964042
0.240869966896244
0.240364676837155
0.240526369741217
0.238776376106617
0.24156062291587
0.241835777195628
0.238390248273163
0.236886679506989
0.238128363694132
0.237149987495348
0.239808873093953
0.233896120410157
0.233706179756339
0.235070743601544
0.234427462958235
0.233257172136425
0.230318867325519
0.230754372162336
0.234087963880645
0.235177036938898
0.228499447576663
0.229426627139847
0.226720027113987
0.231490873495196
0.230121610695514
0.228613144527549
0.23183191282841
0.224101107265417
0.228476426613565
0.226628451552892
0.228962719236181
0.225876485225311
0.227882162166023
0.225338976472497
0.225828807712436
0.2256386614791
0.226185647390617
0.224798963781357
0.22253750785723
0.224767877719994
0.220857133491562
0.221606152731855
0.219231079299086
0.222974520626748
0.218679149210654
0.219264715089966
0.219288912844121
0.223282452757027
0.221580236219214
0.221052786303552
0.21844540793133
0.216502772324045
0.220621633649889
0.21813856897562
0.220375676114171
0.222035593652424
0.21480933265599
0.212788933394429
0.21571726890912
0.214548739689331
0.215796242572925
0.220104414094752
0.213010222524513
0.214923263715918
0.214967261766744
0.219629543499844
0.214264477438345
0.212031818994631
0.213686665267622
0.213404875437626
0.212847494240638
0.214215840670043
0.214945566679628
0.216907867177613
0.211901168995188
0.210089785733016
0.210772825753588
0.21082921689032
0.210021752917227
0.212449783233157
0.210877509690807
0.214789481903892
0.21088323560667
0.214550645566802
0.211641839522829
0.209149487771797
0.208849080732093
0.205120137877306
0.210307956563311
0.207615231145071
0.207134960388889
0.208313447813536
0.209143021194396
0.209635932858033
0.207951281312799
0.207202861629189
0.205089563383247
0.206075187151842
0.203157557251216
0.204935980479101
0.202818468610153
0.203793616090573
0.205017616245222
0.200467374200238
0.202690357011517
0.203187849037661
0.205268089070695
0.204194177953311
0.204207953129196
0.200604717540231
0.199132689333704
0.199478275349189
0.196702458225878
0.197357891229403
0.199763921651304
0.19915164481337
0.198477857378498
0.198974641393774
0.200148399948374
0.200195347939212
0.201748375726533
0.200410922699417
0.196254079997158
0.194736613690438
0.196897863885313
0.196434635777276
0.198675787739572
0.19426554755461
0.195321160647393
0.20007944731912
0.194455242562113
0.198235639156084
0.195325611298059
0.193316323038004
0.196654174518128
0.192085400936133
0.196739600373275
0.192866828180956
0.198276921290127
0.192207189287947
0.196900679412539
0.195470968770813
0.191372071160243
0.190043616318142
0.196261773297049
0.191661243417247
0.191648398178232
0.184966766971093
0.192499009835959
0.189133310194633
0.193175877420634
0.184144097275587
0.187553675323351
0.185921028782741
0.187570931969751
0.187031236885026
0.188901660757085
0.185835890588812
0.185214447088026
0.187596643283651
0.186750431708491
0.184256077221424
0.18457150213545
0.185113177027945
0.182564222319966
0.181380954540499
0.182649959573731
0.181421029853102
0.180575974195181
0.179854347062896
0.182340655977178
0.179756301458613
0.180967632986839
0.177841336944352
0.179083546737078
0.179018416915273
0.178119080953008
0.176557280767677
0.176596306906135
0.173954315563189
0.176243312062163
0.175972950259551
0.178570718368861
0.173910493139264
0.174417643697629
0.175096643098572
0.175476503811064
0.174187487859509
0.173039325224204
0.171861015251981
0.17503416118954
0.171551801211424
0.172881351835621
0.172763111301686
0.172172420889137
0.168302429377713
0.171560594714484
0.169717579532934
0.169532880794011
0.170584810841647
0.171106262946726
0.166391468533957
0.169904979331024
0.168287531502351
0.167873737464375
0.165143739005084
0.167788335405873
0.165075040893782
0.167490126530309
0.161597917923935
0.162670805783867
0.162097239140191
0.16349776475192
0.157692234415304
0.162444709458001
0.160320338297664
0.160207259664642
0.157094764831999
0.162007587971156
0.159446378024933
0.160519767713388
0.159065549913864
0.159985901727229
0.157865006652581
0.159629258840536
0.157283465472177
0.158590776045708
0.157485443108789
0.157046134073025
0.154663526418663
0.1548241363952
0.154790492406032
0.15522387188664
0.151895897706209
0.152705933006956
0.151594726211513
0.150675872493455
0.153733416422597
0.153028708230885
0.150804756059551
0.149529879883936
0.153061831082905
0.151982558905376
0.148999178426092
0.150628137680879
0.149223279824934
0.150777317998223
0.148454716815687
0.151077782507201
0.146240792770912
0.149717008378624
0.146486604352574
0.149110565407847
0.14945495115915
0.147159447460333
0.147322711508007
0.148063518080661
0.146194106651151
0.14827512070279
0.148334966725204
0.15046726578741
0.143112979890758
0.151789821534464
0.146290407278522
0.153462816129145
0.147715665881946
0.152582557367486
0.149824879376403
0.155205341179181
0.144824464081804
0.149072487800866
0.146622572006537
0.149321228758578
0.133415253386695
0.139131671767269
0.139728648775373
0.151814922419474
0.138334029392608
0.13584898458006
0.142677361583147
0.148706054581991
0.133621102899829
0.142745383675963
0.13711865694863
0.140860096769944
0.143123186453187
0.137537546171673
0.131907173116308
0.144524576386756
0.13417888767515
0.15078145467134
0.132694414104893
0.146572814308869
0.138055631242466
0.147074624342565
0.127482498113396
0.149317616036037
0.128389053792331
0.140835438834105
0.127722945381293
0.143121407955925
0.122403920644309
0.144676866798244
0.123472141780633
0.147207512173444
0.12104326347895
0.14842499513706
0.124637876783032
0.151882950498292
0.119713346332679
0.148322930439413
0.110873228597008
0.145800561383761
0.119213675096799
0.154710443391064
0.125075998540837
0.157452173187665
0.116840251929092
0.141777209095558
0.12737022588554
0.1532270662609
0.124851780775962
0.137837398200368
0.136738824467952
0.15176926663864
0.142007414365976
0.126265609011579
0.152931153724111
0.125994764265297
0.155966957430212
0.116245847984542
0.160768838167171
0.110828631927971
0.159442750747009
0.119514963140012
0.15650221071494
0.11989731239624
0.145831860131576
0.126478548303474
0.13754803446709
0.13290388706429
0.134600372625871
0.135295535670802
0.134498690213168
0.130797406669766
0.136626681108158
0.13041749066505
0.136297925306638
0.128242100703144
0.137000967079459
0.127949129275097
0.135490766906177
0.127430481342878
0.13141217441872
0.128353029924521
0.12994667586162
0.126753450363745
0.132108393512056
0.129426236437853
0.136503235721605
0.125489992124633
0.134254504649959
0.12829449346391
0.134151804712241
0.126017544262318
0.132425605330829
0.125939756026606
0.133654906907982
0.127028969183876
0.129450479387488
0.125534475359752
0.132139956666583
0.129005664064072
0.131218375383246
0.125063754989532
0.129574435523521
0.129465347320876
0.132898294856657
0.128173202108745
0.132498511269507
0.128857053412689
0.132181733604596
0.127912286729745
0.132538800733414
0.12776904122943
0.131723622840721
0.12849833517324
0.131488673060369
0.126481009793632
0.132345420741816
0.126318284402201
0.134044589089131
0.130933982902174
0.132657814144055
0.127317634541092
0.132796205240464
0.129160442437703
0.129794454435009
0.128493930166654
0.133801217641924
0.12866601892076
0.129077685369636
0.131098635479925
0.1317784898246
0.128945629992774
0.130230673785324
0.128511933843301
0.129715732640637
0.129148867993562
0.130274469699536
0.131054167363966
0.129316052886815
0.126315002103907
0.130852644760953
0.131353019275861
0.131247545782373
0.129412181142979
0.131067161551276
0.130275323945261
0.131582519380509
0.132418934162072
0.132085925725114
0.128786411686787
0.131269368016023
0.13020116875698
0.130628352920933
0.127696152701797
0.130758829100043
0.127835035307182
0.131131505470269
0.131465705654136
0.130212194683612
0.13308143041641
0.133611529373002
0.131995187396103
0.133070016921226
0.131132010773058
0.133778084426538
0.131441530713619
0.131288739784297
0.133887849726482
0.134381654515905
0.132635030892712
0.13314379644711
0.133624612868523
0.133342169591225
0.133250669694952
0.134226072075385
0.134187413051536
0.13438048489237
0.132882000440833
0.135593457319348
0.13320909331948
0.134073035462268
0.133685928850017
0.134527046936553
0.134638613413113
0.134746429076075
0.13644331892338
0.134928542874218
0.13526863782364
0.135263690289822
0.135081835630026
0.135269642176523
0.131893614868643
0.1378617051886
0.13598682633075
0.137513676178884
0.136099903129667
0.137148543417745
0.134703185147226
0.13399914264245
0.136817821858575
0.13925363474644
0.138050258884705
0.137200579810227
0.137726587882409
0.137647437629779
0.135791890506724
0.136083651622012
0.132996453605787
0.137814794234158
0.136966566246929
0.13960500884752
0.137948658393276
0.137156706515829
0.137378161293501
0.141455352474125
0.137583717355782
0.138145228451588
0.138315406765161
0.140516165651426
0.138957608209161
0.139875283171477
0.141354853087515
0.140253862605645
0.141724322117055
0.142553599640313
0.145190004640062
0.143930836863162
0.138104259951392
0.140997006033897
0.140342660066348
0.142927862043667
0.141709659251295
0.142931040618887
0.141966012607896
0.141578221468492
0.139626810763906
0.140472575684231
0.141656422651851
0.14218772047201
0.141137341368958
0.140224886998087
0.139252364930432
0.139789503809143
0.139491575406046
0.139962017526886
0.139245506629877
0.139457131310634
0.140495410221223
0.139555261156968
0.139060256345359
0.139289707028554
0.140271171077986
0.138963187334257
0.138663918965369
0.139625797850331
0.138488471019059
0.137609109506739
0.137136181153429
0.137256281377602
0.139050608770173
0.135515846232606
0.13810773847269
0.138245941128738
0.136260258347956
0.135852020356118
0.135109541944094
0.136213838592547
0.136996563190922
0.136371532030433
0.135587498229463
0.13774020143878
0.133945584012655
0.138094293343886
0.138543547788462
0.136291010685185
0.135541102600745
0.135374372065767
0.133990865350119
0.136528322929351
0.135547463776995
0.135651991500233
0.13526085630022
0.137492519637177
0.136301187867293
0.131522992386877
0.133763360084547
0.134535147187913
0.134271841034988
0.133732425657826
0.135539731003052
0.135277935777564
0.13494816026511
0.133711701051067
0.133919051029407
0.134645222191514
0.134143993543874
0.134472242813387
0.132583981523644
0.135112525431009
0.135327317340208
0.133812562824903
0.13233374113369
0.133541189769069
0.132303443762524
0.133730240337537
0.132176885326283
0.13093772984868
0.132759031842034
0.131663605305368
0.131906377556046
0.132611096024024
0.133167204287646
0.132743483691974
0.131625092753572
0.132550908500606
0.13013698661081
0.132577772410173
0.132342614260033
0.13170616836283
0.129426834901864
0.131121555676588
0.131298253042
0.133244524573427
0.13076537170262
0.129038357707169
0.130784279753871
0.135092838362285
0.133483887590318
0.130249247675597
0.130817648584592
0.131116553407756
0.131495414352538
0.130509855556092
0.129078762721552
0.129185884636092
0.12989161730517
0.128533005287244
0.128297516862706
0.127098147039733
0.130750505243924
0.127589250573501
0.125985312110408
0.128112338278176
0.127696585418821
0.127796124351937
0.128321453604413
0.128516004943918
0.127769973799537
0.126805925278593
0.126533608407107
0.125212051954544
0.127370631088932
0.130267906182754
0.124575339955955
0.126564196041849
0.123980277206094
0.12415098364372
0.123702005140569
0.123403019680039
0.126402125324224
0.12352292036353
0.122682018966828
0.122947252836069
0.121302593563441
0.123840234809759
0.123615956800713
0.121265991059828
0.120926864628242
0.121778792968501
0.120354977052244
0.11984398746774
0.121028399994616
0.122386552592419
0.11769822903837
0.120244028849404
0.116563726909339
0.120554528638605
0.122457455859599
0.125924758131637
0.121283928584915
0.114084442922898
0.115658063730063
0.114348156064835
0.117107944747943
0.116520497462538
0.114552180124688
0.112425487257915
0.114300358244565
0.113151438898503
0.112870252488739
0.112735026221565
0.113983340376055
0.111815005530496
0.11210500182222
0.109663106053758
0.114399917038173
0.11114461710476
0.111820000239765
0.109518104288658
0.113073654403091
0.109854990381489
0.111096813996874
0.106677570603277
0.114859024452739
0.116355306347442
0.124751854454561
0.110458949566173
0.109892007364942
0.110803926219354
0.113834664669587
0.107542999895762
0.110620472057979
0.107775163709089
0.109094796128095
0.10917762667788
0.108782697468565
0.107608527229168
0.106944171506326
0.108495600438743
0.110504808661393
0.107944187661011
0.107041154034618
0.105232556831154
0.107898925672492
0.105267067423988
0.106304069385409
0.105177917184562
0.105523585489908
0.10494231242894
0.106304153732757
0.106280975627069
0.116075711785551
0.113055933478674
0.1072803884517
0.106855268554372
0.102062760961236
0.104584568348864
0.103479594588314
0.105606536336388
0.105242854590188
0.103364368271802
0.104406481449891
0.102916766172319
0.102786479504258
0.103958948343884
0.101529648550976
0.101845744651974
0.101254060381496
0.0998300680806081
0.101910386852045
0.103852009135363
0.0992159321149955
0.102424478703934
0.100612048593633
0.105837426824953
0.101189893790572
0.103230642810909
0.108774370496972
0.126908465325088
0.104960827852882
0.101841117008941
0.100995781677547
0.0965331668361813
0.100589306770821
0.0984855987041241
0.0995195121783459
0.0962609180878379
0.0981269370888533
0.101205003441386
0.0997321460511958
0.0998555842303368
0.0986942791954782
0.0959897042386597
0.0960185831361155
0.0954332274774047
0.0994843542556496
0.0965313174283746
0.0968005460660806
0.102462909578302
0.113921952601664
0.10820539471027
0.0941926689752169
0.100038906021829
0.10207248431324
0.113811292232656
0.112403365969169
0.0892926836019438
0.101292141527208
0.0895995759252465
0.0972987468063791
0.088399276476464
0.0982089176150677
0.0938377438642802
0.109488049555537
0.0951819781182786
0.100703453685277
0.0933678240641973
0.0953684014199944
0.0930870514477033
0.0936576907413984
0.0890383408546865
0.0913380221818753
0.0895735213364609
0.0923925906147597
0.0911330643404634
0.0931562002550638
0.0889339035541986
0.0937386228770044
0.0972711590313918
0.107771410648379
0.0898484199145584
0.0968859727231767
0.0881893663386375
0.0927506099656787
0.0980999201148447
0.114592048515596
0.0905068643547498
0.0910546812200327
0.0912530193572981
0.0920483648243279
0.0950648579333938
0.0890790709600407
0.0883646914301496
0.0896738329536979
0.0891104832033789
0.0908249743808746
0.0907274331870597
0.0891394421918503
0.0883413071631224
0.0879125745268179
0.0893372482393025
0.0868536823119118
0.088161238082465
0.0889667646691755
0.0893338217199405
0.100140638555585
0.106812608558771
0.123418817204838
0.0996272854125628
0.106901163165864
0.0918055715514776
0.093942187450838
0.087999362733396
0.0923187368552697
0.0865390391292539
0.0941042814749557
0.087076953676239
0.0930025542056512
0.0869237730780714
0.0895910455323034
0.0852401344366959
0.0884458217965824
0.0851095269675795
0.0895549152342937
0.0846011547449498
0.0883762496641441
0.0844843838682591
0.08667392411966
0.0898174347407887
0.0987883112032418
0.0983565207659012
0.0871288490661119
0.102989315837005
0.107376329202161
0.128802086925965
0.0890458838670345
0.0991966136402425
0.0868990702469839
0.0865614654267516
0.0858700571009848
0.0890240663116146
0.0952564551089284
0.090253863651239
0.0834104921963175
0.0891597465713768
0.0888340864355072
0.0883741552828164
0.0898888909998156
0.103831580358012
0.125128961376649
0.105223441837951
0.0847130315724087
0.0936520205069216
0.0974920471557484
0.118909148200057
0.0965186821951775
0.0892146491729952
0.0968695208612323
0.0842028399808956
0.0897531108370044
0.084946500800076
0.0920354390383363
0.0893979844871068
0.0943287918477348
0.0842770225926516
0.0899048446890749
0.0869669979576493
0.0907111751298098
0.0959039529596902
0.103356778334661
0.0990235268886387
0.0927219224100627
0.094272942805902
0.0981157425766926
0.0868144267906444
0.0958029348293232
0.0854331876306513
0.0938378624675368
0.101238849541564
0.111244353029108
0.102182595941894
0.112633384612711
0.103953462782275
0.0934717123726107
0.0929498632375464
0.112977326457513
0.0931242008978204
0.104761879416044
0.0962534230966579
0.14219795237964
0.111631774255999
0.11692390810328
0.0997689561107187
0.0952902472229205
0.095711078873246
0.0909556165148988
0.104431911232419
0.105491855291719
0.107592034928512
0.0851149096354081
0.104532636299612
0.0993731104373655
0.119819067562931
0.0987982418554361
0.1047003183034
0.0908267305500237
0.105964442153388
0.105314001329352
0.1089328698562
0.100710303300232
0.134895391251591
0.152713477295012
0.119098565178476
0.109742421230765
0.106654574683521
0.136381977177358
0.116160281104413
0.0963751535765064
0.108527473155996
0.0961513584167173
0.107379473151398
0.110967439506702
0.138019003436763
0.116962268767724
0.100644347521873
0.111137258589811
0.111190308517349
0.126386759013833
0.124712023413424
0.101529243701438
0.109539894104366
0.10285597295469
0.129216266012314
0.135032365458037
0.153842581347909
0.12212484462179
0.160380869901395
0.129911272720682
0.133781751809019
0.125114913767403
0.127018566058666
0.137167801342301
0.142414379745542
0.116015821464158
0.121957353649773
0.136512201688664
0.149511576928459
0.125907821733837
0.121206799060354
0.125585365402611
0.129222295942689
0.180720258199563
0.204282173874036
0.158056660443718
0.133840041538532
0.144750832675247
0.155428507881647
0.143479436761372
0.12632403502828
0.13329107383491
0.127978969286868
0.129057231802707
0.137097579060149
0.142981964152375
0.142411796304702
0.133404048809084
0.14027450885524
0.14182106250128
0.183812619268148
0.210519775302227
0.184395156711967
0.175643681269199
0.179269544490305
0.18914218186166
0.155508632787947
0.15700929035941
0.149982410252521
0.168881410514016
0.160565828237178
0.155665877213335
0.167912640430302
0.180306577038989
0.19064468678583
0.182415102790242
0.194091022403367
0.177580306803331
0.180772975611477
0.218148286659681
0.26545709846567
0.246856078752916
0.182375770502128
0.230540117235488
0.205908918355818
0.281375659298846
0.217937879068724
0.204620196371757
0.206902635987476
0.216680184312243
0.220433519362534
0.236185430356004
0.235240708173609
0.250630710127095
0.232280355616105
0.253726012586585
0.258617362223467
0.384135861697505
0.32659919852868
0.293512761703251
0.272308512066961
0.306687075153043
0.294537894206415
0.288688590924034
0.273906302194561
0.298496335115813
0.306202947465401
0.367046018696289
0.320647712149941
0.316737644943457
0.334609653606462
0.346772635190856
0.356061567331049
0.366209505323263
0.398542728505958
0.348544610222943
0.365043838622405
0.35783673557098
0.36673807579093
0.374374620433884
0.403911649469028
0.416099077858768
0.387035995084821
0.392830005592178
0.389753030660172
0.406139362196383
0.402616846187085
0.411210185137196
0.416751203079406
0.460158314041605
0.507270577384288
0.560063991315531
0.474541682880674
0.423666406593338
0.436130200027627
0.441185226072427
0.470721760991684
0.496769502956082
0.477971966024657
0.485916250084948
0.437996845549248
0.447359457668211
0.443964176360686
0.444469581767426
0.443851205152927
0.442683258020817
0.446064111997797
0.458752769100906
0.465760668830056
0.463421301864838
0.523882542925534
0.460819442822466
0.43055323809173
0.431205716710877
0.436694570098592
0.43119323787939
0.421843655147642
0.440157599467146
0.448977999804551
0.423915172161067
0.411597912942192
0.426579176727751
0.435649110794097
0.448671836717249
0.401336578016111
0.407520351557378
0.3947104239698
0.396417240287139
0.39187554524296
0.401642567563095
0.451817918719723
0.396604879860418
0.373380867426325
0.374267663284691
0.364925335711659
0.37184129921471
0.358607113918595
0.374850385772516
0.363189677697045
0.359092949084924
0.357957249476206
0.363022448259445
0.3473175860306
0.356664994036183
0.349108075100209
0.349552733506059
0.341990763744698
0.344079474902945
0.332458959009056
0.338875957055804
0.333177172803838
0.34096049245727
0.338523049854118
0.344781077033631
0.334157399682447
0.335135615876676
0.328162743980166
0.337325635390009
0.328305584594052
0.334967940152584
0.32130014611636
0.326490657901662
0.321188961399367
0.324747177043201
0.314275528103741
0.3202114864346
0.31470081381726
0.323706918781461
0.315024902854607
0.317560308111652
0.310537261859626
0.319733350657089
0.335547529852417
0.371408090701655
0.35051172456103
0.314755143693443
0.3114731457071
0.307899345190015
0.300826692034712
0.314470424283809
0.34688216916534
0.343530856295954
0.305394473666289
0.300427976620919
0.300901947522832
0.319874045095728
0.302001949406724
0.294853256031969
0.285101547913487
0.306532799196894
0.308776256080618
0.405934774378333
0.382208545729265
0.392557444716085
0.309406563217397
0.29195099810021
0.306355225348597
0.3261955917886
0.285853269292805
0.272777249050382
0.282770510522713
0.322316998741141
0.296184211020567
0.270392359692855
0.264440477641255
0.273796226368023
0.303550676518339
0.306172837743384
0.290845445875336
0.311487478001553
0.321139598641088
0.310075361941477
0.344549836137894
0.368021103528248
0.292723588001633
0.261486081874559
0.261457164628306
0.264654559161118
0.281933863003213
0.318751587327846
0.277002097039115
0.270152382661513
0.251320362332041
0.244182928989791
0.260762813254654
0.277235696836447
0.25991557937408
0.282347803223623
0.277088132744622
0.262073287253405
0.259544875931194
0.294084214138415
0.295693414707412
0.321734107451856
0.247840560856191
0.249752324588762
0.289597377192447
0.301299978942928
0.266854699754041
0.259830154955251
0.232954850155647
0.258043423400523
0.252415067312786
0.249192523729969
0.263480667798704
0.278200329380378
0.292750561832361
0.328086313432187
0.343355195623145
0.304569929736379
0.250055422477291
0.233709850198627
0.231755512782851
0.247297284661095
0.233171089161854
0.247640789525208
0.265447022446603
0.255328565936806
0.24808842522095
0.295038334112039
0.260240325740144
0.244460402129297
0.243285119419621
0.244979276386452
0.258268590199633
0.305101850846394
0.311184860805802
0.284455422235669
0.286321374885438
0.297486895763513
0.276385100789849
0.27112971987098
0.272534325781747
0.27523153735501
0.282025274949242
0.302614321169186
0.294519516690124
0.296714868933072
0.297481566737064
0.310541893302475
0.345249939372137
0.347027550112578
0.330853698889079
0.364136920505347
0.388636146613704
0.418446684329014
0.376213868258363
0.366730705927779
0.363057587026577
0.377936220818164
0.37463469726536
0.385095335342307
0.410235525748612
0.437510966054257
0.407123408324274
0.407356284535076
0.413090605635742
0.415890506787346
0.423826124295656
0.465960012756978
0.478348123431016
0.508656020724044
0.502878407941306
0.478469356876945
0.452235195727762
0.445994595875583
0.453879728017451
0.458835042652288
0.452864531718119
0.454046358281053
0.469098514200516
0.500758347027762
0.461176462787358
0.466014637598854
0.458638323079282
0.46378985067862
0.466251782154093
0.465542980275454
0.466718448258087
0.47259292630948
0.467545722843558
0.481588881862599
0.497120803088474
0.568889457500325
0.511606760057754
0.493231352743201
0.498144723062865
0.50441018603346
0.491294744491821
0.512646328834464
0.528790674747528
0.523427349679327
0.510754754404503
0.521245776842181
0.517410759317744
0.521282173990279
0.536911330604441
0.561347584897699
0.529864776219348
0.543148677267648
0.534207327505964
0.586280794921209
0.607966070657493
0.576251049299999
0.569801435625757
0.560733849964851
0.547379040444185
0.548255377454428
0.546537743374194
0.553826409443968
0.561249151759474
0.567210792302301
0.557800346131688
0.556412382049724
0.55557495781681
0.556279875374495
0.562450865703066
0.590005912894851
0.5527213706194
0.555327841647423
0.549215446655284
0.539012838139052
0.546195610496787
0.58814104742913
0.573686087234041
0.561515119837963
0.53812693623681
0.561635344498248
0.575112582344753
0.559278113267795
0.533731527198671
0.551879053995883
0.534396875322794
0.549013211753644
0.536442719496582
0.558772018469705
0.5881025814513
0.56284319708507
0.55128378483531
0.552463220090779
0.55356268896685
0.561923368414019
0.562503232345828
0.566627275667006
0.571754722917734
0.578623365658968
0.593893985909769
0.583739609870696
0.587509344618168
0.605206630560088
0.613918577663262
0.614106396391778
0.592424249106078
0.597821335472156
0.598213152089169
0.599568497302166
0.598931233842556
0.600706348989524
0.594810013227482
0.597340613051671
0.594180624081212
0.598815458952496
0.626422192341801
0.596935865106982
0.610317208894057
0.587977203281848
0.582376309554169
0.591203048584527
0.578193364366414
0.576765086939504
0.576763312827297
0.580194960824506
0.57163729175966
0.573021322764689
0.566478756085257
0.568587379311519
0.571681394883509
0.570428723095321
0.557656278700878
0.562048660163328
0.557017485498201
0.562534115594476
0.558181968746241
0.560197857200034
0.557043060350543
0.551137958668693
0.577784798807479
0.591855031806633
0.585427848159094
0.566463444368392
0.566850731596922
0.566876369867477
0.552872500171347
0.563639997222807
0.549296278662676
0.558305720095677
0.550257626003
0.556407359763564
0.543336275098966
0.548962057960572
0.542045596690094
0.542477377622985
0.543970747515211
0.543114471543928
0.536648778691855
0.539250783684096
0.531765525390155
0.535097646484401
0.528157943304732
0.546287728891364
0.532044730345361
0.533542781172911
0.524652913780322
0.522296657230858
0.527209319180824
0.526310440819816
0.526951756542545
0.514681397688774
0.512070287458215
0.515016756735637
0.517415506633744
0.514482585401464
0.507904432707292
0.516440786591057
0.51184458246728
0.510205544953646
0.505655448073672
0.507745175836721
0.498885090621548
0.502830785806674
0.495494763283038
0.495870697357781
0.489719807107569
0.491799635755731
0.485083584384877
0.483131204546438
0.476301725976043
0.471831729731726
0.468766609831734
0.470844036593668
0.46472216321171
0.465302465877033
0.461910686053066
0.461333145571208
0.454555643599361
0.451968356052045
0.450042104747413
0.455352830932198
0.449506626239139
0.448538453910968
0.446107747622251
0.448358557512173
0.444206029682832
0.448063017734419
0.44225227288287
0.449946309354264
0.449226696968876
0.447960662927038
0.445209845929354
0.447932518821049
0.453790851117538
0.450851492104145
0.455620039636147
0.456334300358055
0.450365564475184
0.455551725094778
0.457106595069456
0.461681406340735
0.454790805611272
0.460187355486217
0.458426969354823
0.459936921505979
0.465173535237864
0.462771201571929
0.458861488209603
0.468764130308737
0.462794486141689
0.462781246277607
0.466366632452843
0.465781037418014
0.457409306822336
0.464001053122919
0.458429718256887
0.464082066123932
0.454708266595547
0.459802976465016
0.45635242732506
0.455525414120433
0.455945206491384
0.457762497039565
0.454350869286717
0.45437921662043
0.450448943836251
0.452991982594098
0.450566746808564
0.447844283725289
0.446173687849655
0.448360506200337
0.441079243029783
0.446114936475139
0.440113768133842
0.441158701020303
0.439689546488476
0.441583967209319
0.430001368590511
0.432968210532983
0.429700338249699
0.429646525623459
0.424189003019851
0.422844812858227
0.418799774184984
0.416949096807294
0.413461655916261
0.411202578081403
0.410690118033498
0.408164958669692
0.399983729403383
0.398248839891253
0.393588003610931
0.39257600554946
0.389332747446318
0.391010157698963
0.386666358775511
0.386192248170502
0.382636633390807
0.381479248629881
0.381721922306791
0.383906180336324
0.377225655633555
0.378982871420439
0.381827930827374
0.377487435908563
0.380144142838895
0.380344517139774
0.378475297887714
0.381030762848989
0.373763288768624
0.375710009598048
0.373013536263303
0.367458640284234
0.363887767911827
0.360925476356919
0.355583766103244
0.352479645697536
0.345312455661508
0.342710530369125
0.336886773570487
0.331370401303246
0.324692235018616
0.323267343294923
0.315734482187054
0.315280189661323
0.314853416744758
0.312342823320295
0.310088626885331
0.312778964423619
0.312805306945295
0.316862171986204
0.318219219095824
0.328279642149509
0.32845225475921
0.338862010796999
0.345688182555635
0.357644152809062
0.367223055141153
0.380112155841549
0.39045713233146
0.407279367277567
0.421084966960798
0.435305640518147
0.450131017163024
0.469528327358642
0.485718188214886
0.509484123607584
0.52670873097801
0.558216341091281
0.578724110209683
0.603181423578484
0.622643208154461
0.654497660706125
0.67124361863536
0.693576363845978
0.712888705368663
0.747336765978561
0.76374607747597
0.784555973378411
0.808615351762386
0.820147300694343
0.84359097463899
0.854370731149385
0.851650121860202
0.869210889408066
0.873156571367709
0.869501368232036
0.870467374067959
0.874216666737467
0.873192740710342
0.875631471314871
0.859003093980514
0.863790696017263
0.845714696266827
0.844139192222704
0.832373778252477
0.825992501701127
0.813376911295367
0.811318692630373
0.798948543745222
0.79918214896034
0.797759426077139
0.797293071773314
0.794735549449201
0.790466836289798
0.796506823801216
0.803453242786483
0.800515727032956
0.806345482341807
0.819288259782548
0.829861456657633
0.831224378793946
0.837172862458823
0.842548650135257
0.85332412144375
0.865752149781943
0.868922581874687
0.877997603105409
0.887745037681893
0.884410089905416
0.896444255092432
0.893536233489776
0.904224950798343
0.900478639688659
0.923493890685844
0.922409432097538
0.922387524462022
0.909323977001488
0.918398623936161
0.918194245275023
0.91762303529487
0.919491362075541
0.934068127029223
0.931141140782249
0.934287683007021
0.960792320750279
0.944787374512233
0.955326948517145
0.962637168920797
0.966352512427917
0.967425192430785
0.968974328572318
0.97420119813942
0.969548407585671
0.977476100081936
0.996820078571048
0.995566532242301
1.00482163121364
1.01946068091363
1.04067188459354
1.04878903289007
1.06713199159703
1.07495419002616
1.09123367215739
1.11736810911589
1.18104901266252
1.2012116638264
1.20891001079973
1.25119548256438
1.27982577837252
1.2613472749767
1.32753299173884
1.34189056667394
1.36095751024653
1.33836222696765
1.36059398859839
1.35709963609699
1.383484004658
1.39828360290083
1.3880007444068
1.35009019746057
1.36463638258355
1.3518624383046
1.32255206957913
1.31079171349086
1.30607587090472
1.31394185852295
1.32274827209415
1.29484179307112
1.32197600546239
1.31750236334529
1.344882969473
1.33373863084769
1.37430079450314
1.38634439358207
1.37538889623972
1.35736801655854
1.45732192360322
1.40407731105659
1.47439102632597
1.46823142568833
1.48951918198057
1.47363948608127
1.50652007225203
1.46376991245251
1.56343082725729
1.47959803650026
1.53349015733052
1.59234091264428
1.68282072282886
1.66807122042815
1.65785599528795
1.61997087802879
1.61846857895085
1.64899807681635
1.80299146154636
1.77589873452126
1.75119016679692
1.78275089663013
1.87352308013506
1.84957793754697
1.88426302777368
1.89783121873751
2.0027416745896
1.89123391242924
2.1256408252434
1.96301859342006
2.08687503011415
1.97497025951302
1.99154911180436
1.94085924555448
2.0212267276737
2.14858344768261
2.25560010456744
1.94818979203538
2.00444948921733
1.88964651715222
2.08970552628781
1.9758654254131
2.10831230002169
2.13395875135414
2.47121644009194
1.98133444884391
2.12829883173022
1.99945002865154
2.05568504065032
1.92391609551724
1.95359872403768
1.97954509586179
2.06692498056349
1.79540709466776
1.97844785246165
1.9867512475677
1.80803079853506
1.88141430485036
1.98716379944667
1.82062883302381
2.16835135912778
1.83217874013534
2.00249522565871
1.8251036102638
1.97983881009549
1.79729642009272
1.8638648672047
1.70186948372141
1.85626154175753
1.64821588105092
1.66793941053122
1.69554565908757
1.62264910930824
1.60308426492796
1.58001253400891
1.54085476975164
1.51887257509406
1.41544201924201
1.43848947503819
1.37930614221475
1.3711093272262
1.31282535417227
1.30670656433769
1.25117830058814
1.24879724924394
1.21180288921691
1.17229025415529
1.15907214637129
1.12298922292401
1.06660124406793
1.03001105484613
0.994778428396976
0.975412851623019
0.935037293181947
0.902056169448497
0.855721346537134
0.831534924249293
0.815132982467431
0.780968100819498
0.751018861825567
0.75182852929087
0.725420274878125
0.713894922521023
0.696095351692262
0.677415512006078
0.668004973194081
0.659386910886114
0.64594157252831
0.650539591297835
0.643414807492804
0.640535271416268
0.632167062129543
0.644329436049318
0.63751938344116
0.635294048305469
0.632864002453285
0.649425917640006
0.649993289256115
0.6630069338136
0.646400666820332
0.66467760412192
0.660885458444897
0.685565535364938
0.687327528396409
0.69367785760898
0.691613974321696
0.684516161905658
0.692913001968799
0.709976476888527
0.692204310662685
0.687800506376141
0.686931773438917
0.701414779136243
0.698958275383036
0.705020717418792
0.697968060094598
0.705226048720909
0.702992260740205
0.698341707476731
0.694926581296298
0.692486870572196
0.681410862656317
0.684334560375022
0.696908498478608
0.691001577596627
0.684869379563797
0.695991484860181
0.683521842004774
0.683649952160717
0.658926213701647
0.654116595903752
0.65182015841095
0.647016725627696
0.646373150635019
0.647000979375362
0.643094585613938
0.642592244511184
0.630505228130351
0.64222731574508
0.6283745736725
0.638934452410534
0.640593061590973
0.648063288394775
0.638113776773469
0.653555114011662
0.652059665940556
0.672781000288261
0.67047859545364
0.692114621362178
0.673813600804316
0.699659169004267
0.701867464915966
0.699691542787842
0.69175740418706
0.681421668133543
0.685399822463918
0.683450728250792
0.678247480533622
0.678229056577672
0.655919592070718
0.655004877351154
0.634587806360817
0.624703106736773
0.619935178982613
0.630880827952536
0.621740236799331
0.639783067350282
0.618398312183074
0.635073352572948
0.627108919087424
0.625331885264788
0.614886779510095
0.633796298819031
0.629565372970117
0.640185040915049
0.637387327858767
0.629502897972704
0.622088002052536
0.643440124699805
0.634685465534609
0.647015846344598
0.640563547381428
0.640176816758552
0.633498061075891
0.662793427954118
0.657062563943321
0.644449916033311
0.652891006726182
0.657492471386204
0.637119964088184
0.658475760083347
0.65361413328507
0.667348853891181
0.654783633426679
0.67059931108594
0.647951202607141
0.666692834665534
0.652788541505064
0.661526631622444
0.663867893204873
0.643600275643409
0.636312318742429
0.677477922590708
0.646482320148761
0.64657884264336
0.656135328484823
0.657398529704248
0.652044098944849
0.650487420127996
0.629085563485642
0.638060062605522
0.632420872696519
0.629857457715972
0.603730025522483
0.622270036263998
0.611818065659443
0.605774389567184
0.58981390975901
0.620586747297851
0.605110426999404
0.585472744766938
0.566777300592458
0.582155522322605
0.592725041057857
0.609113006480283
0.591162222263456
0.593864708062704
0.577526509413468
0.600863716967291
0.587356462552324
0.590294296866453
0.584163286580287
0.612232415500385
0.609847493684471
0.61102463637611
0.564814709012208
0.588325016936679
0.59667638462096
0.597707666202726
0.59195148163865
0.609314628815323
0.588586638973961
0.610559585447375
0.594460188055143
0.611346848530837
0.608679334352075
0.627900826468688
0.606034477563883
0.646392911571348
0.63400778196302
0.636920084136613
0.627240416498562
0.641497591449289
0.655411498910145
0.649414501566122
0.639547633068853
0.676983630352677
0.701001576334779
0.702492342822545
0.695269072252531
0.746858878470384
0.751581471670219
0.779891593496193
0.746309165535441
0.759735969353982
0.73782890291739
0.777076923392147
0.76466533741108
0.806801081540461
0.797736575863591
0.808333229738716
0.816122287049368
0.843610635724692
0.798776599144186
0.831546859825213
0.858231842243392
0.881802740910765
0.804364410005938
0.829341580108392
0.785891468583782
0.866324688850871
0.879095239521774
0.888123325943336
0.848591870007804
0.831144989722523
0.873534683670347
0.854118682998165
0.863576569205997
0.882547529138331
0.869863122362365
0.913516681086228
0.895620136980803
0.912437730691584
0.879716479717788
0.933296350146062
0.867507434412879
0.943326550243207
0.848754116825152
0.865809847625803
0.815043372232675
0.880934405890682
0.833903766811263
0.924990664936393
0.926472828141416
0.879578383847721
0.862235750851338
0.894488946976367
0.816841169447099
0.882814874216108
0.85534255036603
0.82861944431653
0.83835439494486
0.868913929248907
0.815601511697111
0.89818948912967
0.872219715637102
0.842299422070582
0.839904827966646
0.848941172247069
0.756897201885085
0.773746111585866
0.819177717671781
0.885089654905937
0.836216401933233
0.868131509047372
0.791037960834232
0.90049307645074
0.899123969607102
0.9532562703683
0.810058290529757
0.829495031871213
0.863867573809698
0.943883259756444
0.898895806997331
0.966745002048779
0.802829229390706
0.918034087107461
0.961880317081655
1.04347759896034
0.864076079367864
0.941665584433361
0.882486821867049
0.862682328277839
0.905546149764272
1.05727722943134
0.940368348856294
1.01516695461008
1.0025832054708
1.01679394921176
1.14381707112163
1.06920734203158
0.999171215253006
1.2348997041758
0.999556532809245
0.906187146806106
1.00916772586246
1.30189981536945
1.23059621574214
1.34860472835876
1.0129808220324
1.19561920765367
1.147527002289
1.11545646316891
1.26203024967193
1.05950788516822
0.920586246787077
1.24264044797031
1.10383442645427
1.17709536043439
1.18908066196257
1.04687552973917
1.04662189423389
1.3098257698251
1.00750144933658
1.03510955684368
0.933595704947148
1.21543751156707
1.02582144400034
0.910007742268098
0.801294836575622
0.94358370435343
1.15924441478243
1.59761954024943
1.30008427749729
1.01891436597051
0.939579718499522
2.00247837272722
0.764573708629161
1.2346632920192
1.8156531069248
1.94644323872233
1.05870558521216
0.977049616635337
1.78055838657676
5
1.26663568332909
1.07126449557267
0.635154959841651
0.982064833560915
1.09997943641983
1.55270869687083
5
5
0.969402179651836
1.28322533320245
1.28037145241357
0.952925582626594
0.811780185884443
5
0.917121852304347
1.38015078089804
1.04197093522244
1.10772238181644
1.30240916857547
