3596
4000.36533379555
650.420452594757
1
2
2
0.087221684301171
0.0952955566089616
0.0927132747515524
0.102625330395294
0.0934164566088083
0.0892794578265975
0.0797889578686277
0.0869466885504295
0.0840076078523851
0.0965274050244999
0.0936323422123466
0.0930430900018201
0.0790346060050494
0.0867270351070051
0.0856754616731479
0.0977867409852438
0.083984042481234
0.0924041155411779
0.0921677093561534
0.0937049810926019
0.0841397717081018
0.093241527142475
0.0856834811434538
0.0906905688185334
0.0901655381458003
0.0963596969481451
0.0844851180676111
0.100521692872024
0.0928426659990281
0.0982974447147552
0.0847684558103871
0.0906659649737518
0.0902982680601855
0.0942202698835512
0.0826190953183477
0.093737098471215
0.0880986986257137
0.0948949279360397
0.0816657776558841
0.0966073360313947
0.096172497347667
0.0966781597586674
0.0832331185281083
0.0925364932927444
0.0829261092615715
0.0935318920480753
0.0844106110770541
0.0951421736422148
0.0863286501288783
0.0950033907015912
0.0873835860609678
0.100351306079637
0.101327917220035
0.098058690052957
0.0959687682447481
0.108663236284764
0.0873757869884769
0.0945180228717648
0.0891506849727174
0.100855092861834
0.105930920167511
0.11133906810946
0.0827125534479911
0.0852156808124219
0.090140953363834
0.0910852223677133
0.0794598830016792
0.0894792877196344
0.083115215534823
0.096787279121837
0.0865582094905994
0.118207017990372
0.100704344425285
0.0900454331384128
0.0852170894615405
0.0880780210400342
0.0755865859819739
0.0910499362038104
0.0779149227871528
0.108501370771642
0.101927646829942
0.100018346701754
0.08294262307635
0.0848957197890162
0.098116917841686
0.104170087294346
0.0782687091810668
0.118284276123236
0.111514277307264
0.101689029504381
0.0839218756142715
0.0920567378653735
0.0776326253485681
0.0834363122720134
0.0805309790151393
0.0840735007073885
0.0769036876524615
0.0899535952660746
0.0675051210618071
0.0981053897741597
0.0900710494423325
0.137050198132627
0.102464229444965
0.110199218125486
0.125895411780571
0.0975060847991321
0.107979669952458
0.132423859442463
0.0950156496634497
0.0890529827703914
0.0779686056566207
0.0884340901044049
0.0813147401627011
0.0916988625921848
0.0722112682770095
0.128171466295167
0.109061838807917
0.0959951488515645
0.0827083392691166
0.0850523988425771
0.0746490943114471
0.141421155940461
0.105083255538714
0.0983434445780516
0.0944854258186062
0.0914173610232961
0.0860365061201024
0.151307900984719
0.0954925261638601
0.0912644934169993
0.07234520291706
0.0908589003156569
0.0727001693231915
0.108170768070157
0.123766089540357
0.0963684809265822
0.0862642554107165
0.103383520937218
0.1274989289043
0.144137187876177
0.0929010200423757
0.0906875456303567
0.0738844304927199
0.115817217156993
0.112110223857099
0.101800900100359
0.0869823476211461
0.117854112529351
0.0813351659852018
0.0869410847690079
0.0710359535984527
0.0964792283620177
0.104514636780473
0.107804910650782
0.0731304141365432
0.181098415328793
0.127524576309159
0.162394262019188
0.115395931063336
0.0949336902850665
0.0869535301529975
0.0880805022213491
0.0748097395625286
0.0836173505483456
0.0781152412486602
0.0819227474231142
0.111089480615299
0.108936103971203
0.082949004737736
0.106945269877918
0.119029106878333
0.101375826255914
0.0975590597515923
0.161600313834791
0.0779306174970709
0.104624455380471
0.116702533307517
0.0994525753686469
0.0662950503348436
0.119906581318487
0.0893433137877032
0.0887654981063212
0.0779098983425317
0.0871830351131846
0.0890887722772441
0.109144822982295
0.0774641726530197
0.0889584725102884
0.0728449304132595
0.0974448458282256
0.122980416618194
0.166054519105206
0.106918302994735
0.0993266270276554
0.0731855345098053
0.082297751789395
0.132297606827985
0.125012329606206
0.0826044309798873
0.0829041262820614
0.0689062733276911
0.0807257950683416
0.0714163764609969
0.0845814488111219
0.0717233703300932
0.0976977780819902
0.126858664995862
0.103868327118298
0.0753646098822107
0.0802953981220616
0.0849067357386953
0.104785198253108
0.140761594463134
0.107999608708617
0.0832709187925078
0.0926414661476075
0.0939033231115787
0.113539343431568
0.0903443332423815
0.0815285818857283
0.074708269175281
0.0862433554579313
0.0804552574286229
0.0845137808996594
0.0740615146678182
0.0863439908037642
0.0776859947429763
0.090186542617529
0.0801513792284067
0.0882824914256575
0.0893567009118257
0.0850781772981022
0.0797908238906778
0.0871332145431644
0.0687014833593556
0.123326850322212
0.0954423476379283
0.0953743754880849
0.0768687029513078
0.0786783905648352
0.0751682210195827
0.0892460945376368
0.0707518857526684
0.0872981034863268
0.0699891365709368
0.103405818437091
0.112034102720696
0.0952417953658049
0.0873029511321227
0.0820490453441402
0.113261167382934
0.0982331851421399
0.0845989795666942
0.0797062781016546
0.084181182669899
0.0747538162203024
0.0990361932143098
0.130632948117924
0.0890700814223052
0.0884475080900554
0.103538930449398
0.0925265438440993
0.0826069855415936
0.0971680828815565
0.114112055439587
0.176106455333594
0.109396630141565
0.136480028184239
0.141210075018862
0.0997390603412599
0.100653892017219
0.0945932308523159
0.109710555552338
0.220586134666462
0.122377629904383
0.0961043443245015
0.0943781629666434
0.116363981811059
0.0764541107069044
0.108244214899994
0.0954980574154547
0.143168611705079
0.11926543361861
0.186292490139142
0.138883000161896
0.0989387585313297
0.138914743225991
0.110127383354897
0.0943528144354598
0.0862272262602401
0.0848921640069423
0.0890801633350693
0.111218716317847
0.10708518097726
0.112329074502904
0.0897977500924869
0.104900172226451
0.12436379617739
0.0961284851572055
0.0916162709620674
0.103974889422942
0.107792254388856
0.0839321558438845
0.0910010566556116
0.0882468774641662
0.110207613480748
0.082357591381935
0.12715072303862
0.142365418912211
0.109655977109555
0.108453500296226
0.125014302953596
0.0882042963378066
0.0906981275789741
0.0796007882125349
0.0929475955970579
0.0793737598501115
0.0798554285633077
0.0928911430438334
0.13589169165329
0.0878290027020048
0.0973044433467318
0.0878281926496546
0.0921288379331989
0.0859408950231777
0.10207508286809
0.0898486103388381
0.0967413869476718
0.0895476474264849
0.095731381556459
0.130114329406064
0.130836448194097
0.0988115796388833
0.180711843765588
0.112615128962217
0.107503861200056
0.0863561118661565
0.101532412924562
0.0921585864663138
0.101673268239545
0.0915004064353058
0.0981316788328845
0.107379413248285
0.124092435218205
0.0953140350780099
0.121649492296617
0.129398149127562
0.214241152952075
0.172217737893248
0.130961583927537
0.105322778502576
0.105812539163138
0.170885790013598
0.141813181125514
0.169480980567689
0.1468581364332
0.114458121434844
0.126396652184443
0.102157350926076
0.114728750632938
0.101816926687694
0.123450888408976
0.105701896320569
0.128546884690517
0.112277278891065
0.127796011765698
0.116153454210077
0.166939815598118
0.156813677549877
0.141137047666913
0.128049257855532
0.140504924963647
0.122937073487427
0.199314931536376
0.156764123609246
0.231426174667342
0.157999405041777
0.221657574708319
0.174276629928934
0.155373601397214
0.143572680042235
0.153024075968047
0.153300274234027
0.162497027287443
0.146546478302639
0.16546818306862
0.146350362835021
0.165820521708513
0.145726299433716
0.166081366940675
0.150074013955039
0.185887329747465
0.193407937181752
0.177162048787145
0.173131180455823
0.17603610467642
0.210247998959216
0.261538469486683
0.220113690719801
0.196814286665999
0.194171536500925
0.183916593680739
0.189112755683605
0.185939327419598
0.188954918295782
0.212501189563832
0.21294717063587
0.25637991981346
0.211777659502614
0.250477682398
0.210027782546871
0.210926481801378
0.232751469704959
0.220141666054123
0.248857611829123
0.257627083422312
0.218976009944859
0.234369963385315
0.257459049965192
0.244810290047216
0.238062541420502
0.266947734234256
0.215688815682041
0.244630564437594
0.227609357693746
0.260122356189928
0.23026186951125
0.278723004891169
0.244302048620484
0.267743125544474
0.257615117466699
0.263027431326953
0.259712937492382
0.311303210894668
0.257008252260425
0.286675564341914
0.252141613781586
0.27339914161271
0.27498385248022
0.289033686697902
0.318432807509244
0.323141977513146
0.33025428977404
0.321918274900851
0.28896827745571
0.300779998019844
0.280435162764904
0.314401823309531
0.28230813370764
0.324984120810023
0.313530266752777
0.327745831808262
0.314563604414341
0.342093103276836
0.30293866661727
0.342227573282361
0.330041596641378
0.349984953253538
0.31413808603289
0.372720230817435
0.357930288246156
0.350517051665685
0.392203414373891
0.407774143258567
0.407641917735822
0.401863262810702
0.367398146381431
0.393098361349375
0.362834669726915
0.388504302897021
0.369900496228982
0.429559094654466
0.373885718525898
0.410339890386133
0.374700806726375
0.418679877118536
0.376468382564286
0.442254036099621
0.40267314139926
0.439230235163537
0.412390571326267
0.436547274062871
0.412459467946229
0.446955195907188
0.439388564961169
0.474866563597315
0.433980311326451
0.477793899162839
0.440910898603329
0.478766711714823
0.465320458647186
0.487264046206188
0.436234035275601
0.478910871470931
0.45586804542534
0.496223176402873
0.470389867921722
0.496597167948169
0.46730496274313
0.5159298819682
0.478646649312331
0.52080481896555
0.51124654808551
0.52619378155861
0.535660616261381
0.548845595778915
0.52240923726211
0.552592964713023
0.510393441958069
0.557423353828478
0.537773690538333
0.599164989462678
0.516707092438947
0.567644649349821
0.529062090195092
0.610464819525329
0.554840412070241
0.585860684600528
0.565049243003178
0.602778384229116
0.568499966915289
0.609997570742773
0.58745138028791
0.633099281053633
0.591259888508815
0.677141733053072
0.585434108594553
0.611653138096144
0.596990917609711
0.631597989389084
0.619013009699026
0.655821901956785
0.617576929219729
0.682062879152647
0.638093726734804
0.691417726190598
0.626053102233378
0.633216961075378
0.657300280291344
0.696146076307681
0.65314177733675
0.68796380307863
0.669733017735136
0.703881168438502
0.641341565847391
0.730643863088152
0.677756874548753
0.719047300054304
0.669765488771226
0.769319401441927
0.686351864312794
0.747195425455082
0.690906288357502
0.745417292202728
0.702237955921555
0.742545186327152
0.681662184953393
0.775373111402574
0.722548356743056
0.794130328945675
0.7270836112895
0.841444046522086
0.750719882320392
0.764439146149168
0.757198275834702
0.778933052894563
0.751645238106199
0.807033062421251
0.722959626434641
0.823443781493669
0.738864913719679
0.855773634007089
0.806986542041565
0.84376726013445
0.84044870502864
0.899618319227451
0.749690533993979
0.850024768657834
0.795246260417363
0.837163254003387
0.824338164879664
0.919582833335864
0.876949061705579
0.906210605982682
0.846498040917851
0.851450832108916
0.848460344477318
0.937991083799641
0.837156106018228
0.87036955698681
0.847534289857221
0.944582904187375
0.883788178987213
0.932078225538196
0.848857607536131
0.939913738585508
0.883006172224333
0.963194561510123
0.886173935678141
0.975237129552449
0.92563440638316
0.917071342898708
0.882255720757018
0.94332514907683
0.909201371915522
0.970591630705196
0.919071717586696
1.03804991802527
0.904825926398515
1.04057569499958
0.930775108511592
1.02593121995926
0.900969129894826
1.00588732645308
0.933109069591346
1.05118504134067
0.969935105276157
1.001558287143
0.980310073459635
1.0492529850769
0.991817316958274
1.05529105035412
0.992169175356025
1.04483437439231
1.02991334752487
1.02360906724229
0.967886529395978
1.111001374394
1.02369985290736
1.03638090308795
1.02759562553199
1.1050474188892
0.997008257796097
1.07863910291714
1.04872953475964
1.09347937211326
1.04029067488519
1.20150932278307
1.05195699918757
1.11524296228723
0.986917633995069
1.02536966270371
1.03593632527203
1.09905941903634
1.11221422977983
1.20824687403214
1.09309923914388
1.11254508881533
1.05028094784856
1.1243911178728
1.03593307360103
1.14132724730064
1.06901534761802
1.21247494065936
1.15640205540594
1.17547550067891
1.09610683646256
1.16294486625702
1.1217286965578
1.13713637144161
1.19352866630954
1.1958756081504
1.07353988363224
1.10489974565709
1.15853547301727
1.27147247505938
1.21072247398107
1.26172993204838
1.05038506832212
1.28168109612964
1.13050126389592
1.27284598210195
1.10795589827946
1.21075344683749
1.0816326192675
1.21963312314112
1.09664140197818
1.26993755819685
1.14575839209245
1.29594531816254
1.11048030590814
1.28166885534175
1.15998548466732
1.23268522520413
1.18112693115608
1.18011293142926
1.19062022484016
1.2803902152761
1.21751996142992
1.24415260011023
1.2034773917493
1.26965420005058
1.26399229142745
1.24107481857187
1.14026735827457
1.23884929910272
1.14012945069669
1.27464897989238
1.1965529431803
1.28089956753372
1.17803424541615
1.27178125818328
1.19140833684891
1.23282720457993
1.21198446231713
1.26150956531436
1.21007705944358
1.29261504982827
1.16291157549208
1.30598865677295
1.24530346413767
1.2695109578362
1.20068191874511
1.20260987333821
1.24920141354559
1.29649387266876
1.149893371403
1.31294314238004
1.39434855887864
1.26181559960007
1.21844348094766
1.23000289252029
1.21559554197254
1.2560477612708
1.26256886580049
1.32721358725071
1.22073436106643
1.39278005482408
1.22088139594543
1.2923034324072
1.21560882331699
1.29110457992441
1.18374110142492
1.21358290204307
1.2438311627219
1.31594284193459
1.28977989830068
1.26274597926917
1.24768558557131
1.28605916868386
1.15838965134843
1.23812294696824
1.21375644117564
1.28810603517934
1.17530569485546
1.19011803883298
1.29778757879668
1.35143508853968
1.24208202902566
1.29772157398189
1.23705554230813
1.26590060536749
1.25460817286353
1.28566045145235
1.26486323639013
1.20417946802976
1.21544041397417
1.28101558312705
1.24775646187111
1.27164780909925
1.26543577708799
1.21601020660758
1.22259550697147
1.32430656594559
1.16015957241061
1.28835271799976
1.28809290288479
1.28692487474124
1.20769716612084
1.25497325069869
1.24922727954161
1.232214728732
1.19007627377003
1.32638623939835
1.21461354756361
1.30196765966344
1.21435026702525
1.23961102364727
1.22022679188119
1.26368216548113
1.20605929332482
1.3123558842852
1.16941548230168
1.25687621971044
1.22346404301533
1.23969800103357
1.25532836220873
1.21478747934524
1.26632763231197
1.30929704650156
1.24182099704849
1.27522254414964
1.19107896254465
1.22537045099999
1.2394314559051
1.22260689114537
1.17531568310763
1.25745386528661
1.1697579712808
1.23806787181337
1.17058428917487
1.18632452115557
1.22656534627563
1.23578528623366
1.18695406958355
1.22622896352331
1.15974624988511
1.18319390865946
1.18492813603396
1.22804125338081
1.21494390466522
1.18342483331388
1.15227483793705
1.23783785100023
1.18142153154403
1.18612360048488
1.18369190602933
1.17289813775127
1.2320501218658
1.22217929660929
1.14257115070821
1.155302023766
1.17411986553642
1.20527051348121
1.11261294573007
1.17785600372445
1.14851347836027
1.15772196216732
1.102341531561
1.15733423893835
1.11633451227476
1.16364243512455
1.07492445499426
1.13859015404699
1.15139192570504
1.22272638012993
1.10346870158458
1.09118560173473
1.10000468938292
1.13075107885495
1.12650782819075
1.15385177796718
1.08074347885926
1.04670290222601
1.06676204843849
1.1404786952276
1.09958433345084
1.12110688901266
1.08493370868095
1.11462438921038
1.07884004603756
1.11220793779535
1.09714839435115
1.12548828621834
1.04555499665751
1.09315852061594
1.07459986403308
1.05305530021525
1.02877117970113
1.0618391571131
1.02786079665483
1.08516130520543
1.01192196905546
1.0479599060153
1.02544546421361
1.07175117163537
0.986072405416803
1.01376252723994
1.01855141946573
1.00028909559673
0.977430660037725
1.02238344469201
1.0220487726941
1.03474780017697
1.01900171004185
1.00205098998987
0.973627591960373
0.98851823258972
0.981352711866378
0.980314359567597
0.960188506128387
0.935985827884194
0.971797871119243
0.980593063211009
0.927494848301158
0.930216787561174
0.927552440900739
0.961348686205065
0.930465787536116
0.9263369197524
0.908197020943808
0.941444211973171
0.918130897242026
0.907233414887585
0.895732514032209
0.935306657665223
0.914810349820583
0.897929027944843
0.863999745319576
0.903012475794988
0.885102019578247
0.902373208644871
0.846217427210381
0.864710433187216
0.874194812460166
0.871497159473603
0.854484130238264
0.855731133949269
0.833700544958877
0.840979003554433
0.842780238012415
0.863522352045356
0.828222526981679
0.826682162290038
0.814039444412683
0.827714314001115
0.812790139318087
0.813874289102729
0.782998166992008
0.804815200799964
0.81253833604584
0.799332949119718
0.778895530233212
0.795944490101444
0.781687404679625
0.790812866185599
0.779984365593854
0.765023674971704
0.762507360056986
0.778025201071388
0.751608819947647
0.77143609964271
0.733250087824116
0.738567013626986
0.749620946703348
0.747742982103937
0.739280817317109
0.733685709338215
0.723384794795849
0.715504371777039
0.713390627827129
0.730380041647668
0.698616662589591
0.699774991189093
0.692574533826982
0.706882949372504
0.702014320291627
0.693213947726534
0.673678550696274
0.703888675317881
0.695487749289561
0.685055639295377
0.663898939978417
0.681450255936374
0.673431519968334
0.663166022699993
0.647838470483264
0.664643034215842
0.650059655723517
0.655122927418876
0.635016510195907
0.664209577281917
0.653210861404943
0.640182690532813
0.624006977425278
0.631866558555521
0.620289295076021
0.629435264789528
0.63228849979635
0.624181320273975
0.602225896228052
0.61371375834666
0.604902151987245
0.60027686180925
0.591448664134631
0.598581219657128
0.596839704345424
0.598360351358089
0.581871379495352
0.590265039636149
0.576835929951235
0.573718055150816
0.56970625783816
0.571804922257213
0.556560762108323
0.560700063337281
0.553643565335549
0.557625415591542
0.550682400484794
0.569084125297956
0.553737003706599
0.551560345279298
0.540425567425664
0.538650927981106
0.531613572270786
0.555557224215899
0.53281222545431
0.533146391893176
0.525164716798336
0.525847654213416
0.516842931512234
0.515550483585853
0.512172619826852
0.51971378604981
0.511872726471255
0.517876000282641
0.506877767508387
0.511734334405461
0.49748374699728
0.502058055350624
0.49575526158994
0.493247115350225
0.489906967028996
0.495134390442311
0.48820637245804
0.482792180583932
0.475184620856624
0.482648610287565
0.471483903422945
0.478735893447262
0.476669641192173
0.470018321805552
0.46326119175506
0.4612179927352
0.46237408963524
0.457047614417824
0.450593889455029
0.456552028581354
0.446703407876911
0.462260759419462
0.458092000432845
0.455102504692124
0.444902072927253
0.444453987251789
0.43957219182839
0.443921636834441
0.428160067366388
0.430977798760673
0.434154427136347
0.436321027530289
0.427216734413141
0.432161365048834
0.428013603107667
0.428001618906834
0.417593617029784
0.421142737277621
0.418783745147845
0.420580055934437
0.412823449201712
0.416480021209908
0.406682183681581
0.406739753435736
0.401552846892271
0.399333092009265
0.395278961015855
0.404488258499954
0.396500897524484
0.407444207098893
0.397337023420903
0.401771207120992
0.398818022562233
0.397283058169583
0.398988804488538
0.398720632651434
0.391234438923465
0.39001051697067
0.395823837961463
0.396087762414228
0.388520599241042
0.389598373816392
0.383709602215143
0.390314578342683
0.389189286924635
0.385332685059408
0.379270264796406
0.387604140294019
0.382003896330663
0.387339433494189
0.386573711598149
0.384918062583817
0.384807117837568
0.396920081156851
0.379959406554405
0.38780905062644
0.389409793713725
0.397075897998223
0.392574130233785
0.39493414532061
0.393170971490356
0.395477583605614
0.39130845628349
0.39303440120762
0.394285179695946
0.397728101299412
0.392865358168833
0.39620670297055
0.397644713592318
0.400277125809669
0.403715008754615
0.412874050205853
0.407416639305719
0.409466135906088
0.413958358227916
0.412618319975228
0.409938670855753
0.425758701512572
0.421921927164922
0.424260764261635
0.42354956741559
0.435539381642513
0.429548633909852
0.425045002723474
0.433218965857578
0.439368493687287
0.429791678496329
0.438446504905693
0.443611632815321
0.442444715679401
0.440517959138625
0.446749404987361
0.445575571825279
0.455740481814346
0.459969444723915
0.458542851671819
0.46306380960463
0.476041492611665
0.474041629213997
0.47893290500514
0.486451955980927
0.488876389999783
0.498425085198114
0.508989682383817
0.495524036167066
0.511406126765414
0.515026175102066
0.530320939366717
0.533719472322301
0.525908486200356
0.535154874841303
0.542632916553249
0.537996987517841
0.549034556257388
0.556716284098992
0.568565713152043
0.572946091981468
0.56877347521505
0.563171181557616
0.56540000473143
0.558066067011919
0.567557474479129
0.570280625272699
0.568919936461212
0.571222883602052
0.57797834639924
0.563919983966237
0.573666373157235
0.574013579029633
0.576092842817606
0.565088974582995
0.557274296531304
0.565184327648733
0.569197530418911
0.560717032223071
0.563112937998534
0.558078136746102
0.549113229371003
0.5507616037555
0.568504060003623
0.553515641564403
0.550248359974676
0.547877999573278
0.545888239330761
0.544568364661614
0.551251472702392
0.55085638669458
0.540096390488624
0.543729365270587
0.549038461100362
0.536086538219515
0.538154252173688
0.544207837786597
0.540434971727534
0.540258514609638
0.543433251618711
0.537901951589712
0.543887337098232
0.545759587959906
0.53994428343802
0.544064464041673
0.548471776698948
0.534339426465965
0.536020535832308
0.538449712750879
0.539210077989407
0.539748138167956
0.538184064888822
0.527664488598206
0.536575216951636
0.536536607235329
0.529015340432008
0.522692537859411
0.522742971051323
0.524265976090916
0.519379916337059
0.517609464424019
0.513599834053405
0.502358879839905
0.50804923841972
0.508048452626568
0.502919105103717
0.492386114694485
0.490115641353855
0.492797989253729
0.490842243316799
0.482123795592498
0.473873896039908
0.472019941938991
0.47697426554191
0.466286047355055
0.46426514158946
0.470295825156197
0.461529017543851
0.454890958673369
0.458621484336492
0.457164706839567
0.458344409717122
0.445248317869277
0.444631236469311
0.436740628442131
0.435013892052022
0.438412140051135
0.427644339312097
0.427300470004551
0.431916654881022
0.424010221107776
0.419912647308386
0.420607197541202
0.415178098851977
0.407202110360592
0.410833638231409
0.412108319623543
0.404889394855709
0.405452480982692
0.402043621134223
0.396214232275729
0.396930399004356
0.396135995366904
0.396175357766083
0.39383165661798
0.392879544801989
0.391405797118736
0.389982097226729
0.380611502832185
0.382416732371482
0.379008855536717
0.384184886350249
0.377922766020554
0.375165881721881
0.372430499262393
0.365146684912961
0.365298896171936
0.368578218120651
0.368489786736281
0.365118961349757
0.36513910338603
0.364267346926366
0.356950078496914
0.360140719937165
0.361873498889223
0.356110987251158
0.356154027525372
0.354010664224486
0.353420787975051
0.354627223987154
0.352372818134229
0.35015843054287
0.348338492288631
0.344965981547699
0.347161230075686
0.341992749343026
0.344380882568294
0.341747069991188
0.339927035334945
0.339262194254366
0.339490487662673
0.3360497747602
0.34007216430688
0.337074684431273
0.334604473913631
0.33493081361403
0.327777794381021
0.329281174311273
0.327515930765047
0.328127373529824
0.325074487422166
0.327220191721461
0.325119741203656
0.322938721134519
0.329197139327702
0.322030546669383
0.317690589487934
0.320692002185792
0.320805601963204
0.317245931198775
0.317303607354946
0.313892108402872
0.316283490859495
0.318761884901536
0.319895352325824
0.314367727453626
0.312935562589968
0.311489853372065
0.311734330938517
0.3130565219258
0.312465970750838
0.313215929672162
0.307317148434007
0.309960269773282
0.308114691111417
0.305128615052052
0.305924300242997
0.308786658483438
0.308111023767332
0.30396732668286
0.305379297582505
0.308854072876093
0.305033147526027
0.303005689944946
0.303629336885458
0.307945086699654
0.298749781806967
0.296006285896267
0.300120735748482
0.2961932923092
0.300471690163394
0.29695546965795
0.29940734505775
0.295720193818213
0.293291393874233
0.296700774309089
0.295214383340469
0.290001219814473
0.294217134915005
0.292619794226689
0.291814266414721
0.292278463356567
0.290108406865249
0.288665844004363
0.290392989474635
0.290909866824534
0.29175436998978
0.290852728968236
0.286135889382268
0.286600723437108
0.28362173555785
0.28597429788781
0.28801589475592
0.289117429612612
0.289980590249229
0.285324143388098
0.285854001819653
0.282986803930575
0.285470736192806
0.287221072538837
0.285082083592944
0.285082317330425
0.280416690858679
0.28104110215291
0.287224050314154
0.280484603530092
0.278376531052296
0.282764577885828
0.279511953910533
0.279037553217759
0.283769064380975
0.282228215734376
0.2794816177683
0.278086601110941
0.27346454038137
0.273600188088259
0.271267428465086
0.275306647745712
0.273601607794056
0.273436426121105
0.272438617206384
0.279304901208201
0.276153506547656
0.271961851888105
0.271620217327149
0.26786767555062
0.267565676461256
0.263360076250351
0.265628773837587
0.269299558767736
0.265479234346215
0.263580709990923
0.268640643523648
0.271532852500309
0.268643422783533
0.264298877406311
0.263310197720655
0.263621744213489
0.261753384782706
0.265078879879437
0.259760544545499
0.259710370791423
0.260606196395722
0.262578733845159
0.261097003349928
0.255243402798581
0.259480601846642
0.257907433847378
0.257458569219704
0.255382199567655
0.257780160449431
0.253626307004593
0.253356015835411
0.255355196506547
0.249317803938742
0.250744221292686
0.252578013568342
0.248715046387706
0.251634553708059
0.252886659470281
0.250629193154246
0.250083448312724
0.25089013908057
0.243466792121116
0.243452336679638
0.24864897059305
0.241205110917544
0.243936752668138
0.244238866490085
0.241489496994824
0.242032766735917
0.241709205702836
0.240059379111491
0.241334031421337
0.237650332167339
0.239384435735196
0.239940941584502
0.233170064161384
0.240695035631544
0.232500340212859
0.231334480404463
0.231704322289003
0.229950633595947
0.231311252241714
0.22870370890033
0.23329792589143
0.230407274103747
0.231248457450372
0.22778042942063
0.226688312069098
0.223354570597816
0.224212366559171
0.220639027424159
0.22197061070235
0.223076431426119
0.224102145654719
0.21796789172177
0.218162144944571
0.218991089537122
0.214092426044621
0.217580663326886
0.216764718194877
0.211759432018858
0.216232653141937
0.212297292773255
0.210015891460213
0.210970652029098
0.212630098003376
0.209287744501116
0.207448994429776
0.207184617764929
0.204946119960461
0.206359798285527
0.205052043704016
0.203731372741568
0.205917429981997
0.203457696680738
0.20184361493033
0.199681611720938
0.20093687808573
0.20000419349344
0.19814076484032
0.197410914004951
0.195926787230085
0.198865840773569
0.200572362591292
0.192915949810998
0.195045322426959
0.19589033758708
0.194002219124591
0.190795067640534
0.195690330266406
0.191127666346399
0.192280916689517
0.190875761998673
0.193729766835031
0.190139478803119
0.191158510357832
0.190637793553418
0.188054664275338
0.185546988179356
0.189602183843891
0.187059399198223
0.185276127085471
0.187445608579089
0.186254882257028
0.185532154648192
0.184910760001038
0.182643562192187
0.184449343757948
0.183800919963106
0.183276210834473
0.182361209374593
0.180935165726534
0.179844511673293
0.176633012261047
0.179324959287592
0.182028829817322
0.179187206908026
0.176766484488578
0.179046858936393
0.176503632917333
0.180844058106168
0.178768506492003
0.176370404717052
0.175369342897438
0.176660379067333
0.176494610225872
0.175498320534968
0.172995427688008
0.17453939967796
0.174951277390046
0.171435003673231
0.170877357171132
0.175138815415353
0.173573865188619
0.172650438089392
0.166678791961425
0.171260131787156
0.171824439190728
0.172860022408024
0.172958934433711
0.17113708327559
0.171372171284157
0.170060199448315
0.168752971489565
0.169783028512883
0.169675245050872
0.167765329577788
0.167905518214532
0.167163312714918
0.167963545267561
0.169365685088212
0.167895383349386
0.169774030851168
0.164758744127649
0.165625581911836
0.165780612888407
0.165148137480466
0.164109729947157
0.159045342984929
0.162053504501175
0.158552940554887
0.161504781840057
0.159933183825534
0.160368265660442
0.165306039945227
0.164161247766606
0.158951171929736
0.161228446631399
0.157522562316219
0.160975058421287
0.155486365897443
0.159447709642484
0.156530890673329
0.154422110961446
0.154533763294041
0.156099935600243
0.154499136876234
0.156265316364333
0.154125786625474
0.15470800592081
0.1572078901143
0.155144061293983
0.151740109916727
0.153187937661589
0.152310875365175
0.151568528809989
0.150848333784397
0.149766539825427
0.1486853793452
0.153977613359922
0.152002087010991
0.151311857280643
0.153551403161154
0.150583324944345
0.148793613882323
0.148000575142771
0.149797158780289
0.150332871928868
0.149251811586764
0.146296144525352
0.148989013052205
0.147387623600528
0.149886390907825
0.148385954254415
0.144929640189538
0.149838565333872
0.14525933594141
0.14783296589249
0.145798135821261
0.149037779021633
0.144022409786321
0.145265633845917
0.144483466804884
0.14733985815381
0.144952554477728
0.143844089490567
0.145002140007782
0.144467725311336
0.142474333985136
0.144666421150398
0.142388666155692
0.14358948773934
0.139490052356258
0.138250664644024
0.139343203747852
0.139496029345512
0.139307106868315
0.138658050838223
0.136655055474267
0.135656627021194
0.138403512847029
0.135767571819911
0.132828549225699
0.135639949128779
0.133935132131713
0.135079227939316
0.130198721736275
0.133053058870802
0.131886030868154
0.13412662247398
0.129300727107903
0.132044966313212
0.130687916083375
0.130813208492137
0.128626483938405
0.130325222249597
0.127853254350056
0.129615578029429
0.125796500771203
0.126729849000003
0.125848942087877
0.1232248284113
0.124449477606798
0.12702303353846
0.125733975065897
0.122549491053575
0.12275001172163
0.12433758240391
0.123648277699534
0.121603000785973
0.121924784420836
0.125323517789768
0.119182093636215
0.123780420637261
0.120811947950912
0.119927815184798
0.120077598258622
0.120362348868326
0.11900456718507
0.11959102368121
0.120048182424997
0.117483384219106
0.118102665174432
0.11505243392167
0.117908059573139
0.118049035114872
0.112671790357816
0.116032531855697
0.114137610193015
0.113926628647221
0.106821580495681
0.113732413809063
0.110006315323523
0.111311967006138
0.10877864921336
0.111020332797485
0.10805493010157
0.11008651657458
0.10686705657384
0.109271313680122
0.106147659133111
0.107386904347487
0.104970102352811
0.107066985972861
0.105312628738269
0.105664030167268
0.103216159823838
0.105150084619261
0.102016067241872
0.103334965069739
0.102938041472161
0.103656497810867
0.098563203327491
0.102160956627806
0.100836520728716
0.100283887657541
0.0997150093779753
0.0995490756407851
0.101599277516822
0.0992603034432949
0.0985228428723433
0.0995951601907793
0.0986186656065037
0.0988423603874737
0.0971371440375297
0.0997707948999702
0.0944377018955493
0.0976470307678023
0.0979588688279037
0.0983198530257774
0.0954416545645795
0.096225292115343
0.096713177292161
0.0990232131393447
0.0964256956087215
0.0945524714339795
0.0935307524714419
0.0997519220168802
0.0945629237188964
0.0993451681412032
0.0965099099906468
0.100866907667529
0.0958018295575221
0.0987116425925822
0.0950632996539301
0.101925306001334
0.0972362818976549
0.10186879898231
0.0982806133046006
0.100955701648295
0.100051291282302
0.101505869226976
0.0984821659576227
0.0992007597032275
0.0844597346735511
0.0913304119163438
0.089464223251837
0.100774614932069
0.0886294445616575
0.0898283945934138
0.0909790815925511
0.094878483998335
0.0859500929739897
0.0999103711124778
0.0911951259718667
0.093704177933894
0.0943977026551047
0.089692769944428
0.0798177778617172
0.0936682515881406
0.0870520682539997
0.0999443030347858
0.0832156930393923
0.0954832168722131
0.0898206119542273
0.0956759862306126
0.0778020963613719
0.0985726229275718
0.0783025169322278
0.098391607423968
0.0753313752193216
0.0965011973623707
0.0737432504008054
0.0988236520469015
0.0738854772295814
0.0964867587289232
0.0772890882200526
0.104200392658532
0.0763440807713625
0.106096957249347
0.0719479676013904
0.10058647507266
0.0632195552342625
0.0957035089157618
0.0677634480026922
0.107766019653012
0.0783476034612221
0.105031906777198
0.0647905005478431
0.0929401533274826
0.073658515493711
0.106854768925092
0.071258157954465
0.0915287646685869
0.0808147564979106
0.0986333859345028
0.0916581992031205
0.0759554255105545
0.0974420023661932
0.0771067222895033
0.101312335831399
0.0681295174834803
0.107684897470522
0.0635838524395461
0.102932863252171
0.0697818400289494
0.106035258002866
0.0701244045129189
0.0975348584674974
0.0757157134249363
0.0887512824508089
0.0815186402120798
0.0835959737100816
0.08245956807773
0.0815329239551976
0.0811704249130523
0.0829474099560498
0.0785927062465469
0.0856391524421748
0.0765776272312678
0.0856329563784091
0.0751519665822793
0.0837198503957093
0.0761932892812197
0.0824054420281455
0.0782224963930716
0.0811938747901655
0.0759525788216285
0.079473750066652
0.0766931478659628
0.0837460372879496
0.0787723349515328
0.080743638774557
0.077049080205077
0.0807932821827416
0.0761760465296719
0.0808817136898633
0.0742852811781727
0.0791923512328389
0.0744131157321145
0.0787147427888784
0.0752878504530289
0.0769936482007001
0.0759852368101318
0.0801965181887205
0.0758727100626385
0.0772364538541238
0.0770184576259712
0.0798316252292
0.0762416450302496
0.0800820719482377
0.0758666473359301
0.0816255896580563
0.075882852016833
0.0809211309086543
0.0761530121677554
0.0792937249395941
0.0774202793673935
0.0794935926801193
0.0739489361544307
0.0788032714282584
0.0754918651393108
0.078933527703409
0.0781247949879635
0.0818230996479486
0.0776486836217976
0.0802273785838159
0.0775640271734381
0.0782012636715459
0.0766091500103713
0.0807596995274299
0.075811566530383
0.0784356553870131
0.0791729595502966
0.0796115323823929
0.0762253582134485
0.079849993903246
0.0766136827285232
0.0777914091193071
0.0773862137274365
0.0774972184612531
0.0760960338738624
0.0786713538847856
0.0774321428258896
0.0802232047494698
0.0792869826123956
0.0793467959030305
0.077462657582193
0.0778676921128846
0.0761971296873049
0.0783451293535056
0.0794467260852326
0.0788907922281078
0.0760550792241637
0.0777022559978399
0.0779153730991843
0.0803624517091002
0.0773472553479507
0.0789849494314677
0.0773262902144744
0.0776603999757153
0.0792372241978851
0.0762211909496379
0.0794016393499863
0.0804294505700727
0.0774728600923473
0.0793998739761725
0.0785648593009146
0.0815725426108434
0.0809683391623973
0.0811251704567558
0.082110380139049
0.0825314279738808
0.0797888351846245
0.0794194404475892
0.0782702764637131
0.0805293363667159
0.0807308956401903
0.0798600674521428
0.0798692847305627
0.0825130321825492
0.0811138579498728
0.0845848529103464
0.0834211641285678
0.0816080884837494
0.0831548342606667
0.0834527239134814
0.0806162814216074
0.0828991324799324
0.0835311740643781
0.0829795452294199
0.0820008109763755
0.0850628729095097
0.080029599848169
0.0827184148160841
0.0823423929874077
0.085751855373515
0.0837444574945787
0.0837943970901532
0.0816195763180225
0.0842846789896035
0.0821826742587872
0.0854198202096225
0.0827003330288787
0.0848895660928794
0.0852620273471013
0.0848828738586699
0.0844628432345426
0.0874126685745742
0.0830280004192691
0.0851599406350387
0.0841117830920971
0.0837442976215092
0.0848691342803786
0.087722253163515
0.0867368050101077
0.0856061322995905
0.0856474428236417
0.0862323511637198
0.087697394468265
0.0874322606161353
0.0869382101287453
0.0897973376729106
0.0874253749695361
0.0880691741727304
0.0882080092805365
0.0883570667394658
0.0903996157034463
0.0882948222075916
0.0899232599463858
0.0907114592924916
0.0876640435108212
0.088927462655046
0.0898099540549025
0.0900802569162747
0.089774562847641
0.0926396447638503
0.0887951178981334
0.0896095571216737
0.0893684535918138
0.0899147241936233
0.0881740055812037
0.0883602877762772
0.0898812485570031
0.0910336260871341
0.0901153915297901
0.0881929500379169
0.088617674543095
0.0885985570028204
0.0874544226191991
0.0886458240785761
0.0879503537690988
0.0863873686650611
0.0883246948547932
0.0864187036323692
0.0869539206645373
0.0853400912533216
0.0874701851311546
0.0873031783212899
0.0859106614387983
0.0859622523292147
0.0872966835532632
0.0843218320967153
0.087724648493036
0.086053196812312
0.0880738764240051
0.08575434542056
0.0856180687619252
0.0860511031941098
0.0854237780989909
0.0861342829120831
0.0865104844714603
0.0870150708436564
0.0841022984592488
0.0854159792806311
0.0854661421060771
0.0876101609108758
0.0839060705916529
0.0835115165062132
0.084604046852991
0.0859515825389371
0.0841294227987252
0.0852022541647395
0.085814432893394
0.0871414086072289
0.0825834743820668
0.0848753184853801
0.0843225687775431
0.0824532718046497
0.0849079917002632
0.0836834505676076
0.0830596870074443
0.0824057743435751
0.0866079913030847
0.0842770997671374
0.0839538356601312
0.0824693288758629
0.0815484915709293
0.0827643872565645
0.0850702292423093
0.0838159464122679
0.0822479251622679
0.0838246514967274
0.0869635777167886
0.0854727973638224
0.0832029807905984
0.0825663804642803
0.0828243674608524
0.0828707344547309
0.0819769197989993
0.081055761977366
0.0821525034684884
0.0833932040722343
0.0818125680871881
0.0834371808773413
0.0836548547133386
0.0813325928441754
0.080750054806501
0.0822869202140255
0.0814328032535057
0.0826111139029704
0.0829328316002244
0.0848235873687457
0.0818622129394942
0.081782551549057
0.0807358728697815
0.0828515425806803
0.0822060455016152
0.0819424398944316
0.0812773959715288
0.0871630175136097
0.0841663555412271
0.0809381361836374
0.0838527734735851
0.0818335293134762
0.0840185317116899
0.0815708815038475
0.0798204789901473
0.0794703777085394
0.0818559267824041
0.0799724966467176
0.0838935071243397
0.0807298320022843
0.0827956005773861
0.0820481203120523
0.0802818327015082
0.0788582648094559
0.0800547793217044
0.0813982596831692
0.0810894481928656
0.0815000824407493
0.0811896713381013
0.0795472843513594
0.0814491743811929
0.0802225391975434
0.0801085209141246
0.0841875558233965
0.0785362575181293
0.0783097037786679
0.079645553205855
0.0770480256610232
0.0771910182679559
0.0794547956434095
0.0789488616091006
0.077374210580946
0.075388461979108
0.0760578884247025
0.0757488127229168
0.0762504013363398
0.0750131316578927
0.0705465242701553
0.0738615896686518
0.076480508415417
0.0754899670118397
0.0763302833004214
0.075127033338812
0.0739536095803662
0.0709362366397019
0.0741167039648894
0.0732089986998603
0.0749774271205837
0.0742096299141535
0.0804362246154443
0.0746294383084812
0.0703590708193317
0.0723707350240326
0.0691969186678496
0.0726441830011906
0.0680541847101095
0.0700529129531802
0.0679091456023044
0.0672376682126639
0.0688138446540905
0.0683330854651429
0.0684738312332181
0.0677265427627527
0.0657324265644925
0.0684157573962122
0.0669115255842696
0.0692362573433209
0.0648833999991421
0.068642219538346
0.0669691572338459
0.0679699155380778
0.0639992048248889
0.0679542750719744
0.0634750905607767
0.0706936878522131
0.0706109656018768
0.0820429516207441
0.0671523158650115
0.0667914978553201
0.0687941254051048
0.0716582953762519
0.0645435099571133
0.0662806744025515
0.0642252368408018
0.0656420780534093
0.0662741999907479
0.0648644236806146
0.0663773063541198
0.0658248966885974
0.0651736984975516
0.067319892736479
0.0646777647070801
0.0646725753574473
0.0624709521791987
0.0653039137726491
0.064643224192998
0.0660546579575551
0.0631271163927536
0.0630685186610485
0.0630424044078594
0.0662765206386175
0.0644811988919238
0.0758310553163158
0.0721874875693068
0.0667103206383642
0.0650655051894973
0.0621435344792323
0.0631962845942632
0.0622018525283942
0.066225015751493
0.0636524284605757
0.0642628862428253
0.0646792419209301
0.0622407626730844
0.0651961822902543
0.0673417940993802
0.0643507877468632
0.0626382991921111
0.0647713735343404
0.0625991839680274
0.0632601866947339
0.0662041493445545
0.0637193640125155
0.0633134558318911
0.0623635732461113
0.0699898134746857
0.0641108648393481
0.0672481326325381
0.0699628039191307
0.0888400320107844
0.0648444927329924
0.0650526576281805
0.0643882169140539
0.0609976389887161
0.0631957766276973
0.0621259769943575
0.0631112296156827
0.0623861680175676
0.063746348950104
0.0645687238556461
0.0628560019594443
0.0638402979349758
0.0620073704951663
0.0603239175314987
0.0612920975198338
0.0606019095326881
0.0647055857158402
0.0613924197708277
0.0622864900073814
0.0698111888617217
0.0811497484949094
0.0726048996710512
0.0606732040527615
0.066265017004154
0.0669930000463186
0.080487685714755
0.0779769994981505
0.0568025493410314
0.0674345556249699
0.0577107967625083
0.0665445995755199
0.0555229895304898
0.0650523897035862
0.0598750763212836
0.0752425463614029
0.0604410499917371
0.0694856814885175
0.061688172019922
0.0621252887588387
0.0597696158512024
0.0616422481616247
0.0588961979260269
0.0615067166474401
0.0597178648355658
0.0604202582510975
0.0588863513207794
0.0596091799179845
0.0584874983209532
0.0642719918780389
0.0626037312312757
0.0750236793328451
0.0583857296228917
0.0643411873514981
0.0575009474236654
0.0636325136463339
0.0699319670343352
0.085009121393728
0.0600865457820457
0.06268590429288
0.0607436421952217
0.0600257096316521
0.0635316047570121
0.0606257935425447
0.0606916584226412
0.0609101659358642
0.0585578245851826
0.0600591214331055
0.0625580384133332
0.0589892565036261
0.0605186689446213
0.0585595686139882
0.0592508223553938
0.0598832286835197
0.0607267553477768
0.0598583597855476
0.0632086841782775
0.0700941910205068
0.0753753602925145
0.0959580684950242
0.0729856342168642
0.0785256526479803
0.0633206191209596
0.0664964654090085
0.0590410063169108
0.0652249936653443
0.0589973941066477
0.0656785603784209
0.0583871516853301
0.0649166661695846
0.058780582846771
0.0632817967799634
0.0575595830191022
0.0596187959494645
0.0565071902137288
0.0625677644869914
0.0573288656646618
0.0606323353366557
0.0552491775310418
0.0594567375117302
0.0621864430462053
0.072025112738476
0.072294546922654
0.0611270920169271
0.0767534144268201
0.0820858996167601
0.100667861949358
0.060817396781379
0.0714837965152293
0.0591351486047738
0.0585371959316809
0.0592968102332473
0.064532390979959
0.0675810323539068
0.0628409838026801
0.0577821907057304
0.0627019545457845
0.0614805052814674
0.0609534392473189
0.06392588495032
0.0791489166304668
0.101180057980546
0.0775884783541046
0.0576720023011101
0.0681469716294574
0.0709631246727812
0.0918751287259811
0.067337519764288
0.0612048609317026
0.0682204860685725
0.058012436923334
0.0633120932827232
0.0552519957528907
0.0653267695680401
0.0640148405860274
0.0674194381858867
0.0587313285009735
0.0637765419494694
0.0593935280893294
0.064868100630037
0.0690286244293628
0.0744820544594829
0.0728358406941151
0.064920396079531
0.064044648068759
0.069050400071758
0.0592140511935078
0.0688257415429176
0.0584009536694242
0.0664198733586287
0.0726970167125521
0.0848021838458334
0.0729620646151844
0.0846597965902322
0.0775563919100097
0.065641782692684
0.0659429728593958
0.0879704087777927
0.06380255253275
0.0774402792318442
0.0715221809725124
0.115409818851411
0.0867089318018347
0.0907059281218648
0.0680523664268264
0.065357987344632
0.0670735087430264
0.0632657378942048
0.0759476127813847
0.0782972743337858
0.0797228252321139
0.0572000908550581
0.0769836281626094
0.0712033727197827
0.0912390383405895
0.069323178985511
0.0786782539593459
0.0648750988691043
0.0776261587610804
0.0752482958031902
0.0825861098037641
0.074525842393699
0.108794001389971
0.119339722054741
0.0875506333960356
0.0816116547937853
0.0759502409804269
0.105640416684568
0.0846955658861154
0.0656434456192535
0.0794781190304659
0.0653176280028769
0.0779254456357252
0.0823779416847826
0.107822824308177
0.0887482448485691
0.0694669202736489
0.0797687614685179
0.0827725164229918
0.0965900172382109
0.0925939382780221
0.0702461848281311
0.0770984812651048
0.0700065797843974
0.0971295435560262
0.099496326966642
0.120509771366715
0.0871149414101866
0.128947135633937
0.0995856461356946
0.101579352490591
0.0881715931687125
0.0922832161080125
0.100894890928207
0.10725525528623
0.0815892922133052
0.0891680652788558
0.0995975380216798
0.113143039099561
0.0883589904269895
0.0836291141344693
0.0907099280215744
0.0953965155172098
0.149000614867251
0.172665604666575
0.11878345562059
0.0955115535955388
0.106380202684284
0.117740841183503
0.101790366860517
0.086777528716464
0.0956133490502672
0.0892419412544467
0.0911471823461381
0.0975709555211155
0.103675388798026
0.103079601820087
0.0923814661614104
0.100846088874828
0.101471723960288
0.145987180013153
0.170419769265251
0.142390466023079
0.131430944040184
0.136947058402215
0.144798991733466
0.111458864303745
0.112758943117745
0.105063598831176
0.123686010805776
0.115206945806375
0.109985341383085
0.124503811787505
0.13654338899498
0.144825622148093
0.138487352921708
0.144468537948329
0.128244761698386
0.135924254149942
0.181409755984714
0.204349083111188
0.18498217980155
0.128833678947754
0.176851496588101
0.155118935731787
0.21955228819955
0.155371730792634
0.145597231280765
0.144451152725729
0.15446448513492
0.155021895690835
0.167918523396789
0.171666878575172
0.184003526548663
0.162444319307942
0.186969140090263
0.190268106094405
0.304145623980269
0.243483224095155
0.209079034448765
0.191293776346755
0.22320159087216
0.208942510360197
0.205793669427434
0.190805242610041
0.215285660104154
0.218992327860744
0.269355140880936
0.220889297174669
0.220359751285355
0.240883194248447
0.24408827422746
0.258768284312261
0.255945999819829
0.288825658342137
0.237380987511199
0.250438074711411
0.244734210902493
0.255406180653562
0.266025140677038
0.288478847387022
0.292087976910808
0.266634251271477
0.274821797238461
0.266974058407931
0.275537580832857
0.275912030214684
0.284439153715123
0.298202276747981
0.337484089993049
0.392637160345954
0.393171426469774
0.341504883961193
0.291727577428413
0.298467425523412
0.310126507675001
0.34166008517991
0.361326566360182
0.340914922687966
0.333917741673776
0.291253221695413
0.303789148652242
0.300208183787133
0.296292193511572
0.300469751207422
0.295926856033294
0.311572240809096
0.319374301559564
0.33857533123809
0.334217623993056
0.374851919895933
0.311903297915347
0.29877262163392
0.292321028813625
0.290279268713137
0.286597209653359
0.281527452502301
0.300689181351402
0.311775297664679
0.297503245753506
0.272193612567349
0.293262322164895
0.300686546078182
0.312672890389562
0.271103285652922
0.275708596360942
0.26734645757176
0.261517923906967
0.275577364497741
0.290408365184907
0.315648895247472
0.277310631089676
0.250399407233079
0.258561533647393
0.249045987867726
0.250383828015142
0.241865578055354
0.256482278013856
0.245110497251372
0.248743080077793
0.245470169556364
0.24180468914351
0.228028028095963
0.241524363290558
0.239556956932045
0.243726509214122
0.231813937464673
0.232341795914776
0.22817015288013
0.232578801906736
0.226463636009038
0.232421780402682
0.227437655593647
0.23936430718025
0.230820458182827
0.231197115218926
0.224528480303619
0.230650084117949
0.223464263127233
0.231836404142424
0.218751442245152
0.227338845974839
0.222494849989666
0.22391718363516
0.215595161548362
0.22309936506716
0.219296006572575
0.223600606548746
0.216170897663246
0.220003113301554
0.21375374357301
0.226016336113979
0.241836390668806
0.260766153672865
0.246855168581376
0.214887872640854
0.215100686834907
0.211695415740864
0.208891866706381
0.223291527616268
0.243220006454928
0.242222675007074
0.204894828227353
0.202901191389645
0.203712517139193
0.22562614841256
0.210557073133074
0.20421858787708
0.188262784888577
0.215526804361164
0.220501918231963
0.319140459869315
0.296354119485961
0.298063322990428
0.207700604716648
0.202341513191264
0.222222989012392
0.224860053031347
0.196110050023544
0.183602730003553
0.195922306103746
0.234610388388451
0.211368721235167
0.184362530316369
0.177123218510552
0.191027087489649
0.222301146977513
0.219499495354204
0.210776714282179
0.223337305535099
0.233944261629282
0.229081145511124
0.265780274367808
0.281641007988244
0.212311502649583
0.181828015915092
0.178664699059291
0.190838076779981
0.209835740180754
0.231094372335024
0.202391177583163
0.191963262974926
0.173282663749631
0.167753509753312
0.183284601029271
0.20748753646238
0.19095884134537
0.214535781667139
0.204953152332371
0.191931255588529
0.190810330715259
0.225855962008401
0.237504832742345
0.25162889855222
0.179107750289989
0.186166144251028
0.227238388272825
0.228991171903144
0.197114513164014
0.191314033914717
0.169138604785748
0.192695865163898
0.185319868800028
0.187817326194211
0.200013725790385
0.220514522370496
0.239575927088451
0.268173958174277
0.29072831788457
0.236541362777311
0.189976948537419
0.179462426315812
0.17958088346114
0.191407791979641
0.173883632762235
0.195269436585709
0.210159538028155
0.199200012571762
0.199027065432776
0.237081864964789
0.202582815765458
0.1893240646203
0.185722047791554
0.197916896387336
0.208692231852406
0.251191923079524
0.257493336663312
0.233994397200723
0.234891305126821
0.243393010668037
0.223126080187635
0.216149521350486
0.218578393505849
0.222361900531084
0.231733424179922
0.252346610272081
0.241695168235848
0.246163148292713
0.245808904350622
0.259606209178884
0.294150877238904
0.293861552150352
0.284820445928503
0.315560311995554
0.343558320695664
0.36697137457006
0.323203670033284
0.312537135883023
0.313832762109149
0.321403515700643
0.325015796043952
0.33660608320935
0.363041675709549
0.381012483598849
0.353778862801985
0.358233565206163
0.362547984100261
0.364670504264996
0.381727374240163
0.415286152981939
0.427391075183342
0.468609041140612
0.452550656604042
0.424308400317026
0.398105297238437
0.393517265845328
0.404022689778789
0.40988646829659
0.397107915634762
0.400099037401455
0.415536289812447
0.431343526458144
0.410496515475254
0.409290810609165
0.404392886604787
0.414023988371454
0.407836287570761
0.421273791660576
0.410297565554652
0.414531408790854
0.419873471998424
0.424139880168101
0.445430622500096
0.509397448415508
0.450805757450781
0.440195077535356
0.444468416428642
0.448608807441296
0.440004621083897
0.454591760901936
0.471611585146054
0.46374057160134
0.460557877981887
0.457363760883526
0.45746974409949
0.459405911022195
0.489255705973744
0.494807101755126
0.474406654679637
0.477179892144314
0.474517708597719
0.540071216011842
0.525463493004296
0.523239617494479
0.507487226284844
0.499608549628182
0.490155733668279
0.491886566461051
0.485214477443778
0.501929889230123
0.49371210207343
0.496156835496603
0.494926899008613
0.495060515466918
0.490328011309847
0.489223156025542
0.499908976094821
0.517720464596894
0.492125213854891
0.48898937758913
0.481556489106194
0.482573776329111
0.484511580034718
0.510308161914448
0.499435274128038
0.488822772594986
0.48069001887978
0.497857902579657
0.507709686616954
0.490824677303977
0.464188650206386
0.471609289535264
0.470783254367211
0.478032066619932
0.468973453978716
0.495458963571502
0.511495970787584
0.498738181907496
0.485278628521885
0.488473882141582
0.48575418003433
0.495103885024753
0.500047236714339
0.505314730551945
0.502495008032083
0.512129171440979
0.51281135333033
0.510027267853803
0.516649025493442
0.535309948989129
0.549963002992061
0.54490079229116
0.52620017251164
0.534961337469606
0.527746904551817
0.537003521987479
0.541945958952854
0.534023222067769
0.529295153432402
0.539989969797815
0.523225246755476
0.541714720306553
0.572272926234516
0.541678560808286
0.548212769352635
0.532722323754179
0.525277395092352
0.529816925395567
0.520935348133234
0.519656541936247
0.520198496413104
0.521907602131486
0.516158927164967
0.509138114307976
0.503685621130374
0.505976049084111
0.507206447082248
0.51025589406477
0.502042642797116
0.509538824573615
0.496389845508892
0.505389301212926
0.498666481805005
0.501054247826298
0.497321622616074
0.495821581743556
0.520525262114432
0.524880514195044
0.523725436266097
0.508952688496244
0.511816989261097
0.502934663597074
0.498709769734153
0.492499177027844
0.491083457107566
0.497703648232165
0.491628340940455
0.49287940513288
0.484088521472474
0.484380597681453
0.481390806557027
0.483362413465515
0.47329759174057
0.477435430724128
0.46743585965545
0.470739585300601
0.461319973775551
0.465902403992635
0.458472059472998
0.472987205691062
0.454793038467812
0.4588341583368
0.455159859757997
0.448871573122064
0.445604220613266
0.449319808311192
0.447617372937694
0.441188605341034
0.443220625573715
0.434579001961846
0.436629340625532
0.438763417121655
0.434888277862558
0.437514458136349
0.432966870063106
0.438970435019214
0.426744419824839
0.435972407288454
0.428835080560673
0.424300967144345
0.423893196796133
0.425464949071286
0.414524828221879
0.418203171123532
0.411959146736654
0.406663370991777
0.402297517702454
0.401700562777801
0.395363287169308
0.396804813800018
0.388303077893038
0.387237926502351
0.389972951697793
0.391454983984482
0.378093261816842
0.378336822313229
0.376023540870421
0.374720933048429
0.376275944229108
0.376758448064616
0.371289762877976
0.374910478463914
0.372731351917126
0.371958857475344
0.369383508431916
0.374926518577868
0.367385263770889
0.371488546563323
0.369772111893724
0.373328666449437
0.375641566699988
0.376074508503899
0.375648047094587
0.378668156684091
0.375130468822921
0.378296175194279
0.377437638335744
0.382110454644343
0.3815511821743
0.382413621565188
0.382068556894481
0.385184210280213
0.388915653180974
0.388902369841303
0.381505967626746
0.386462527859739
0.384757655171169
0.386607822237834
0.382846265896912
0.385783888836296
0.381634938976598
0.387025938877488
0.384976044416754
0.382015558807084
0.38214130040296
0.383267982153137
0.380906430403749
0.385008025053306
0.381594663836293
0.385254926866474
0.379085226263066
0.380779318163574
0.374997707710222
0.375375371173275
0.375230052508497
0.375500985840579
0.372914466867301
0.373369311846504
0.370164256199302
0.3699268791649
0.366719312886807
0.365230978740453
0.363417748905261
0.364108398037216
0.359946431548202
0.360557663904078
0.356234411115611
0.355162130357522
0.347496967152046
0.347512724773176
0.34136158388054
0.343528501511687
0.337447766239762
0.335383838381301
0.331450223482426
0.331661066620645
0.323535497983467
0.323056784065307
0.320159096092275
0.321546035987849
0.315148499902438
0.315611658097048
0.311990264982647
0.313709274912847
0.313604060611931
0.314579580494063
0.312904599013791
0.313958022893657
0.311428092778241
0.310358677652263
0.313476259238451
0.312561834122548
0.314194150181521
0.316565297197737
0.315788945963657
0.314639880014898
0.310906246317266
0.310632141768875
0.307324091183274
0.304927314935386
0.301405044588914
0.298131571458098
0.293332050447115
0.286872585148398
0.284629313965767
0.280583928708396
0.271674743085688
0.268837769724807
0.264525849331149
0.261925113665541
0.256102978260013
0.254366710721831
0.25042367778637
0.25121449590349
0.249391114984593
0.250297965383246
0.252537978334454
0.256745902123212
0.257248749910619
0.263192409285817
0.269670314718303
0.274730986276783
0.281513343679767
0.29224423072021
0.300339598273482
0.314195002157004
0.3253332885021
0.338524312583528
0.354848417631544
0.369668581988357
0.383389871298712
0.405247243679607
0.427630379686352
0.449375581199442
0.474473601700516
0.499360158796545
0.524074442388836
0.549280877955175
0.583675943650944
0.610736794900999
0.629615619858181
0.661547571630167
0.691119098936551
0.712698840379025
0.735737355837677
0.765349515029679
0.787457335032118
0.802613418794575
0.822268522814908
0.836693449255459
0.845292150223759
0.851816387682126
0.862931404995757
0.872564564135353
0.866743477166665
0.862502501706152
0.856161821430113
0.858967451378307
0.846880257814838
0.831630820428901
0.83241188009076
0.809614001883413
0.804500544273222
0.786946166015524
0.783740987336464
0.765154851875228
0.762006818320748
0.752130173601338
0.740895967810967
0.747110136671724
0.747029008625061
0.748340504268268
0.74223093684902
0.751807210102699
0.74445366132231
0.756283428428101
0.76038018635349
0.770001167134072
0.770813593811806
0.78411749332112
0.784080736288962
0.792664244424783
0.794446139672392
0.803509297263798
0.807289278149906
0.823365991479614
0.825269529770057
0.830374986734655
0.833663912102003
0.83560253256065
0.838896195540444
0.85416537896765
0.858996583057165
0.87077950000707
0.860826716366367
0.874485549122068
0.87423553019657
0.886464635337912
0.871571312752958
0.892254221235442
0.892581767865236
0.896862749264222
0.894127212430069
0.901380827096269
0.906165169604143
0.910025727369401
0.899428350667431
0.900691630821725
0.902922603573472
0.911355627895853
0.901424221308261
0.913307803177644
0.92557229078342
0.938037260048167
0.945906961429989
0.946279293025064
0.964312443548634
0.988922881150968
1.00898866748662
1.03180584891008
1.04297866924881
1.06406748085902
1.11125658438982
1.14675064177457
1.17575366801666
1.2083976084308
1.2374967667853
1.25514391065301
1.26323705333613
1.2907603303675
1.2988288083959
1.3175171153025
1.33607487680304
1.31093635872951
1.31703738843911
1.3018865108155
1.30487018598055
1.26279235983659
1.27869787189226
1.24709434130927
1.22950394978985
1.23044327861344
1.22123922906295
1.21610255492529
1.21669149660621
1.23514066420805
1.24687211879294
1.27108286623718
1.23840932774764
1.27907802864833
1.28487631014476
1.29689275561402
1.3410137215379
1.34737037744405
1.3371199706219
1.34760666857858
1.40268922226258
1.40557528198114
1.46551629093446
1.45738486898487
1.52634086710427
1.46979600535278
1.52346387715236
1.53058428970271
1.5807945992218
1.5657438562653
1.55533250804473
1.53364029043741
1.6409939564663
1.59875081774329
1.69337812950537
1.79005039461692
1.76806044510677
1.8180706750474
1.83487613654661
1.75967219189363
1.85423210586619
1.89922956196264
1.86487329048141
1.76930031266038
1.96964720596772
2.00111178850238
1.84999356874678
1.90976259031685
1.94563082943234
1.82378637714833
2.1041442028033
1.89608853875964
2.12401222207359
2.04428686849734
2.11874456807171
2.05849308055212
2.17397357921583
1.94313524144961
2.19287135750672
2.20266316498611
2.27388418931229
2.17868914851545
2.11187879248248
1.9197513559283
2.17479731400745
1.96863373617046
2.13305657879503
1.94839852576425
2.14279014336386
2.04498755415048
1.99540415581509
1.84042710061292
2.07247746254526
2.09089516705377
2.01195233531442
1.97872294619528
2.12134839767988
1.89439233779825
1.93839006244908
1.82619113848872
1.83270110903666
1.79501852130477
1.71640408896395
1.75386079061032
1.7807727037305
1.77579843422044
1.85649772827507
1.76137804496315
1.75282662295808
1.72701808506976
1.61053432898411
1.59513743819687
1.51435591354086
1.50115750728972
1.42082135460014
1.3846443949225
1.34022911183122
1.27522499949248
1.21896764405589
1.16895531397772
1.09270184042063
1.01396250635142
0.972818848825689
0.89066661381358
0.839023413881155
0.783346582349761
0.74833018808953
0.698253215762357
0.676648736889242
0.633289829861647
0.609838317776556
0.581622071003483
0.563380522759325
0.538539509042928
0.518118710617882
0.501611172088636
0.489895302106354
0.475880430818478
0.464067984906001
0.448623012100784
0.447857811709532
0.43503925922465
0.436408308147469
0.424468112863574
0.424439606165666
0.418922358526871
0.418073426232433
0.415867375866497
0.418420844313481
0.414490240306068
0.420299462697845
0.426586128063099
0.427126594125932
0.435551295581535
0.447916188464725
0.460637690071272
0.463601550809005
0.472035174231699
0.490527204684064
0.491913332621548
0.510119002757125
0.506590067099928
0.518008860276582
0.523901651467258
0.533026768391392
0.525319043635172
0.53832098047596
0.549994538131265
0.547325292435718
0.543992519091907
0.547089659475521
0.544888628773608
0.555296801745989
0.555516727971314
0.544663594697025
0.544788636607064
0.547866654082857
0.531624956168565
0.548665592129041
0.539908277424501
0.530816116242692
0.51590059737207
0.521424703011628
0.518968211123704
0.517079141211777
0.511451156153611
0.497974651046288
0.482235525091369
0.476287298712615
0.471889907693248
0.475089363858167
0.46377260181709
0.46580854634523
0.45944751167286
0.456454772740086
0.45086123368104
0.459901839906773
0.452846516028849
0.459824753266348
0.454373039312037
0.448764274448575
0.456466682629769
0.455844391024742
0.45491174528406
0.458669481154624
0.472772878696854
0.46768949667443
0.476632886368186
0.481034525253713
0.468533777547252
0.472302623565563
0.458804217751041
0.457132601099935
0.455333412182593
0.445447188194334
0.438236116747193
0.439068983153996
0.427410063692168
0.419840351330197
0.41214268019835
0.405724890685489
0.409664926158421
0.407830783271296
0.39957642006069
0.393954109348865
0.395011201187049
0.41023754260939
0.407514657537684
0.41248649283608
0.41101771811759
0.410700417550842
0.408862575342582
0.419294576511505
0.420676583376876
0.433295984321014
0.429522605761642
0.443925097343355
0.437131894008777
0.438692579033991
0.448811088082932
0.457000741990448
0.459973711103712
0.470141407186398
0.463249287542214
0.465163056091125
0.466222234348743
0.472514021196969
0.461079124849901
0.474598519395375
0.465154174646624
0.476311932115415
0.468546351068878
0.478949645112006
0.474071007865661
0.484617757030704
0.473040091359417
0.474455789517621
0.463271180476925
0.478323708262655
0.466643904377367
0.469237606499991
0.467031630009242
0.475122603593429
0.463316863698615
0.473035777839986
0.461414561186929
0.452436556007619
0.462071446105938
0.460193064575267
0.440797600715133
0.440034488159072
0.43360254877777
0.436204765088448
0.411815299123958
0.427346459983058
0.415469309130537
0.400642758711774
0.383660606044852
0.38638013395811
0.400633251202443
0.40206346442267
0.386063832011717
0.383050235745518
0.389504658625142
0.388368896503753
0.380811523230478
0.382724400010719
0.374204867119698
0.383355358635512
0.379457252719492
0.393253055359388
0.392467650949885
0.390159455943363
0.389470885101712
0.404282559224764
0.394196749289389
0.396864259945315
0.385149286303906
0.402839464256869
0.398659944544932
0.404494418648188
0.398509472601518
0.416065270331674
0.394951873120339
0.423981456430724
0.42939832508205
0.439719397370333
0.419542142158555
0.442969016488236
0.445778618699764
0.466591026167677
0.447387856632006
0.45419035917652
0.46369832353845
0.486311265249314
0.477761819893242
0.494666523525317
0.482351161997495
0.490561951640935
0.519229917433235
0.555499754706024
0.516827466315735
0.537687171065865
0.554715460819054
0.568991805364743
0.54800549309612
0.589326087392059
0.579673349314393
0.564751040898769
0.552753037438818
0.552297484183582
0.575875398416415
0.592457257267497
0.570687864009451
0.605349463070406
0.576813006706199
0.616550419178492
0.602270843632406
0.630796894359184
0.621734178478607
0.628252074570166
0.631085182735527
0.641432110087362
0.622562219389821
0.624783113100044
0.636137052130347
0.683276543697375
0.6281068590585
0.652134094750038
0.663464563999107
0.667146728779222
0.651225218175546
0.70456112919674
0.685558462079626
0.664905529368962
0.648389902340349
0.67605871759656
0.652467298721354
0.663382171160675
0.615424804187818
0.612324991739985
0.59847707679343
0.623640857072697
0.614066378321113
0.614398681717201
0.586206486287141
0.587245866624878
0.562139710801837
0.56316685352556
0.560227609675239
0.569732005666419
0.550124338482868
0.584076826293934
0.560144235063472
0.583760639221433
0.593736699080206
0.592907736292216
0.593779047250368
0.574235347917559
0.546923845845602
0.571124412381047
0.551608535563027
0.583599131908024
0.57270249602297
0.595240669632043
0.592131296514812
0.595434340402199
0.559745695365657
0.645935222863759
0.58211511079979
0.620566706024574
0.588323992280189
0.578336017826117
0.627967912502625
0.65344821914379
0.568411019655493
0.714211200408901
0.639804389435143
0.635299557684832
0.626527407600525
0.681831140194754
0.650700607101767
0.712339308249618
0.727028445546134
0.707621921971856
0.66781066369163
0.787074356100683
0.685185034781841
0.729946789884857
0.71700419664071
0.834070371213535
0.788116223126122
0.789777185135939
0.771752915872919
0.808083570513152
0.711326723655941
0.785553235287289
0.693771790482436
0.709141906771802
0.723213545938453
0.714224832859259
0.726837029269257
0.797799003054348
0.758016665034831
0.701313837408174
0.604172167932339
0.678339433342043
0.722747591909363
0.732824640679413
0.689364946837386
0.867896520456098
0.677233153637354
0.725171179029863
0.70968244433135
0.72833349520348
0.613068397678954
0.780585368712371
0.559640971311168
0.650013668228782
0.738949379478919
0.672162023502817
0.652541922144039
0.743852265617002
0.596203202218493
0.853426933200277
0.800067237809644
0.823864776257475
0.64172525513554
0.720235163351427
0.592971733760896
0.772873017926196
0.749379585850145
0.416030188825852
0.688748068638781
5
0.752564381683917
0.64282331802734
0.840031993791133
1.02079211694381
0.69585593121764
0.729841400742222
0.819382065495548
0.929264413665958
0.571968918862504
0.607532412280219
0.351617663457107
0.58264622490051
0.529804959821248
0.711155559133261
0.727518415235879
5
0.79122770962151
