3596
4000.36533379555
650.420452594757
1
2
2
0.0597317094440879
0.066731797809843
0.0570487222696447
0.0717814297055861
0.0637391626959505
0.0669381263855428
0.0581885722177871
0.0702064365271197
0.056919916830574
0.0724522598035793
0.0633951412443492
0.0677995297894193
0.0536069478700096
0.0644746420874332
0.061159884820654
0.0724713028187764
0.0523106599973934
0.0678848155073473
0.0591333774614923
0.0783730718345901
0.05360476469144
0.0738175460942061
0.0499586517284292
0.066774201689148
0.0614969068939282
0.0785386463092653
0.0533044557381236
0.0734971693580663
0.0573472599844269
0.0734556268274892
0.0633869817209847
0.0725644388546038
0.0616414198678081
0.0675800136929525
0.0579513101935105
0.0640515921959613
0.0587344946123641
0.0689031028484353
0.0531166780131069
0.0806214014976983
0.0682579376463921
0.0670156336141179
0.0555865539950054
0.0758994534126364
0.0625128232825686
0.0759073955210144
0.0538300720816488
0.0705810596768125
0.0590337960974597
0.0714083338017077
0.0587189188250688
0.0741237659707824
0.0757687553364676
0.0713792486085611
0.0695896175902297
0.0883327833859145
0.0606749750328002
0.0667912461264539
0.0579017627218069
0.0719279524952809
0.0879699529616093
0.0900117972508454
0.0654610298938892
0.064113719923321
0.0548169835620012
0.0747381243831716
0.0556104606634203
0.0707713471043989
0.0550365572065496
0.0720048693675063
0.0566013429364981
0.103788664341774
0.0689296387122183
0.0740081603110886
0.0665912483108784
0.0683644487338066
0.0643849237704316
0.0689118626780404
0.0481173695260286
0.0920236509297992
0.0769935676673846
0.0804880682045972
0.0560748524452256
0.0642090072699274
0.065196335073048
0.0950603446592849
0.0485572910228513
0.0926023544003146
0.0824218907635438
0.0854572006618161
0.0530092160231226
0.0714020326840684
0.0528936768212939
0.0680891894839235
0.0558734678005091
0.0682563092243476
0.0519411420224643
0.0829760303744815
0.044088356034605
0.0839618838269341
0.0680313392828635
0.104081775298056
0.0960145502698752
0.0689107783612171
0.130545866554813
0.0707706538518674
0.0834553541553051
0.124022266785822
0.0714121479545737
0.0739201996328879
0.0541877178611476
0.0783830736246388
0.0570555485671107
0.0866229875393299
0.0427590412086016
0.108932685988219
0.0751482105721304
0.0798202049469374
0.0576079448202818
0.0758239826022425
0.0411083173292071
0.134542402734566
0.0860018333954664
0.0843578085922292
0.0780683833876463
0.0715658655543163
0.0524377050681721
0.130187443531265
0.0726785802987133
0.072375807412849
0.0506186513603544
0.0706883969089862
0.0509876660303323
0.0746600150822465
0.102230766694571
0.0739343425191957
0.0652830641686076
0.0734159038521219
0.0933252979349979
0.134147074200712
0.0759385282687762
0.0796413466560938
0.0503577161861568
0.0942104109378558
0.0973310342421569
0.0868502077021077
0.0560474861146852
0.101315112605804
0.0675007409001211
0.0671954262920401
0.0538249431026313
0.0681813258219878
0.0854164678702202
0.0900745568776429
0.0360137488837518
0.178321565575878
0.104139082317377
0.125374180414462
0.121319000075377
0.0621010475977304
0.0791712267592047
0.0623578280962766
0.0648386328153117
0.0572668544272532
0.0613688270373549
0.049980699544437
0.0856420772210128
0.0910115542723628
0.0572737663524074
0.0917461661665903
0.0930526537669232
0.0883732999013469
0.069403516805063
0.156738262578717
0.0569011793463931
0.083461909066182
0.0890919865779911
0.0874317031946664
0.0526956471830744
0.0909679687805899
0.0793652947204334
0.0745662688520589
0.0607328426646452
0.0638165741783549
0.0685155546165276
0.0882288486253378
0.0608742846667015
0.0724372970795439
0.057773777253589
0.0685896652903427
0.101625658383681
0.129276561792352
0.0947846546087958
0.0814093218620258
0.0670199569900373
0.0463283059152569
0.104923176055049
0.0996224866947807
0.0656353513703281
0.0651776504515116
0.0446863788874578
0.0647637575246905
0.0462099210750623
0.0660412526143067
0.0489821289789783
0.066114047827606
0.112122820645033
0.0802975656015389
0.0649859686913269
0.0598239579156117
0.065667578393824
0.0730153106757292
0.137093234183733
0.0939634201139356
0.0634463256126501
0.0739879425105007
0.0591876771473092
0.0931011195126509
0.078424964962037
0.0619897949757994
0.0615375488320125
0.0652316375649777
0.0592115860276266
0.058267869898046
0.0541087807805759
0.0664803725831491
0.0602490408235847
0.0657102762618619
0.0578679451980641
0.0646305877538872
0.067745076346711
0.0643593564646101
0.0534328746700539
0.0643673802713141
0.0469066470039883
0.0865654395098622
0.0822581894375415
0.0722064350405445
0.060136748250178
0.0584142949764573
0.0609534744020475
0.0584532124286641
0.0530824075262674
0.0699636752229798
0.0559154541317449
0.0588777363746113
0.105660725399964
0.0659749082927848
0.0712845410072474
0.0439786480000174
0.0968822434143158
0.0717484130959941
0.0702187290855093
0.0604573671433664
0.0645598187940377
0.0530619222264524
0.0697947295435697
0.106419975354468
0.0700448106075971
0.0592974231543448
0.0892796091896286
0.0719338925563296
0.0633226223381067
0.0749617091758266
0.0591275411287396
0.158729500179089
0.0779466197855799
0.102964410329457
0.131592351732085
0.0852791683952002
0.0864294325860366
0.0697577594183975
0.054641934367661
0.22347913099147
0.101989277128853
0.0657560285198093
0.0706859716560622
0.095936932551056
0.0488466168371318
0.0833030481173389
0.0622633293899433
0.105391474668069
0.103038890306779
0.13841104422464
0.144019112628274
0.0487727112873743
0.123583535338767
0.0922161426983721
0.072430697221077
0.0594604436551079
0.066920593158568
0.0645166168613816
0.085314893756657
0.0837642747498039
0.0844676924906835
0.0733242300131715
0.0692567965709617
0.112038220223299
0.0682376499213869
0.0617687947128028
0.0635001659266418
0.0808941004910123
0.0500907501272499
0.0732137336948744
0.0553570640836392
0.0924912930310623
0.0542095113145235
0.0755461582216139
0.113559360097034
0.0849698165568067
0.0609735912561429
0.115629458760203
0.0561379314156435
0.0632589621658678
0.0538073433898142
0.069033599220889
0.051541766967687
0.0611577856350451
0.0561107189993184
0.111708933959139
0.0617176270356374
0.0690111075626453
0.0549033366518201
0.0627673731854065
0.0581531352392221
0.0646762511566596
0.0586164235748232
0.0616672445237788
0.0560415151997867
0.0611855313596784
0.0859549658208572
0.109495980965483
0.0466984580246385
0.129693312910138
0.0866407713867281
0.073136405425276
0.0636569352150712
0.0592909533818355
0.0660020146470078
0.0601290164015717
0.05646978198407
0.0574716313966347
0.0619986188010484
0.0853406390550511
0.0662165212643316
0.0680722371921372
0.083201208948276
0.143659768284675
0.128371030672858
0.0801073494765129
0.071315868560153
0.0504980128313677
0.12381489915877
0.0964188507956968
0.0929486839979096
0.106045813281118
0.0547392636724875
0.0827030573113452
0.0500926282683451
0.0667345885475555
0.046666730758172
0.0748579188784098
0.0470533615765325
0.0761269748594103
0.0508892449132982
0.075052747113355
0.0549568068915872
0.0824243310693766
0.0961653542268727
0.082442292896028
0.0577312883135839
0.0810595746219452
0.0503604877231874
0.11958429572421
0.0913452971275244
0.147275462515138
0.105528236737507
0.117972567473401
0.121564481615337
0.0756561924748268
0.0692485493270133
0.0619367317058275
0.0740374893896791
0.0752505234400853
0.0693385940561429
0.074369837093229
0.0675053407452646
0.073330365584308
0.0699688352751457
0.064155522410039
0.068904495976225
0.073255334196682
0.104827451175424
0.070728588181587
0.0828475735243919
0.0749782197320067
0.0972496285415169
0.136667411741334
0.139109435617067
0.0908914794632978
0.0861039980537192
0.0835582016184429
0.0748424799352103
0.0829563527768906
0.0714339136326188
0.0923371650193989
0.0778331909869214
0.135414531715228
0.0912867246080373
0.118609964519862
0.100433265024828
0.0728911764361135
0.116342506542557
0.0978754214341565
0.101813908600337
0.123491233097182
0.0853534990649662
0.0799551433879956
0.119830314338969
0.113180833981354
0.0891185541345202
0.130622752902733
0.0673250192178698
0.103002233470077
0.0865144451960429
0.101599174985698
0.0797922134553376
0.113481809908495
0.0888998367681726
0.0905891342198092
0.091447083530341
0.100665256301061
0.0929519055194026
0.123935092246512
0.101888718669993
0.109748985364768
0.108458603495453
0.0902268487626217
0.100550045534435
0.089653460460567
0.129470533392662
0.13301002341177
0.116928748608338
0.146137770546427
0.0928487600662743
0.106391823279271
0.103402478725682
0.110361427328853
0.089557017724556
0.122122293822595
0.105784010887879
0.117838332800477
0.101989233376943
0.125507171164324
0.10269972825418
0.111083779849458
0.112895156066808
0.108150055439929
0.106495276086964
0.120056371635027
0.120785640655013
0.110596598661549
0.149844687667257
0.167636131105681
0.156549060954199
0.178386410570934
0.113995757783502
0.141967602657187
0.117773812993685
0.150047864870754
0.123601911041673
0.157380952672863
0.124196251364476
0.128917091699303
0.12126535407099
0.148143181535709
0.121438469003061
0.150928243853707
0.128857007606648
0.151498837014669
0.143318182444669
0.151357566659121
0.14087630782068
0.140516459708671
0.143212934142404
0.16498593762278
0.142152996050405
0.172286020195184
0.150759575211873
0.155194883756875
0.137506050160506
0.158935069407377
0.154506526109097
0.151546355212498
0.135519853367092
0.147862336486917
0.141745672606161
0.164358046012273
0.149117172618252
0.172564908994259
0.160637848609412
0.163478880799371
0.157511384159691
0.176593977432757
0.163533254913865
0.180995538895851
0.163182515497509
0.186065702546558
0.164096327183376
0.190194888506819
0.17895386069016
0.191136255995773
0.16837398083093
0.18735388000415
0.173587540384752
0.188137270084302
0.159124311605922
0.191139430897768
0.175634774414523
0.194113223551965
0.184201562286514
0.197837528008526
0.183314146139386
0.203307789489152
0.185693506439153
0.211240427171193
0.19752057040913
0.201020266513764
0.189347577435758
0.201113259460868
0.202697052435279
0.216669403130918
0.196407491225041
0.218659169891393
0.212810959758143
0.223390838073275
0.201316026419931
0.21365649962067
0.208356789107695
0.23168162593089
0.203411710730311
0.217886011054855
0.211635435182562
0.229498061221236
0.218512235434128
0.232044384452174
0.205714533625327
0.217040655111433
0.226832458092057
0.237921831967523
0.22035750673108
0.232655741945566
0.224948835428452
0.242346692108789
0.222553773506645
0.246137905428927
0.21494164360096
0.237163356642213
0.226805854974626
0.247726049258469
0.228290967663102
0.24717523282002
0.236655800708009
0.241334715089691
0.23179106896325
0.247834085833631
0.224679633568496
0.250768598293302
0.243458129101651
0.265176459646825
0.246407086970365
0.258051904096882
0.251995612622708
0.256489188108486
0.259948831621702
0.269317538688529
0.254682033428137
0.268038191024452
0.254383036310596
0.266952862813987
0.260843272035432
0.267122773752993
0.266994728385756
0.279383877665535
0.255697395170374
0.277188097197792
0.27373177053581
0.281760245779172
0.255317496190114
0.272277092069528
0.261470665939741
0.280731845969863
0.27520230763974
0.293668444103514
0.285081669414999
0.290179023129682
0.265333147105693
0.288981846328209
0.271435219467125
0.283879651448511
0.269919882164778
0.288060403644103
0.272003873539814
0.284627411760442
0.278879979737898
0.295604126503287
0.278823244141972
0.305010577535308
0.27994503516127
0.294314616827224
0.288928224712838
0.30886091599393
0.287542649322882
0.299227467147074
0.296660002825921
0.306137168011622
0.301510708294069
0.305293421980549
0.290296989002642
0.305425056771671
0.304569704007359
0.32297959591173
0.302146132361967
0.310419063155455
0.29328461832231
0.298902586760197
0.297803565321698
0.316683023560615
0.297549077437114
0.312661072259493
0.302391937372256
0.311743151532161
0.298630215523787
0.304149699780071
0.307841537104088
0.318527720120301
0.301216413355944
0.312838212324611
0.313597310995382
0.319203926292407
0.300120652172397
0.321026052034966
0.31399190314273
0.328393111402351
0.312232660847223
0.329006789859904
0.322289029056557
0.320866514606498
0.310826503688757
0.320040929609492
0.318088584295759
0.332430772318391
0.323573670596634
0.333848579897957
0.31939660309188
0.316045189754114
0.319684400031408
0.334883197316441
0.329329319222111
0.324940286988856
0.325159930390554
0.326750861541653
0.325036489805501
0.336854143990703
0.32620154240281
0.344224656727201
0.32780288562334
0.334515510833177
0.325518331654018
0.332365585781876
0.315360299094811
0.325751359413178
0.322586810310755
0.335045644944908
0.325677159907165
0.324163288998857
0.315678677944429
0.32832747726375
0.322637921158065
0.343364539223459
0.326428139371349
0.339159797666384
0.329188178210462
0.329283492248198
0.330165636100257
0.347480559107933
0.334055433019978
0.335224991528906
0.329863483991208
0.339831525788422
0.329050953798519
0.340189184958666
0.324870257771253
0.321536480528204
0.315527880271622
0.327554710032692
0.321056506463301
0.326100211104238
0.322627657890778
0.334494711682559
0.327357813801579
0.335624695322912
0.330079595292484
0.326143723145836
0.319109928481934
0.328989673706059
0.315442648246517
0.331948352664671
0.317285070588045
0.324743958286513
0.328095980349116
0.338170872496255
0.324744679443098
0.336343833247198
0.32495714430586
0.331527653887264
0.32728417139854
0.330943553443027
0.32228174518427
0.333630420783253
0.32863925714988
0.320815369895828
0.311487782672661
0.31787675877545
0.318050454716312
0.324269987715989
0.308162469653975
0.326205324175343
0.318603149987099
0.325724293361955
0.323144833677276
0.333548262529572
0.317662633068041
0.319104001116657
0.318275099877392
0.31944552987832
0.313923016760129
0.321456831325898
0.313552099129013
0.325845023251615
0.304725412900485
0.313595345330187
0.307201053361272
0.318140847418913
0.310067585038511
0.312867904470674
0.303501589240675
0.309193484980666
0.31315803763372
0.310000526986586
0.30453431322045
0.311174846125938
0.311892263317448
0.318459814431483
0.298533386277203
0.303883757213074
0.300255171544309
0.310452099028406
0.299839530487143
0.307216541266766
0.300969993666237
0.304532926766363
0.307929723457901
0.31076188709189
0.293111561494639
0.300748591250951
0.304860115499658
0.306542369647402
0.299339306013079
0.305086577365654
0.297003565460188
0.294424091198254
0.289219954278287
0.30113570235072
0.292511368142726
0.301403112315167
0.295104534380064
0.288114460354132
0.290098227851905
0.301954329875169
0.283081526642327
0.28249931189373
0.28132876983155
0.290688583989352
0.278927513259214
0.286100455519897
0.286542282147141
0.29120308449428
0.290455158680128
0.289312489237399
0.281790511354887
0.283723574359644
0.277535351435143
0.288212565977791
0.281470409316669
0.284391598762961
0.271044624136092
0.275613141517957
0.271768818995582
0.276963194492966
0.277103178410322
0.27980860638862
0.274892333803079
0.275640186005489
0.265870255310678
0.269266593805695
0.265535386048305
0.265418378698397
0.268002947542334
0.273348585968884
0.26702215105981
0.264557836057695
0.262473250459309
0.268351789654036
0.264125850318218
0.262841445466087
0.255760286522732
0.258187397140458
0.25656759606104
0.263101982204892
0.252374153995111
0.256767861518406
0.257614474936676
0.259040093755948
0.251932608388062
0.258515526195267
0.245430124320258
0.251791384649229
0.250809170554024
0.254546457355293
0.248285505822151
0.255830278896149
0.248036155703929
0.24593625898654
0.240115537589021
0.245411145650789
0.240343788759615
0.238318035081254
0.2405098378878
0.250359750583111
0.242080154467158
0.242689675427193
0.236573380268374
0.236856158372292
0.233478825303751
0.228982640586615
0.223731583593693
0.234587160818692
0.22999300492981
0.236533804850953
0.232307372771323
0.234539355808928
0.226084023556802
0.234014391754124
0.229737442365442
0.226456372824258
0.226275333462295
0.22695908570045
0.218696811083976
0.222830472089753
0.2183509034236
0.218324967940303
0.217129530831737
0.221683078202641
0.210722404021283
0.214969603210993
0.211662698423582
0.209276323437746
0.208208781794564
0.213181966773018
0.208613376139376
0.211437876793225
0.208246531075302
0.205351008289162
0.208080971389113
0.203308722579412
0.203589294559567
0.205427061743377
0.197881124603237
0.202886834277599
0.193365840096033
0.200270141477039
0.199520450236412
0.196481724236246
0.198188096175104
0.19771341909734
0.186916298576217
0.196841705751276
0.196023082164416
0.192394316489962
0.192467392231708
0.194311037176783
0.190021362027546
0.18876119535954
0.188974396362412
0.192151108747036
0.178359894611756
0.186807541316537
0.18270846889574
0.181525494651853
0.17868997726097
0.184511592414877
0.177199661792905
0.17970204769303
0.172627295440151
0.173348971761763
0.172237381123755
0.177038727528635
0.168108251394321
0.172230937631129
0.169714457691373
0.174022039065509
0.169730973397729
0.170843872414475
0.166615030893496
0.166484151473837
0.16514742980716
0.160890238739349
0.165512950762147
0.168637528738693
0.166664101912887
0.163527594591752
0.159134923273654
0.161631346171833
0.157028481572306
0.16315500173974
0.156719204407963
0.153065154634097
0.152738398915137
0.155223642468109
0.151576923002802
0.159683280196082
0.15187318639768
0.147489919131662
0.149189056464157
0.15161589979848
0.147949955184524
0.148361329274492
0.141998288482032
0.151524257001578
0.152039103974782
0.146876352351704
0.144746230290931
0.149846013734962
0.147971395796797
0.14544851204838
0.141567643955962
0.139278255083118
0.142886142617705
0.143395088219758
0.13994975728102
0.143902182880591
0.138399473032819
0.139473335049736
0.138073647324027
0.136139638323282
0.137173678308952
0.139883257811865
0.136439429796431
0.134365851358291
0.127729423505401
0.131840009551694
0.131098637097002
0.133155181101742
0.132326234415395
0.134537275436832
0.131121992738255
0.131194548200013
0.130006501095723
0.131513947888966
0.127890309589544
0.127627510580971
0.124558485078638
0.120635589004589
0.119946736136912
0.124988119258696
0.124903254399099
0.123182415688924
0.122690021950515
0.124066804085433
0.121101719179435
0.119556644462847
0.117797406374878
0.119225384000062
0.113980699697197
0.116821513926624
0.113336206373622
0.116452784839572
0.117880914334868
0.120461347267166
0.117692240804296
0.117903279963629
0.113756666719194
0.112253945143687
0.111342290534169
0.116100614364688
0.112171572176819
0.114192373437424
0.108558056509021
0.110928966969404
0.112924092713932
0.111652406170481
0.10677170371224
0.110388495373996
0.108157663933294
0.10758759673179
0.109853987687889
0.107176828063389
0.102694937267441
0.106545066584263
0.106903842893664
0.105941239169907
0.101495864685928
0.107874300120582
0.104784299349367
0.102326400715432
0.0989865190428592
0.103929676475917
0.102309588918347
0.103931525634587
0.101232340085696
0.102747620582374
0.100542352320201
0.100074529442659
0.0968152050165175
0.100477543742738
0.101935854081438
0.0972407985596422
0.097260270212431
0.0988903922945376
0.0949243754850486
0.0950146420308776
0.0947361770396103
0.0991880434803364
0.0985044622416033
0.0969305795479718
0.092814448378567
0.0947260655076863
0.0946702765220493
0.0949718518722046
0.0921967655833989
0.0950600174189739
0.0919158752872326
0.0921658937879014
0.09154268760714
0.0909240257521531
0.0899468358899875
0.0911106167059138
0.0928424849732157
0.0913919332042517
0.0888944252207966
0.0894898699661643
0.0858642442688577
0.0859421086762103
0.0849158968153638
0.0890584548153257
0.0914089332627182
0.0889843715635317
0.0836242890593063
0.0876834155109577
0.0857280339457411
0.086249680288584
0.0897345263478261
0.0861366520054741
0.087049131457018
0.0886537424022214
0.0894927087914155
0.084300855560349
0.0808838983848457
0.0857771506650693
0.0872881691850235
0.0835326867901236
0.0854514190925774
0.0844025729078307
0.0852570372889349
0.084553872446525
0.0839568333811528
0.0858829947200127
0.0817947914667758
0.0828172659898711
0.0829888691813413
0.0891905978481057
0.0836142811055532
0.0831774533016062
0.0843834838927834
0.0871192054195425
0.088018441351337
0.0865423948636288
0.0835529082795872
0.0890939108745186
0.0844682267150596
0.0866911824571642
0.0888510137869094
0.0886811009087793
0.0828569353857291
0.0870388923263013
0.0914274794597409
0.0810291665127632
0.0871933996037057
0.0935484727598112
0.0907668621522649
0.091195302547774
0.0906527036144853
0.0879639648986122
0.0882796928508294
0.0927997719563238
0.0928797934627342
0.0898545386858855
0.0944015078712455
0.0964277610564044
0.0898234840629784
0.0921209210692383
0.0946321552574345
0.0947238955941877
0.0976873137581811
0.0959841539711994
0.0948547420576837
0.0997131135146082
0.0934852162633313
0.0974823825264281
0.097425898813976
0.0977252428489292
0.0987327873244325
0.0963203435156884
0.101148494425883
0.103765858623898
0.0971749295285357
0.1014531827893
0.103685754791841
0.10497423875594
0.103640921278774
0.107384395722225
0.104661482701809
0.104714747734075
0.106428896738927
0.108074213915253
0.112194199366329
0.110625047713804
0.111803936382184
0.111629768770093
0.114427193785325
0.111103685764007
0.11367936757205
0.113213883840328
0.115163886908359
0.110827566284752
0.110482579189078
0.115177590652444
0.115500660852364
0.115266878424184
0.109562719017658
0.113712118180221
0.115503281421079
0.118118545883768
0.110922665773706
0.111722107138118
0.11328866337349
0.112624838266846
0.115665992508893
0.113044747496488
0.112463931754753
0.111385604985198
0.111719932508846
0.109289358712673
0.105435077909659
0.108203564401274
0.11169069930504
0.113003097907194
0.106522308313489
0.109445511683902
0.10899661685026
0.111244884459068
0.111222350003745
0.108862090571688
0.107249655573894
0.110044907888014
0.11290289457526
0.111607382155956
0.108408776278738
0.112512330068631
0.11199035692986
0.112953670606055
0.110920516951311
0.112647626467379
0.112382091487506
0.116332038851031
0.114215986108718
0.110082091226077
0.110754103054151
0.113102854217265
0.10919176665538
0.111976802211686
0.11005186232072
0.111043794253559
0.107754306943627
0.111766270817448
0.108328885619412
0.109346243426472
0.10788824003113
0.106472662487702
0.108218430913593
0.106584159647787
0.108737726983391
0.10937523523589
0.108763654015654
0.108445155080801
0.107056289164843
0.109592256337237
0.110661402195842
0.104276183284014
0.104917602387833
0.105959653058129
0.105194875795832
0.104261928333713
0.103663229995576
0.101359549935862
0.10084704154782
0.0982661129663129
0.101231424345777
0.102136877609759
0.0977720380758825
0.0956800775107587
0.0949439085538499
0.0952353840882577
0.0950919571064587
0.0965250106197929
0.09376975923622
0.095442191748918
0.0942791125450727
0.093712823617073
0.0881633203321892
0.084975597280447
0.0890679608741585
0.0908079281769522
0.0852244560574004
0.0894216538467373
0.0832889271803776
0.0847570522943232
0.0851740589563484
0.084355438130184
0.0835585862587091
0.0844341131686077
0.0867379127002545
0.0838952185606367
0.0809888770687763
0.0847271758619805
0.0809289045331901
0.0805807434144009
0.0828249467952571
0.0804699177461999
0.0787320000762212
0.0815711264153364
0.0783018360850113
0.0813364893854198
0.0822874820880399
0.0796774219955057
0.0798879701921861
0.0791282973400378
0.0773820939143051
0.0764630725821441
0.0783998158422815
0.0781454897472245
0.0753051254249671
0.0747763757770204
0.0763020588282794
0.0764481462709923
0.076240590256528
0.0753426486756666
0.0758655400889854
0.0717969783209808
0.0743820980473761
0.0739329742595329
0.0717778678918025
0.0739391245913588
0.0725370052143351
0.0740370924459186
0.0718334888191603
0.0716362743175332
0.0711867003894077
0.0692757940249854
0.0735836090376634
0.0717579453301976
0.0696880053939898
0.071079015132419
0.0747348826843288
0.0678040869365166
0.073816405406372
0.0753709101616798
0.0706544702294069
0.0691476803341254
0.0690062296224717
0.0698683721653855
0.0664118385294517
0.0690731216121866
0.067870684488174
0.0658496211649334
0.0637442678629432
0.0666764820046487
0.0668991978492243
0.0682410307814179
0.0651294669439778
0.0655648724031109
0.066509383641574
0.0642601447168477
0.0645206360044269
0.0648554329819543
0.0652721677117169
0.0650553997469922
0.0666372659792328
0.0670055536326351
0.0649760694426532
0.0618703960013846
0.063806250621801
0.0649098100210343
0.0637950739707788
0.0656954550135233
0.0628449129570103
0.0672024198894121
0.0615100192833118
0.06169927453036
0.063259020813806
0.0633407753878873
0.0635200009599543
0.0632888008111357
0.0608049408065926
0.0635233278469598
0.0585330397169145
0.0614929755082203
0.0630555147228183
0.0649108500988494
0.0640890963277991
0.0603571800387014
0.0621947323332127
0.0611310981287301
0.0625589298348146
0.0614312767793517
0.0624815323629875
0.0605380376758455
0.0610704514414601
0.0636551491558298
0.0606175416160339
0.0600020500576733
0.0599104850716389
0.0601846548101096
0.061491418757513
0.0586526859560467
0.0574537709051439
0.0571844320271398
0.0610264610887956
0.0587015796508291
0.0600357827168975
0.0604457091653256
0.0582379922584606
0.0566536132004871
0.0581287873559566
0.059708526430892
0.059171140952233
0.0629627776136487
0.060117532469823
0.0590339407952874
0.0592712114328374
0.0578635567954846
0.0578400215011443
0.0575922915471503
0.0587107549845875
0.0593257299982653
0.0612068803943186
0.059896520632191
0.0588891964399332
0.0567261365336978
0.0592872552292124
0.0606909451807001
0.06048516969545
0.0574502426555906
0.0538738048651249
0.0548873875743529
0.0593243284968768
0.0574968106699084
0.0545636360449505
0.0557205103987325
0.0563788812889943
0.0583580173725391
0.0574608155003814
0.0575808226355247
0.0574741337704664
0.059250795689858
0.0560192353949762
0.0560124850846888
0.0587387483256837
0.0552452407011881
0.0565406720533803
0.0556186001098304
0.0547161093944596
0.0569602766350768
0.0558039122089748
0.0551765653538797
0.0516966633903166
0.0528171887341349
0.0541650662281516
0.0527085498233413
0.0573333546899987
0.0544323203857209
0.0542362206349746
0.0530337291218099
0.0520286409362324
0.0566830472540149
0.0547363214279182
0.0531298857184684
0.053239404503858
0.0523957218194412
0.0533083256090747
0.0565088942678863
0.0557018497294427
0.0542010697419204
0.0535949249567469
0.0533799937240671
0.0530664347391936
0.0538851488634885
0.0513214938606331
0.0515723621763748
0.0519126990482383
0.0502839648854787
0.0521594306291743
0.049736499230823
0.0526242461736133
0.0526163073338589
0.055322181089241
0.0528981678871655
0.050381890348003
0.052983039814478
0.0487574747534347
0.0518732914689602
0.0510656390672788
0.0530055308731441
0.0487524739989127
0.0536281003712858
0.0541674401441993
0.0512354712939224
0.0497926547349263
0.0501693914147141
0.0509884770699992
0.0497530566167076
0.0519755196207514
0.049793542929954
0.049293016423788
0.0497174417982749
0.0489246600901029
0.0502664277472788
0.0469662143453405
0.0498658045551732
0.0472251992233669
0.0494531557275062
0.0495808904572618
0.0467693891644757
0.0481250255899428
0.0475107955776763
0.0439218524274403
0.0493439495106254
0.0469973298735237
0.0496018642213335
0.0462236389331097
0.045927073299515
0.0465128318055259
0.0465670549161388
0.0475309132672488
0.045458897193442
0.0440364065674803
0.0440371127800378
0.0450938209916805
0.0479448230523115
0.044157201430659
0.0468132760211792
0.044727707752356
0.0428994175401507
0.0441364189442512
0.0445125876334498
0.0456960497625328
0.0443496737985511
0.0442398370651028
0.0479528453109657
0.0430593379149514
0.0466748519328247
0.0426242866430342
0.0434778637511938
0.045093091404827
0.0440000120946861
0.0425746118789321
0.0454551775671046
0.0399417859593414
0.0436615044408328
0.0424522197084599
0.0436519742076417
0.0435418170272898
0.0432969055375531
0.0432328042202902
0.0448724730246272
0.0421869125370202
0.0459862742050297
0.0394929630875443
0.0447719847529853
0.0470080971169898
0.0440932952068732
0.0428675000269684
0.0447479161578133
0.043156093367681
0.043143373084699
0.0434415525718554
0.0440007580457262
0.0427280566806323
0.0428596005296418
0.0406837306338897
0.0410734953175822
0.0440252774891878
0.043835282341598
0.0432202793930424
0.0405867707338401
0.0385897111910187
0.0402215169583515
0.0401157520403696
0.0387103024014271
0.0401203330698803
0.0440386631172494
0.0404715853633216
0.0416496874045451
0.0410992577948143
0.0400309834507366
0.0398131467514512
0.0370679949392827
0.0401498863177034
0.0407406970198591
0.0402427024146634
0.0410310516333234
0.0403225550370877
0.0388919423462156
0.0393544588434686
0.0416750594451762
0.0369706380319259
0.0421762251864741
0.0393291636242889
0.0427961597207636
0.0403491255275649
0.0378986648970684
0.0405265995372886
0.040040591645013
0.0405988029172756
0.0409085560293831
0.0387639304655929
0.0404941333469257
0.035906256102998
0.0409884745213635
0.0418557001732023
0.0419571005661901
0.0369328264698231
0.0390703738539834
0.0405971576108351
0.0387783645974585
0.0380962063356441
0.0409431373699548
0.0393665869414719
0.0381399865506355
0.0405714831088108
0.0374429245262394
0.0394829252596926
0.0396459137179772
0.0355125271215615
0.038527364958769
0.0352361372284131
0.0394690133725963
0.0356961347017013
0.0389734323509216
0.0371959822051504
0.0413289202446959
0.0367179652931816
0.0404012209157444
0.0377602323927938
0.0379655685679912
0.0379474704843503
0.0394459673575089
0.0369818163011621
0.0396782928023092
0.0338427009863109
0.039409585789048
0.0371183553715073
0.0365689243593703
0.0366497765718285
0.0372164501728627
0.0357977105791066
0.0388099322601303
0.0380114289013447
0.0365421973342007
0.0354558520537269
0.0364083925055991
0.0379753222607214
0.036725953414474
0.0323061398021609
0.0399625941883112
0.0363698234263327
0.0390427643597686
0.0347812507943108
0.0373916690402847
0.0346324147545826
0.0365305570039138
0.0354546892758686
0.0363121211740723
0.0344631972117029
0.0348744216136103
0.0366974762228546
0.0366533675616117
0.0349951383279588
0.0359870742355594
0.0348859444990388
0.0369142246201811
0.03390774606535
0.038262806234887
0.0336436298164082
0.0390524292315743
0.0342724485716746
0.0371644851239436
0.0361443511952131
0.037758997725643
0.0355250813961068
0.0370937513323952
0.0343633309748761
0.0354969493831358
0.034131476533015
0.0366295677016918
0.0357947132530778
0.03813967599435
0.0332995574496345
0.0351118358460285
0.0361758452001551
0.0353432587390634
0.0340272490292776
0.0370372581051946
0.0306071728922432
0.0347990408693285
0.0336571678742608
0.0349801839274043
0.0331472066822166
0.0352999886334523
0.0346384695537818
0.0348188582146888
0.0310764887911274
0.0344125694436517
0.0345039149319699
0.0361344822662713
0.0302014090453407
0.0351189544092531
0.0337336046711377
0.035094352710799
0.0312457024372876
0.0340024845600319
0.0340526585961272
0.0346851784666588
0.0311933803457929
0.0330190386481622
0.0305041547307406
0.0343562425965313
0.0296206061149143
0.0349566542901163
0.0323673361246736
0.0331896519222312
0.031200497435339
0.0339332394307234
0.0313557704547855
0.0345533178616146
0.0308275114119844
0.0350471196323362
0.0317442078122729
0.0328766555626458
0.0316843285635817
0.0334532753523088
0.0304788214277418
0.0327137694565134
0.0309141174392461
0.0337039233891818
0.031318895631593
0.0346737711925284
0.0317902706824904
0.0321466762172399
0.0304730717165129
0.0328069742980507
0.0296360183743518
0.0325316511851497
0.028986323227266
0.0318650440511624
0.0275817616029221
0.0325613140454331
0.0312867425611029
0.0328805943735305
0.0282206924806157
0.0333008439423836
0.029460649249011
0.031996381698584
0.0285410393515387
0.0329192621746783
0.0283615585926909
0.0332564904568616
0.0278071271633031
0.0286683739879735
0.0292856188328949
0.0314753097483639
0.0289078217259661
0.0314967650370925
0.0279873108206884
0.0324287544711522
0.0286546583452242
0.0314532681133847
0.0271558178529901
0.0308882850256445
0.0281160806414219
0.0312156723814646
0.0273160853819506
0.0292861618425405
0.028889286653363
0.0320725540686356
0.0281607707965352
0.0294362613827254
0.0279517373782972
0.0303899317229856
0.0277411782516296
0.0292722322311509
0.0282739639345608
0.030674316366644
0.0272680052145901
0.0318894477597177
0.0276596141503925
0.0316205401036429
0.0257441994934851
0.0305277977411433
0.0276923512649738
0.0316623604795717
0.0282961541072987
0.0328597798771934
0.0273343820444723
0.031601457274474
0.0307925852929508
0.0338795103073646
0.030203224173007
0.0335786364666515
0.0307175414389396
0.037362050278807
0.029853906389487
0.0354674756907353
0.0305156221627559
0.0393189657287304
0.0315370419033124
0.0364161552009768
0.0294719707669992
0.0320612484818851
0.0201010590686189
0.0296060134697705
0.0236989025447892
0.0357577589426672
0.0230536437087849
0.0317933319781268
0.0260542872637437
0.0319369374854136
0.0186090164639933
0.034856485598974
0.0206570471313151
0.0294226308259011
0.0254168020199344
0.0285177262871827
0.0189305961616882
0.0330189236520214
0.0216488876477186
0.0383016584442352
0.0213519152798234
0.0374974938757022
0.0258819426709441
0.0416737203576635
0.0173667842680383
0.0392966212688722
0.0166745286950208
0.040354781509782
0.014603973428956
0.0359879041322176
0.0129493219609903
0.0398421462557142
0.0145990122945606
0.0405081595071283
0.0141383226918744
0.0435166509155149
0.0139148519546485
0.0428736941773861
0.0115905221443795
0.0334967211601619
0.00917325063819568
0.0401802342838678
0.0147612769925757
0.0474322843316264
0.0216187382750205
0.0389483321297004
0.0173476519759195
0.0325612775859634
0.0259757890765675
0.0326169262498306
0.0271618236253861
0.0201440578998692
0.0429854928026394
0.0221811277541458
0.0479745152781195
0.003353728495246
0.0611948018358281
-9.70291589711758E-05
0.0614015753815781
0.00021979343779278
0.0608674745334872
0.0025027622259654
0.0561090814679277
0.0124881513755049
0.0483879436788043
0.0195254294459627
0.0376137841467574
0.0246976324181648
0.0318412187077163
0.0317627582941235
0.0271993232401402
0.030496932140697
0.0263926220155777
0.0249656068848702
0.0327128056174928
0.021627194503604
0.0337592769876893
0.0227239423948207
0.0331886609954147
0.0239647499854437
0.0310500506275107
0.0230210348547434
0.0294718018504202
0.0230311324238011
0.0275350916638577
0.0239462993631106
0.0270745580002103
0.0233373199419593
0.030250027765262
0.0219084656535053
0.0279615897652971
0.0236877640026693
0.0282584185100048
0.0230812900970397
0.0285878506802048
0.0242082923796518
0.0279627924519345
0.0223038252200134
0.0258189470262938
0.0217123646267341
0.0279432483976754
0.0232210280493791
0.0263843449809869
0.0231043740674943
0.0255596806938629
0.0220956925958936
0.0286989319568474
0.0239516037048758
0.0286309865749889
0.0239103271644355
0.0285063557734171
0.0228995979484858
0.0272091101656803
0.024448907803363
0.0276672429406395
0.0239892565777989
0.0265457771686941
0.0237496403751967
0.0270494403622598
0.0211938536049055
0.0264170974687819
0.0259687471999811
0.0291186419046127
0.0236952380644954
0.0244776087405101
0.023181673730331
0.0254090317408912
0.0239894996532035
0.0259808022522379
0.0225977564995621
0.0259530045980534
0.0246503049969929
0.0249242025614377
0.0246361464389483
0.024928061568514
0.0243002041646115
0.024081065793093
0.0220507398386418
0.0240292166326998
0.0244090679190117
0.0244984198196952
0.0224097118918541
0.0268222687439382
0.0245217700885585
0.0255515646104963
0.023890194159612
0.0244835583646605
0.023794290861861
0.0235590999586659
0.025184991242558
0.0267550578806564
0.0232212419011039
0.0243259265959297
0.0248303659861836
0.023308739376344
0.0238145413991097
0.0231513769168589
0.0217806729046631
0.022197726655118
0.0240945712503331
0.0258868690926158
0.0245789437520466
0.0257730835652063
0.0234361697539754
0.0239080402593907
0.0238611909422646
0.0256047177271007
0.0251127821684972
0.0244118141744288
0.0244384386610814
0.0257055546768375
0.0241890923907042
0.0251334080588209
0.0236257854673817
0.0232537810368192
0.0244341944450042
0.023562958915386
0.0232726629689534
0.0248408575966793
0.0236798621311803
0.0247826264509203
0.0258833312218402
0.0264243428931433
0.0256698598407837
0.0250181680140999
0.0239671356951887
0.0238513261309616
0.0244897890625766
0.021818120225985
0.0236843725919236
0.0260749402825747
0.0234922485975666
0.025623321376294
0.0223107589041572
0.0241541949769831
0.0253712385215267
0.0263013569487014
0.0229295922628217
0.0228008747261705
0.0219561425452813
0.0231442131167303
0.0230089360607931
0.0242139994184065
0.024981043955545
0.0236231400252884
0.0223517590692146
0.0229660283510394
0.0228413487340355
0.0223901158677307
0.0226372722992659
0.0217495907900577
0.0236406948833574
0.0231437970849516
0.0234791306834394
0.0240375367981675
0.0236957339634259
0.024040854202815
0.0244423527974592
0.0253773317945925
0.0244074495554397
0.0244830508117609
0.0239629852572061
0.0232019838271682
0.0235781206649228
0.0224010083649401
0.0253621993879422
0.0251146062473423
0.0262934818454457
0.0257319337882807
0.0220426207215421
0.0234552150884038
0.023408457616539
0.0251430979565555
0.0242354509875857
0.0239676690174057
0.0229433303090495
0.0224153601589156
0.0231760755505593
0.0233241667825712
0.0258784627991112
0.0263600918651177
0.02570715539193
0.0232929714692152
0.0240924580330126
0.0228507586592046
0.0235966053711055
0.0228597025262592
0.0245201325903585
0.0242458953637889
0.0223047650455592
0.0223850545552896
0.0236120029320427
0.023048327368671
0.026814481212029
0.0225550228294311
0.0253202830956466
0.0240737235562499
0.0233743810094638
0.0199133244804092
0.0211811678690259
0.0202742017203633
0.0244235930646231
0.0210277249715528
0.0239120559308749
0.0229357082820345
0.0233389048480883
0.0223108042485874
0.0216143121691513
0.0222160457889762
0.0244547420387463
0.023354686171512
0.0231664021173916
0.0234653864751702
0.022754725346823
0.0262106893978826
0.0233703770601384
0.0227418387663659
0.0230717586313891
0.0215457704685953
0.0235080701104512
0.0232075061321741
0.0230169460142972
0.0216975285164125
0.0221877584941792
0.024391451216769
0.023101914646097
0.0208982437688207
0.0215469542890518
0.0213743344635809
0.02258239480428
0.021926376667709
0.021953640564719
0.0218383089960554
0.022959166964747
0.0211506535795114
0.0221703512557024
0.0224263081666135
0.0241134193623841
0.0237999933567747
0.0215688340711523
0.0223560561667646
0.0239049616927024
0.0214115247505532
0.0219470430221335
0.0225694146600845
0.0230294344440296
0.0201664369949417
0.0219412018506195
0.0202389744890808
0.0215963591524749
0.0229457620007586
0.0214810594063166
0.021733712435115
0.021473988478927
0.0219704670616833
0.0227347427515004
0.0221601722613241
0.0209370634920468
0.0204060419035946
0.0229703070196375
0.0222939825118974
0.0217365914561197
0.0208968031650625
0.0204290991416299
0.0219502947803347
0.0211457771223934
0.0202440305888111
0.0225673597959955
0.0244255711882371
0.0238663169968593
0.0216798108288819
0.0230943750211141
0.0217079100798765
0.0232469036425754
0.0199778188334927
0.0204339120389497
0.0202163290548122
0.0222918264234881
0.0207795397006644
0.0224700801503674
0.0203542128678759
0.0243169424582404
0.0216827968381919
0.0197562546422189
0.0189373741423135
0.0210856435035646
0.0217035699636372
0.0214638335066384
0.0196035111924131
0.0206473083020989
0.0215552186712211
0.0214744895037736
0.0185289342368392
0.022625483806648
0.0256533108930459
0.0216331961707298
0.020759099095455
0.021444338151956
0.0205941207395531
0.022341716600868
0.0199736019343406
0.0209993886789249
0.0191163474181753
0.0194795915134064
0.0204818009286919
0.0209769306027999
0.0209399105776981
0.0212858274889079
0.0189375271997211
0.0223415631744451
0.0230526712871397
0.0206355720441111
0.0194688935151203
0.0221201214429201
0.0197872517429992
0.0184925407684881
0.0211816490658268
0.0225146954336919
0.0224101634578413
0.0241443564526839
0.0260260216218065
0.0250052070051239
0.0177059841036339
0.0226303023482799
0.0194755603173112
0.0228637628959252
0.0185757513777208
0.020681768567286
0.0189816495664573
0.0196373764620412
0.0195530061344497
0.0208172019648118
0.0187894561001787
0.0220645194253904
0.0193404451142546
0.021301874917887
0.0198522702990914
0.0219234802051557
0.0173516053424799
0.020268444891311
0.0193471268509548
0.0217640995395658
0.0175808277187583
0.0209621822858074
0.0159804134135252
0.0233022188038853
0.0242844460567043
0.0347072952805643
0.019989559036681
0.0201237321425972
0.0227517942661077
0.025027160518992
0.0195572280482814
0.0187730460432376
0.0190782855419492
0.0201906927398664
0.020777759571769
0.0192252990429109
0.0203419895028715
0.0204400882348065
0.0196523281362086
0.0220818209602579
0.0211383403657337
0.0194594418848855
0.0176427263769506
0.0206078981855132
0.0189184649551224
0.0199909007209162
0.0174899259924063
0.0202717926398278
0.0200142441482444
0.0204756820824156
0.0205727603882701
0.0274156973978196
0.0260222201033948
0.0205468517206603
0.0205863246602928
0.0183842690581306
0.0186355674841487
0.0192480525694472
0.0202622905347557
0.0191792925068685
0.0181203944364904
0.0192186495054946
0.0189220074660513
0.0196283675809896
0.0209573256569986
0.0184170556282659
0.0182175799924916
0.0182984143325546
0.0162855270224048
0.0190613176366403
0.0191390737709432
0.0186627779360107
0.0193864465403281
0.0161280332943227
0.0241117536572232
0.0192961540158159
0.0201492703505053
0.0247127846978976
0.0383908037595599
0.0250554541657865
0.0179100244609829
0.0219660240720418
0.0161113306116047
0.0206976841213439
0.0174308673859718
0.0189794918595236
0.0154655193112544
0.0189139332046948
0.0196107179338759
0.0197144844013767
0.0188982292051912
0.0213329685646793
0.0170270913529375
0.0183296628282914
0.0166236672397956
0.0204992069646219
0.0160871042492681
0.0173093097264977
0.0244090698685355
0.0376224747630573
0.0269009273277371
0.0192325107948106
0.0195887694667053
0.024752873048788
0.0297168952791857
0.0332480540844075
0.0130137051547656
0.0243582535552768
0.0145758877159503
0.0223083850939774
0.0144487055487376
0.0196239725531788
0.0172660408453158
0.0290522630086811
0.019094894033332
0.0237915484837043
0.017766992684841
0.0192489124072192
0.0181912590431375
0.0189978673509844
0.0152050421248864
0.0177454836424457
0.0165797099980555
0.01835618175988
0.0153285672211893
0.0183370795310882
0.0152110233362279
0.0182710039830965
0.0201761345096057
0.0313429529126266
0.0163471156942167
0.0213978178395991
0.0159195304419342
0.0201069376394294
0.0259615060662329
0.0361337500667724
0.0205666048032858
0.0183107740554837
0.0177738327950383
0.0170561505007265
0.0206479589945663
0.0164806749345643
0.0163150111298243
0.0170651987226414
0.0169526299037665
0.0200299229052845
0.0187286115219722
0.0185729302263466
0.0197268278441164
0.0164059042785514
0.0151515349940475
0.0160658970886006
0.0165109121440626
0.0193346050616569
0.0177161512102172
0.0248942888833131
0.0294297482091947
0.0488062259911145
0.0308257676464605
0.0352173211898997
0.0223523084102461
0.0227738146984876
0.0172406145899668
0.0201260582601376
0.0186787770205025
0.0227668178326939
0.0177176016907062
0.0200432853925845
0.0192498286282568
0.0207432247703759
0.0167740286731305
0.017217055525932
0.0148879490674979
0.0173758817040902
0.0147109295634113
0.0167459936705448
0.0157588089663092
0.0155749193884168
0.0208817014094328
0.0287911785141972
0.0307006966351683
0.0173441660052943
0.0313877139438742
0.0371478586982365
0.0511216176291584
0.0218114798694711
0.0254658276903517
0.0202491584864644
0.0161088896407937
0.0179950749461362
0.0200785199386761
0.0240883491714501
0.021208920447638
0.0166201549514559
0.0177116173599753
0.0189371987709107
0.0176579369191335
0.0200598337558837
0.0324020583404714
0.0542477119118756
0.0341853017935375
0.0163970033401394
0.0212076574973519
0.0291978230724551
0.0427068352921884
0.0269426362042066
0.0187617112244092
0.0255162835851651
0.0151615044725995
0.0198907349320871
0.0132818977132289
0.0223809008039988
0.0206661510943474
0.0220555908327088
0.0144569153075809
0.0186284794895885
0.0161984772012467
0.0210525770074701
0.0247028303623481
0.0312270617919042
0.0283975660044341
0.0229955028092779
0.020732655854431
0.0240216970702202
0.0153538057154714
0.0234905554999402
0.0154838738620407
0.0217308877963645
0.0287427828492502
0.0377368582777612
0.0294805802496586
0.0368804202563143
0.0299856758193397
0.0209368525898107
0.0215579824742931
0.0387577293184719
0.0190261426719624
0.0264884857974742
0.0273734625286875
0.0559505598097556
0.0427753453891082
0.0384468425277408
0.0252642200270858
0.0171620690978625
0.0213037791671009
0.0143134803598023
0.0298366168048621
0.0284184245512497
0.030919962315337
0.0119092223519446
0.0257442737807154
0.029159827774095
0.0398132375833195
0.0232964933288984
0.0255973574505254
0.0165796812153569
0.0260323767953587
0.0282422628973247
0.0284733732139568
0.0258972475487886
0.0483586960778086
0.0702296023357163
0.0418645161779837
0.0290916273679957
0.026490220017439
0.0501817602627111
0.033419046362758
0.0178363746470403
0.0238965970818575
0.0165238010197731
0.0226336180890416
0.0284319557748009
0.0474171579444944
0.0345380146146525
0.0187390527975557
0.0244316428905926
0.0273386456415691
0.0423788601454407
0.0361616400776365
0.0174993571050704
0.0241376586996679
0.016760540828423
0.0387743307020365
0.0515928658865948
0.0554456063055302
0.0380874258690224
0.0585514603081678
0.0455685549356321
0.0381356833883632
0.0336444078184433
0.0294482815080051
0.0454614231443562
0.0447825092383182
0.0265949169341821
0.024413625176124
0.0432079297477811
0.0459632351270137
0.0326840173307653
0.022688558087375
0.0288077579278722
0.0288904412096883
0.0796251158417123
0.0961575002210732
0.0584002508105987
0.0304371224028326
0.0409977342751415
0.050116645726178
0.0358554510056764
0.0205954796374495
0.0257467013966198
0.0212463516579657
0.0209295562815855
0.0258477725088301
0.0320024941003114
0.0286786691798777
0.0256476413659001
0.0264071070383572
0.0308431685645019
0.0580014571961399
0.0946239320691032
0.0629562645067883
0.0541139765464442
0.0603493814333286
0.0642667486545005
0.0353160722720504
0.0306498490456405
0.0257425492130468
0.0407479459708712
0.0299139344946748
0.025981266261178
0.035483551470195
0.0511456684831694
0.0518505687551123
0.0531418465225899
0.0484714937997486
0.0394435509963145
0.0356109976599531
0.0761401620164934
0.106647464117454
0.0832240646720626
0.0354763951188291
0.0646185072078046
0.0555608209967631
0.103649965572021
0.0508397018581358
0.0355479672010255
0.0336327149469441
0.0398709351714211
0.0386725340310066
0.0481673777921768
0.0474872708808085
0.0572528132682677
0.0392059095034452
0.0543836939465417
0.0629397216596304
0.150404142647709
0.107689720911599
0.0704756584495868
0.0497792043397952
0.0750592939507163
0.0642728197519703
0.0532244488879383
0.0403637223778458
0.0526614335830319
0.0628654959568205
0.093184177499119
0.0615936544009225
0.0526155362357273
0.0696469170235571
0.0714259769970108
0.0731119097473543
0.0855543048930828
0.0977479425653492
0.0629943164267964
0.0597065831608924
0.0580014027428881
0.0587276461325844
0.0690334677218774
0.0811878938913123
0.0867809888531737
0.0645771212558725
0.0671589633161037
0.0635456703766005
0.065396360075846
0.0631799670927868
0.0654348332255013
0.0750949549774647
0.115247803078506
0.145897829536202
0.194243952411546
0.104598914203463
0.0718372195120884
0.0719752980005257
0.087325350179687
0.099475377621587
0.114159592699013
0.107400559467268
0.0977296895420993
0.0646087254248601
0.0728287094766049
0.0711304052735584
0.0653016134582632
0.0725694850531544
0.0647263571943993
0.074510848886181
0.0880018862976872
0.0910503308875125
0.115123794931359
0.128936862295631
0.0839171186683964
0.0646438726960823
0.0701659748871346
0.0635074145110037
0.066797934502225
0.0603773455363853
0.0806415093499904
0.0831977226611702
0.0666884995719207
0.0557768038432217
0.0680938468266727
0.0855494430459939
0.0928602476154703
0.0685330945439238
0.0693009700373432
0.061708361221625
0.0584320761246838
0.0634973408435257
0.0862067156222449
0.103594733278209
0.0746095769197074
0.0606359945853708
0.0647770050223709
0.0518104778014203
0.0605607588236307
0.0557920539713824
0.0669642418941998
0.058779785171495
0.0671242641515402
0.0613109208284153
0.0633106430887749
0.0541972725632417
0.0585141418677362
0.0580234650817962
0.0611357800147704
0.0562416500245237
0.0584389244958464
0.0537143115375558
0.0561365927622424
0.0544573519015726
0.0592838030468395
0.0524696329702341
0.0666616931194602
0.0584032704808372
0.0600234297997298
0.0563179885536733
0.0571061024818247
0.0560138108223269
0.0610849310805376
0.0515768649672951
0.0583651390776311
0.0544599804266957
0.0561926693091866
0.0495657371338655
0.0557414371572328
0.0530478068169626
0.0576630482073928
0.0538724194427329
0.0553669634093974
0.0544202738395376
0.064709224403906
0.0707871299346895
0.103523232689049
0.0793759553555267
0.0592008521649442
0.0544389526817197
0.0557928142326273
0.0511524969146769
0.0633937148145472
0.0886034461164183
0.0831836690417346
0.0551410515917675
0.0552683317813291
0.0513034371752613
0.0740784640388898
0.0594445703667617
0.0550101077375042
0.046874682708468
0.0631527058941348
0.0870634154239801
0.137564063406379
0.156626185707126
0.136480015518733
0.072853837545564
0.056862059005656
0.0744789893068604
0.0833061881491771
0.0541152897211431
0.0502113031696907
0.0501477818478868
0.100043744139881
0.0640813101941468
0.0507457788166398
0.0407671123997351
0.0520444202642656
0.0863446030524138
0.0831872124705323
0.0733225437414418
0.0839759532614179
0.0946588068250597
0.096863188904518
0.124716429874154
0.133712899568499
0.0824654282256096
0.0531800103010052
0.0542097053589178
0.0548478353775348
0.0667899001204498
0.105240949619969
0.0639506255118173
0.0677496439349682
0.0449454803888301
0.0438543720629575
0.0536748229247729
0.0752478503968138
0.0600034715048095
0.0762318851720316
0.0821231426247711
0.0544134003355111
0.0670155535306604
0.0831277743764978
0.106081356316649
0.112297523397105
0.0562231251624205
0.0506406287938166
0.0962603817449119
0.0989119647217638
0.0656984737817734
0.0667107537930871
0.0376990424707123
0.0571456628485571
0.0575507594149241
0.0526777954319843
0.0762253007192222
0.0762168535384035
0.0941551574905251
0.126766256218287
0.140124865264034
0.105425616958712
0.0546741224339158
0.0407344662821605
0.0423969981976116
0.0495322700212234
0.0395716307542882
0.0457651270673636
0.0743055277072932
0.0508178362656315
0.0482386999803585
0.0903841382516352
0.0523238626010146
0.0386621643425906
0.0374485624410541
0.0368489397776137
0.0509723818778969
0.0797146672957881
0.0926605712305272
0.0651834291090594
0.0677456114796498
0.0724586020401929
0.0492470471445759
0.0399659347106749
0.0398430704777459
0.0395947077716359
0.0447440662685638
0.0605345982512358
0.0477504922141942
0.0484772803222923
0.0447535485827928
0.0496432806909388
0.0805970284374012
0.0705260007224994
0.0571246640884182
0.093082885223941
0.0874911462064775
0.12161691080501
0.0691473491518082
0.0575557713512018
0.0540334042043623
0.0565414490926039
0.0564692100283612
0.0571745830047822
0.0751445504294763
0.0915629277352813
0.0598792960641893
0.0635777146914217
0.0582412287151928
0.0638506186475188
0.0708539207990464
0.101144000357845
0.101095501608406
0.141963385368772
0.116308355906044
0.0984041055907419
0.0747329409183223
0.0636387953614781
0.0741767976813848
0.0709804461627541
0.0644100317239471
0.0632571761859599
0.0753402813566564
0.0952183767655213
0.0680354569951689
0.0681028288993237
0.0664160577444953
0.069712412118336
0.0658201198072323
0.071033663368756
0.0655639571819788
0.0684244973855584
0.0668067847924608
0.0735504372770712
0.0811682195893517
0.139154653461022
0.089720368535561
0.0804829316802087
0.0790007856952483
0.0812351825462078
0.0731759410983112
0.0794884847274884
0.0955198171954178
0.0838469470888081
0.0769303904843431
0.0797112476324388
0.0757671731641005
0.0764460033490325
0.095535890704366
0.102426172936899
0.0766367924393025
0.0876184204415827
0.0740844059380669
0.130758307328552
0.115702424691302
0.108897673112911
0.101356224736417
0.0912160217153628
0.0826582163529913
0.0803582555532987
0.0799508800634178
0.0847277805479848
0.0846197174159858
0.0840218634719418
0.0845387069752824
0.0796550114141052
0.079522789211219
0.0783142077421062
0.0885177081938993
0.110139187750681
0.0866019866750496
0.0827427873036028
0.0764289522769841
0.0805274970614906
0.0820388663828647
0.110228993790349
0.0985220742123516
0.0896092556912758
0.0898870760655736
0.107117831878735
0.107481306950096
0.096959380338607
0.0782949130679309
0.0850734949490007
0.0773178868489891
0.0869870498657901
0.0753468746601687
0.0994442623463942
0.112139117712724
0.0931165404388862
0.0808247677965101
0.079835351902118
0.0782949914766016
0.0815723616183734
0.0788092044752988
0.0813544800573636
0.0805143943989195
0.0867104734747981
0.0860053539444465
0.0818990645162099
0.0851886430796032
0.0961341892075512
0.104818344554198
0.0987127860346997
0.0827033574380189
0.084460911615902
0.0792180858094186
0.0820110386122145
0.0844198279023101
0.0798358754007135
0.0726979740885635
0.0787677613553871
0.0727544454996117
0.0835550231123404
0.108599027970613
0.0838058182117745
0.0927629455984673
0.0762225313564151
0.0717759767278681
0.0727080551927215
0.0736309987825443
0.069611703433801
0.0690070080297538
0.0739604665384335
0.0648698003870519
0.0683974576148604
0.0659873865298882
0.0674977857239286
0.0685064550088106
0.0687552081418168
0.0659854676816172
0.0662390060984162
0.0657660010093404
0.0668992612286752
0.0647084947774382
0.064703245029554
0.066666904834528
0.0644646126588029
0.0899964645627147
0.0898205014505739
0.0910367238990427
0.0738815398340217
0.0726332992913793
0.0711380433309859
0.0623823622732993
0.0670332326135338
0.0626341029354055
0.0675327199016098
0.0623129799483186
0.0662197185529748
0.0626551713975274
0.0659469264325182
0.0634426237826131
0.0668767103060089
0.0628980332958572
0.0654616373823309
0.063294819388849
0.0665599737889811
0.0607114029043058
0.0700841859743357
0.065592662925565
0.0788432300737406
0.0675562890313962
0.07200275064697
0.0697844519658377
0.0660501377006849
0.0685249161159475
0.069971550679821
0.0702168718282426
0.0668339545635422
0.0650394937585357
0.0617602588253098
0.0633441913516319
0.0662342521292563
0.0622006728409046
0.0658855048926774
0.0632887957009024
0.0641971532602532
0.0619845828662912
0.0630605098456301
0.0612529672713163
0.0616118966392734
0.0593165988863487
0.0605658542529936
0.0553136789800557
0.0614790842978264
0.059553271343187
0.0575710246523219
0.0569551237370917
0.0575960235402907
0.0568648127536675
0.0587830696817528
0.056679680732322
0.0542378592990337
0.05833559151953
0.060448448071599
0.0555939973605471
0.0554913129469617
0.0530041841491183
0.0550864161111819
0.0557343590974709
0.0552969177696496
0.0534427253537859
0.05776884725142
0.0553306594859616
0.0557330229307562
0.0536936289689298
0.0569087632233801
0.0547458127184857
0.0572102437468317
0.054460147204035
0.0564485556797353
0.0574019565517964
0.0583041811694704
0.0589650281544963
0.0591635634237047
0.0593896586000243
0.0582324514616803
0.0600459864411162
0.0573164110571197
0.0574107882211413
0.0594690375868156
0.0577303593559047
0.0590277498304404
0.0611942702134329
0.0606746257232643
0.0592406829433242
0.0603952628805125
0.0590307551474225
0.0581927949101358
0.0576732732972145
0.0596106571106494
0.0570602870105938
0.0593112204173172
0.0578882740857555
0.0586088529550881
0.0571516229494972
0.0589957479537245
0.0577056331204897
0.0590365853802416
0.0559593913631167
0.0597071609103059
0.0559491305067963
0.0563238944402793
0.0560459737002167
0.0545791717421597
0.0570505966421752
0.0557126673871395
0.0559047532682921
0.0558429106514229
0.0552387845853267
0.0552282732121742
0.0541347665364134
0.055174547268403
0.0551110920899422
0.0548646445763251
0.0526254684077542
0.0554490847893198
0.0542052708992162
0.0547649761559594
0.053809981309437
0.0540624761030986
0.0531640075466958
0.055922784741959
0.0532024170757421
0.0546452745355669
0.0532156286507708
0.0545287211959631
0.0516351485015951
0.0536438979407423
0.0510036344528343
0.0527184959083395
0.0501694470303919
0.0515026549101427
0.0501172179410522
0.0520271579252315
0.0517308892786651
0.0502852632842115
0.048186562206973
0.0505510920319274
0.0483237382413892
0.0485940129484403
0.0503095730942946
0.0494607700177383
0.0489022363697473
0.0487150654489119
0.0474919018385924
0.0509953702815575
0.0474414300319425
0.0489251634436532
0.0481080921200193
0.0491498199019806
0.0472731593346555
0.048284156148143
0.04603549825045
0.0465143081262513
0.0457487690002042
0.0464229975645276
0.0464206736032082
0.0465241464422541
0.0444716614204706
0.0461747424340111
0.0442723294559674
0.0463402595301274
0.0439700423269096
0.0462880309962269
0.0450111505482899
0.0481808487885277
0.047117258611253
0.0473656871289661
0.0520363391808086
0.0539649995366644
0.0550649032128537
0.0571657748036234
0.0575509297408121
0.0623188648702111
0.0631358056454455
0.069849375126787
0.0695610387298258
0.0716581852947076
0.0754985454967421
0.0759147477829483
0.0797600740529843
0.0828419881327869
0.0844741246563218
0.0859125484479754
0.0873401272069606
0.0932427951043583
0.0933501230197638
0.0983598042635747
0.0959143630057665
0.100533454244617
0.100362940415076
0.102356285594561
0.103422815560182
0.105152236901069
0.104459706639602
0.106321184911559
0.107256389773658
0.107762164545252
0.109782634427502
0.110059531789687
0.107688336597587
0.109427563193586
0.108910184071793
0.110530580408002
0.10992090600222
0.111100380632917
0.110365297231404
0.11211228120854
0.109332475286509
0.112918467419422
0.11280728376252
0.112732169653126
0.111608754507685
0.114908502134465
0.115349587433431
0.117245150764315
0.117598197264486
0.121395634376733
0.119902230263086
0.119982801857722
0.121372819106066
0.124250559301281
0.122492520008188
0.126444952181089
0.124467555535995
0.128980265237547
0.132162331331899
0.132980980576226
0.130645695033982
0.137619021188731
0.139348798886273
0.138471718398121
0.142020212371106
0.143944288461471
0.144123079146325
0.144943413134624
0.145379126893618
0.148547263234795
0.14664891837559
0.145160571927738
0.14522169033106
0.144598569875913
0.14371552221279
0.145465340712035
0.144641502457021
0.143354978355018
0.142371517041587
0.143522555871565
0.144595426772712
0.145714346195873
0.147203690968488
0.151596858069451
0.152321464188132
0.155249005566165
0.158518071585102
0.162869989426161
0.164568074853994
0.168092569235141
0.171014930287579
0.173901280255594
0.176397041905844
0.182368591831524
0.182155179626629
0.187105972508748
0.186119258287895
0.188993118625547
0.191436793779674
0.199935155657873
0.201552348184854
0.202815878307793
0.205877142328112
0.207540299028879
0.212301944475512
0.21664529096326
0.216942930818707
0.221070271316717
0.224829703377822
0.227078594446996
0.228269307812048
0.232679206899163
0.233058472420177
0.235933657796838
0.237606396930697
0.237847473019768
0.240970009984398
0.240320229842815
0.240206047709727
0.242410305570963
0.239330257356841
0.240295789534343
0.235507614075941
0.234885310134746
0.234972798543549
0.234118740044899
0.230076831303337
0.229539348280705
0.226036808207753
0.225628000302483
0.224948485684949
0.225630166984652
0.223873416087663
0.224368254486303
0.227536907198191
0.223979186133057
0.227672194289433
0.229675439229864
0.228201860399963
0.234544978383394
0.229878088309911
0.231891744943432
0.235923261284142
0.239145697957166
0.239031474030938
0.238685758109849
0.239895520385725
0.236395250921567
0.23735607365847
0.23948824126418
0.233193791433945
0.238811317171934
0.233193494392183
0.235117824614657
0.234240977506478
0.232850409447856
0.230603501387757
0.231642904764572
0.234118629902436
0.230715437636415
0.227450833797795
0.227332141976609
0.219888099316336
0.222095286075313
0.218838992070113
0.217092646212685
0.208337748041248
0.206734328342611
0.207070725838535
0.203814684032231
0.197401159077088
0.198637845512429
0.19617565604112
0.191666659498743
0.184479085797374
0.184714757086341
0.172602435513604
0.172495171246822
0.160624879182696
0.161639158533625
0.151856920627395
0.146053307946803
0.138591123320614
0.130711507541161
0.121011584905795
0.117916747299049
0.114863800120289
0.107000232194141
0.103286499216478
0.0977084743839981
0.0967402028949614
0.0915068296620784
0.0951627784708304
0.09052697263109
0.0931227588307252
0.086044556892195
0.0917786840982866
0.0832015297194685
0.0876860297180049
0.0819123583328889
0.0877934391300578
0.078076300653363
0.0842867230463176
0.0792118591932915
0.0799177757067137
0.0773582113293002
0.0755152317316993
0.0726415453053819
0.0728525332259102
0.0752220219883691
0.0704718261681829
0.0674128702744613
0.0642535397491509
0.0613207211436286
0.061575812567908
0.0556274933613125
0.0564862128742996
0.0517149233169035
0.0510912580288112
0.0469895931987225
0.0469822013460467
0.0449856254533779
0.0431027285999573
0.0389265809963501
0.0376660470823374
0.0364987222912549
0.0373011993841767
0.0347810515317173
0.0351730404055019
0.0326898967294821
0.0315802836013151
0.0304822414242159
0.0307900361502772
0.0316065429154541
0.0323726407525591
0.0272566961811706
0.0280290009346557
0.0278249079777088
0.0259400627028963
0.0268831660981698
0.029545333026735
0.0274903012661762
0.0309469049015805
0.029295823794217
0.0287094200141132
0.0283911820659551
0.0269226458679714
0.0260479533620578
0.0324288743800052
0.0312273958535442
0.0271866712071961
0.0269125227732658
0.0310695529112903
0.0284626778257169
0.0277999674390175
0.0251928113253333
0.0256068542252851
0.0233099728029565
0.0259373541262521
0.0242711542950973
0.0238060675846246
0.0276998170370926
0.0230588293004373
0.0226613095654326
0.0245993389468405
0.0253614156317766
0.0245100565334143
0.0255377052066969
0.02537640436696
0.0252223530363813
0.0254889505686314
0.0266816456242156
0.0250811845912787
0.0257632261162193
0.0264431914428669
0.0264055727794984
0.0300283901111876
0.0274819421518975
0.0302217128001098
0.0300967684466575
0.0296994955213115
0.0334479122754699
0.0310016366928612
0.0301358856654016
0.0308700556656849
0.0270907846402996
0.0308692346261099
0.0300444270390144
0.0353392548846401
0.0328363136023021
0.0320301999341564
0.0336287894774749
0.0314776693687871
0.0314506099160295
0.0341601110272161
0.0349231867626593
0.0323556686739063
0.0354468740074416
0.0386410919834453
0.0384688034976227
0.038645001909401
0.0394649014027836
0.0414764471405642
0.0437258748039429
0.0416864060518042
0.0432660925237682
0.0439330240494849
0.049203080786469
0.0472768370781988
0.0418792927586864
0.0452238183141485
0.0443735206185926
0.0448777215102606
0.0434673633579491
0.0462932724413315
0.044616071364276
0.0453591705441591
0.0424918471355723
0.0368124583860747
0.0406937665241557
0.0418606435814404
0.0388715448739449
0.0387385423216673
0.0381912156451456
0.0433400096286363
0.0394183744236996
0.044169680374084
0.0385715270565109
0.0359631714179697
0.0385891753731729
0.0411360488511379
0.0371174402047372
0.0371990288069591
0.0310631914518881
0.032708542255462
0.0302998155331958
0.0376906139684271
0.0327744084425514
0.0317890637736791
0.029722972199901
0.0342474362355945
0.0293713042074756
0.0287364929520405
0.0316333151016137
0.0358322915254866
0.0330104672580044
0.038761482578762
0.0282934038978618
0.027524882432472
0.0261596495619964
0.0287124995511155
0.0281904678452732
0.0297570168407804
0.029501695892853
0.0303159763276564
0.022731736067745
0.0228747773949736
0.0232161943111521
0.0288291508280608
0.0231738193676127
0.0318951827053135
0.0195701309155483
0.0292730138143618
0.0271099831836713
0.0265401419471547
0.0287329469328738
0.0210616849858428
0.0260891754401735
0.02740556926139
0.0247335519048993
0.029686627352934
0.0253462727813682
0.0290818892489019
0.0194188076814292
0.0224340412220784
0.0198439775185664
0.0241680767814119
0.0219388415028347
0.026209811322818
0.0221120723126783
0.0199284275760055
0.0297783003060939
0.0260216049039497
0.0237685693216222
0.0283138573663128
0.0282872925065514
0.0355857962178766
0.0212318105546419
0.023058236166898
0.0250525752233429
0.0356879155741729
0.0227450742485492
0.0203540229820837
0.0317907647918258
0.0323198762947546
0.0252745016451225
0.0359191346064525
0.028057437098791
0.0327827470169146
0.0264852196423256
0.0322414521244062
0.0240002826212949
0.0300261690282137
0.0285491782844988
0.038610667532921
0.0221603997300422
0.0357719678265915
0.0292655918271247
0.036138553236049
0.0382654850259753
0.0410210284083346
0.0382451902335455
0.0425797238644711
0.0403187723526799
0.0390004466959825
0.0338253758001531
0.0388619492369288
0.0446431629046449
0.0563814359666334
0.0428280968664271
0.0470049170714035
0.0466823704612934
0.0674614565352987
0.0537599871123147
0.0517671944208947
0.0625063160172869
0.0538570119451594
0.0434821613256529
0.0563244416140388
0.0467911915369964
0.041039252665155
0.0462680706485022
0.0540296771904448
0.0497687318668751
0.0597008043771379
0.0435965896785684
0.0458467176422581
0.0489754931329321
0.0610550835873298
0.0526114303810301
0.051695171697416
0.0326022286179753
0.0462146273801916
0.0444251173018491
0.0497295660398976
0.0346273366094079
0.0353389860417949
0.0416680634765011
0.0430832499958294
0.0408904353828393
0.0543557378809253
0.0386492845443837
0.0425666763954879
0.0231521606412341
0.0392116038791973
0.033275494133185
0.0480297219124593
0.0291832249448547
0.0337282185210546
0.0402157556316951
0.0428607899473117
0.0355324960155517
0.0513385097987416
0.0508047781461393
0.0330106269871144
0.0233073953190256
0.0407103133038022
0.0325070712313255
0.0472153107835179
0.0321835212166138
0.0333650441173842
0.0393843380672913
0.0444519633313749
0.0386464777467646
0.0389892236308591
0.0372900782317276
0.0388819751526524
0.0389646365013593
0.0542379299115105
0.0396661184619033
0.0243395808240152
0.0368264681313443
0.0589247257672296
0.0492232297488098
0.0614619805992723
0.0415932556301813
0.0464916416961689
0.0411395127062859
0.0516217340525317
0.030434082903038
0.0374690064406008
0.021085864622117
0.0517642816500683
0.0192069966842619
0.0669248770782444
0.0515783001753707
0.0614483215543898
0.0552285812859599
0.0578163680280075
0.0526111953256224
0.0604921897743957
0.0297833990766233
0.0514401726853845
0.0629327042652473
0.0655704663127289
0.0546034347123838
0.0668423212354937
0.0405919869619337
0.0816738719293431
0.0424797136040572
0.0634694431101361
0.047461998829639
0.0622799872327791
0.0656298809575094
0.0579942354174718
0.0714965591521198
0.0787791983435255
0.0632279483766401
0.0536638979915309
0.0564517875301165
0.0665216587243187
0.0463194023384892
0.0747511771190891
0.030402903458915
0.0506697729351082
0.043857337384451
0.056495669489778
0.0608352314628999
0.0447279440624218
0.0536975083147999
0.0901337250702492
0.0392589414872027
0.0965445753170746
0.00470956660558952
0.0703339406204506
0.0519152443703545
0.0538544715624008
0.0100879070899683
0.0947908276449833
0.0181359682794087
0.103249689394791
0.0559629766292934
0.0665844647389225
0.0108649096473152
0.0664835991804947
0.0421567417584754
0.0794667330770099
0.0103387238139131
-0.00663658864877431
0.0840119350859074
-0.0376554574559531
0.045146354677987
0.0251458927723604
-0.0393961929385333
0.0895718652010609
0.0146487712175367
0.0569357729338641
0.081754976150301
0.0862352259670541
-0.0340839479019038
0.187457565590407
-0.0276748986961177
0.0956297985469467
0.0803952091312852
0.171459660549665
0.0803845191319951
0.227384381774897
0.0383706412350829
-0.0806796378068857
0.101929094075013
