3596
4000.36533379555
650.420452594757
1
2
2
0.0701496934622478
0.0738838159291358
0.0745802253716818
0.0740739529209898
0.0771486119556353
0.0756189309453265
0.067380933284753
0.0744502910160852
0.071298367458698
0.0804597636975402
0.0782905353252302
0.0728836013788496
0.0613348480156853
0.0715918832950079
0.0724943127997394
0.0776599651747403
0.0683692184410001
0.0698939675379064
0.0714726577804285
0.0707258748571797
0.0625903669974615
0.0753451018990351
0.0695863389756219
0.0700209628504821
0.0745848138241966
0.0854751617778617
0.0673646425232546
0.0723033032265284
0.0742989273806403
0.0808298038101705
0.0694346174907415
0.0790534653239801
0.076177610655318
0.0726878268949912
0.0673548459349276
0.0692943463214347
0.0648315129173553
0.072638161740417
0.0658764479727055
0.079398826592697
0.0872163881658864
0.0831845453879269
0.0658047632511159
0.0794391041231796
0.0760901902793359
0.0783776472090999
0.0713461712736913
0.0719575509501315
0.0735238865268749
0.0807503674389468
0.0679354532044547
0.0727236516464655
0.0829654518296772
0.0855528244878144
0.0854212118757557
0.0995328902445274
0.0733573990387221
0.0719739652124609
0.069829973075404
0.0794452971753555
0.0914378132620993
0.0929468792871805
0.0704807507503023
0.0720784339112954
0.0688778711190754
0.0795306506198155
0.0675508880249336
0.0763409571672467
0.0723783967913994
0.0748302199702121
0.0716526232521039
0.100834561306309
0.0849204446919776
0.0796640828768111
0.0850088337793002
0.0756248425630161
0.0701737004864985
0.0728608332123583
0.0636038409254225
0.0946251709541578
0.0893311912240898
0.0832918350887558
0.0720840453220421
0.0677324334320467
0.0856778687382641
0.0940870599834101
0.0681844517340573
0.0924171597461421
0.100369570669991
0.0873659679258562
0.0699379280572923
0.0695672565197456
0.0597504454013665
0.0706750594749648
0.068691681765563
0.0723053622434101
0.0664059085461758
0.0733183673446677
0.060454032653424
0.0809876776186154
0.0782470578597512
0.113738725876437
0.108849799123532
0.0913732769372718
0.123738203859795
0.0948207954351846
0.0837939043557147
0.132293616087804
0.0902396362158807
0.0775800027049121
0.0712452373706585
0.0810224492351255
0.0733538571070168
0.0855884142552818
0.0669430950598408
0.107077491023422
0.105146453942039
0.0791312242273425
0.0691521595350969
0.0679163126982357
0.0660653239117077
0.123429569153044
0.106048663871438
0.0870654509037732
0.088871213209625
0.0790175188029081
0.0746550273747956
0.133458696098183
0.094611001991538
0.0761088506484672
0.067705078841267
0.0772059540416716
0.0563230050951105
0.0921159502067676
0.112067646352282
0.0870348446308323
0.0697838563194337
0.0831011183973982
0.115129779769134
0.134371486156633
0.0888703486831021
0.0803435355811779
0.0608313553803394
0.101864647511236
0.109875890602323
0.0931268795886688
0.0825133402288914
0.108346666478695
0.0764891624718973
0.071049615568013
0.0603226025258284
0.0801020968278914
0.0914394653933363
0.0960547739172804
0.0549857489380375
0.156601762499162
0.136529233870418
0.143331118216214
0.127898599672471
0.0830907020558938
0.0805836999948958
0.0758918202993922
0.0651618229398216
0.0744251044742354
0.0605686078554445
0.0664970928036652
0.0955478275881376
0.0975830537400145
0.073050169494295
0.0946033972135192
0.119364221532772
0.09744213622335
0.0830520895196644
0.146304135095913
0.08276115568856
0.0800496390400446
0.102616908026875
0.0881722418707434
0.0646722185141609
0.101613590159097
0.0910302192919052
0.0840267633211286
0.067178829962741
0.0724854993015075
0.075165041380754
0.0921322880718635
0.0717271524169182
0.0771103772902556
0.0658479034417333
0.0709318235941707
0.107184151024218
0.150353636318324
0.105823384060203
0.0924310795303172
0.0651133099530558
0.0594067740251183
0.10497598854167
0.114327353096518
0.0756830073945535
0.0721569401803562
0.0621565821737582
0.0684177281886658
0.0606593487161114
0.0705959195679942
0.0508034545674609
0.076197572910845
0.111992987762234
0.0940927052022358
0.0665957923773875
0.0727951010754405
0.0757009997904184
0.0875698082327347
0.13439764503881
0.103538684909112
0.0731577157737831
0.0777172129990109
0.0707828638947326
0.106662292309583
0.0812393929171295
0.0726487432098259
0.0644369737797136
0.0702032476573316
0.0659505045642621
0.0721278518808997
0.0647062603495928
0.0719134766755251
0.0654607503112479
0.074750987706049
0.0669688385398716
0.0747325466628429
0.0760373744416704
0.0700724044354055
0.0597540870579139
0.0698065394654871
0.0532621520368231
0.0980277731008626
0.0914375843254078
0.0799551385822615
0.0578521101098559
0.0655965979190218
0.0627945226459026
0.0722275556193886
0.0619755129681293
0.0710617932842177
0.0569855752839585
0.08057144168802
0.09494298680806
0.0820962705314477
0.0672663108240268
0.0644046704081852
0.0953617069776796
0.0885992935170247
0.0703058035200579
0.063251612873505
0.0656838322203807
0.0640173228832283
0.0718141208845788
0.11790205493651
0.0822570377280047
0.0730625967678478
0.0956622807614327
0.0848596667791452
0.0726985291681655
0.0756938463802601
0.0833130379547562
0.162505943001075
0.0984628009910339
0.109998675096869
0.135946348566983
0.0991135864783276
0.0847302248456252
0.0790034855272179
0.0697389821656434
0.23167736217878
0.129393840390776
0.0816945998801124
0.0827978815197869
0.0977404327614879
0.0673782825969052
0.0898222482122272
0.0741872772177247
0.115317940149051
0.108095052184549
0.168662818802608
0.119534204726504
0.0865754056283728
0.122045751463985
0.0998168508381731
0.0793291681452791
0.0710303046506789
0.0712303553812541
0.0709925761703835
0.0930716236258278
0.0932959891631992
0.0880236272511154
0.0811095926009434
0.0836139196946636
0.114134264901458
0.0839421776226476
0.0707361443546994
0.0774298334359079
0.0866976698381056
0.0652878951834378
0.0699398099761582
0.0714127947917653
0.0876848961776267
0.0611098850063883
0.093789397841674
0.132109460813319
0.0932623498349781
0.0835496235818566
0.110504158634588
0.0718139951751451
0.067009000545325
0.0599352650119154
0.0674308853930669
0.0629778801034659
0.0605799939888162
0.0684303835757666
0.103479531760288
0.0647267325206998
0.0695525563455983
0.0652628339894744
0.0678744236699787
0.0619899661461867
0.0757037424717475
0.0678917178552317
0.0743666393894702
0.0629797582182981
0.0709491186375792
0.0989812674508263
0.105643166801263
0.0699280813132224
0.145113989390022
0.100743210588646
0.0836787584671088
0.066263457765059
0.076037401227699
0.066515014857425
0.0655652962493124
0.063916062990417
0.0676578198456581
0.0787676547743055
0.0925934676419312
0.0686096741910154
0.0895047315469133
0.0931738488146336
0.168516853299478
0.155532147919419
0.0991300526523272
0.0674292976456645
0.0750701071876847
0.11998668245274
0.114394099589736
0.123582737772789
0.107913908912134
0.0783360452300244
0.0823867883564518
0.0620792777060888
0.0689089548064017
0.0570829443475128
0.0779936746261595
0.0598234855954245
0.0764647653282008
0.0617787620944113
0.0816754399708448
0.0656494130289317
0.0997302219951986
0.105541626714736
0.0924730656094448
0.0799283796557378
0.0808903446401943
0.0650517982225444
0.131696598549622
0.105001504703018
0.171867126071678
0.108998189830921
0.155293134636748
0.124394059444589
0.0989836568814961
0.0820351418304246
0.0875942812433206
0.0884343464972128
0.0969640753615889
0.0821988364436229
0.0837095484079797
0.0758899044282043
0.0879126690611487
0.0753907036767391
0.0940669378736031
0.0765860183908061
0.0996822571934717
0.11158688403958
0.093397613179548
0.0945319338820504
0.0911670182253089
0.125098826175081
0.19542121218488
0.144097320757193
0.110774707318226
0.105962212841883
0.0970170338912272
0.094100897870174
0.0955612443773407
0.0941808414886266
0.108747650653861
0.110820211052606
0.158112693178635
0.116675739899769
0.149728582020039
0.122069365584983
0.108816316165748
0.1314722410762
0.12289175344694
0.135650034801826
0.148294706724454
0.109053190171903
0.107680271326103
0.148225795306416
0.128383474092298
0.138290297147882
0.1371413851734
0.100820783704462
0.119894222641361
0.111201497793704
0.127498516851983
0.106578624695221
0.140881924409287
0.118007567530867
0.125694542785652
0.129954386511226
0.131208986344534
0.115130963207507
0.165337297333387
0.123267719668342
0.148380868257889
0.132224222955016
0.131376060565374
0.125736303087825
0.127320789356723
0.173581072225322
0.154169229741434
0.176721612446007
0.185634399881134
0.134745855891445
0.149855800318582
0.141303105148043
0.151012198668454
0.134045322733299
0.156704085865033
0.139584246010116
0.145529344525027
0.1365840691832
0.171388094936076
0.140743497407711
0.167406304378171
0.148015653361483
0.152976024857586
0.152076899268605
0.1725226884355
0.172731200663218
0.158677704884199
0.208170968871372
0.207701364648198
0.212602333987098
0.215755331439709
0.174339570100808
0.184282036641449
0.168812313288973
0.190808015391081
0.173423215176556
0.206002531939093
0.178034980598317
0.189440088204385
0.169708418536411
0.1997923499658
0.186974587954162
0.204188527675056
0.178188863921985
0.213179897001821
0.199604560275959
0.208663327916477
0.200862458803917
0.212963467445389
0.193986577134162
0.221844238115174
0.188439490218822
0.253139911464456
0.209473983272933
0.231971969657462
0.208679050230589
0.229115426004985
0.213833733238273
0.226923379821657
0.205553044290144
0.236405614851705
0.216628025629054
0.239568746139807
0.228455719028303
0.247286607883389
0.223111698296239
0.242687272817681
0.2357224616551
0.255228384706858
0.252737247539057
0.25717626968328
0.24876882092214
0.272044210660728
0.248896189343672
0.269071226342045
0.269760642973379
0.283698472315034
0.254377458251338
0.286476771108459
0.254413149686095
0.289887408742857
0.263881115095114
0.289935054246948
0.27859586225946
0.285668406746696
0.261408506276466
0.277929209082041
0.264498460337887
0.301208411832495
0.279180410611697
0.31209360340981
0.277408744124973
0.30025266010528
0.281597310666804
0.310170687909469
0.294984444093113
0.304328911165424
0.302206067617079
0.332809295183958
0.318947220728877
0.331117848098843
0.297039844952421
0.324032596084162
0.313637652755612
0.340283757368106
0.309023001035973
0.330496467179876
0.313039293454151
0.338727302296687
0.323487759438186
0.349374281430959
0.325367114114382
0.344416510143081
0.338252961419853
0.353760905701086
0.347640668455881
0.373555048072878
0.348388798153682
0.38624383606186
0.337027880197115
0.383778734730752
0.359102221025449
0.360856618495557
0.357234073572334
0.381797725625175
0.354502364838074
0.384633595464424
0.35932015863391
0.385408334719742
0.369898671159477
0.392820110232745
0.366879569449152
0.376883389888685
0.368699210984131
0.388059542042638
0.369891424876175
0.4223032030853
0.381879018475789
0.415813221647372
0.393289800360357
0.418778283527996
0.376376095976514
0.423628632262593
0.39136224028975
0.404245881234526
0.403365196704087
0.430888472961668
0.419743382712242
0.414108439282236
0.408540861412006
0.428308362475614
0.405255258977461
0.422098470303078
0.392771542353925
0.450073345752712
0.416754745126191
0.462683550955684
0.412337929478471
0.455913594354713
0.421278519474273
0.447177933342963
0.424893629546056
0.449929667999812
0.432328339409631
0.455706429369518
0.442587429429057
0.468471653970938
0.416811228497621
0.454882220152664
0.430772357776428
0.455510431615099
0.444906697423537
0.484969824752805
0.458621322684692
0.476044471527358
0.452623588125034
0.47310263584376
0.451071809258556
0.491894944102118
0.468582452154718
0.490624108899186
0.463792272371285
0.499873795542474
0.468069539366793
0.507334270264306
0.472216123374179
0.495243092595116
0.447972079536238
0.491618907178775
0.465296852147125
0.485378020712871
0.457697645496136
0.489306996491662
0.465100249266652
0.498282794043473
0.478139744714288
0.493548499102962
0.463669206755075
0.487104815261695
0.479676889015557
0.511452507634993
0.472408110714228
0.495739299877384
0.487131691021696
0.516504511536697
0.499045398193339
0.516747962303194
0.485621974735219
0.52568445595529
0.51254949375823
0.522822798374897
0.482838818798393
0.532057005425228
0.507785422838709
0.542877582155755
0.521215109439776
0.534469006451814
0.520438368518773
0.524609842233709
0.527032998452425
0.51043855149881
0.504981673200207
0.539709545471486
0.513134432979339
0.521320779864424
0.506970693212346
0.516956478928117
0.492856283524085
0.523292563340202
0.507400674424279
0.535629580860542
0.513173135143499
0.546097325931449
0.511696439261212
0.545315105903856
0.507393241330985
0.525698589193225
0.515719276331634
0.546961915199173
0.509844177830769
0.533923440084195
0.507845952915705
0.532217547866677
0.496650651171896
0.548106432811782
0.518711899806096
0.533660075677226
0.503005585992884
0.539316800069188
0.541846601439201
0.553784758177989
0.543475409306368
0.566450236718919
0.5280718646934
0.545261471035801
0.528536473861294
0.554166203370408
0.511272120231422
0.554563432140481
0.50767860337518
0.541858381080254
0.527486858064205
0.547190161843208
0.534622252806308
0.551017368000615
0.510614326524119
0.54498622810274
0.513129969516331
0.556653113990859
0.513525795969536
0.552829564185466
0.520426751656073
0.544945882613079
0.520361434440967
0.536379379917943
0.516560347197967
0.564908647671898
0.522844957915362
0.533322731227178
0.520138501021636
0.528025132453417
0.501266436835573
0.542791022727816
0.51263052449579
0.539927360148017
0.516753740421291
0.538464064357067
0.519808442996659
0.549849133857797
0.509568103232855
0.543722063009915
0.509626151540357
0.54329566027182
0.518483075705067
0.539435396317978
0.518579099133454
0.542051661728759
0.511873129554767
0.522229617284425
0.522255092850149
0.529219020119854
0.516993528653579
0.53453050677781
0.509747844569884
0.530161700217625
0.509147924264797
0.521256805503759
0.498695198797118
0.518290102083533
0.504236985495597
0.536233871684152
0.492263728947336
0.524124084837279
0.488485809869886
0.526213075251116
0.499824443322905
0.528110678898827
0.505231874706609
0.509405414361057
0.487047599026559
0.516442867816154
0.498420353375248
0.509422123494469
0.496978120423584
0.514010595704463
0.501304911181051
0.520689562995739
0.488148858743938
0.506058381436955
0.490646719262032
0.503154070595854
0.47442820016212
0.498418613644747
0.488251230847833
0.51471848934839
0.489715401451917
0.497734246329317
0.482254064763841
0.502623579509323
0.48309326389069
0.511458549883864
0.478295080853234
0.480082061637127
0.464065086382485
0.496066766283103
0.453342349976769
0.496963451318591
0.462238526681283
0.477577835909921
0.463007205848944
0.48299396305781
0.469925480990058
0.485698624061258
0.459675564181475
0.48108505328849
0.465336375362327
0.487687946016675
0.463473143003536
0.475437118270748
0.458854032072781
0.467612177166573
0.458871048445501
0.467860229573193
0.451960654238995
0.456622949578018
0.455191273998251
0.454792531148697
0.445227224590534
0.460372962923158
0.445278514086048
0.45057797847022
0.435311298990524
0.446931818077116
0.435147258140792
0.454545752185583
0.431967287730103
0.446821542384841
0.443998826639744
0.448685721654757
0.419372803127266
0.438742173607864
0.417716382701909
0.445261877798194
0.427516736712171
0.431491415439347
0.409739454665398
0.435314399354913
0.413677759218997
0.43412357922988
0.415677671708151
0.428122984185546
0.411261156946421
0.432289543919121
0.41427597240876
0.427230404084541
0.397776497703038
0.414781211881778
0.40880568438345
0.417498193563978
0.398405469695057
0.405748244669535
0.390511715418588
0.425321295304321
0.395613155577946
0.407577639521571
0.393210537642608
0.406445920944541
0.379057314862585
0.407393058505165
0.380114740811263
0.391121583578479
0.378553215705655
0.389392630502061
0.371407339646968
0.384188871615616
0.366369425178123
0.395155283964729
0.373298471493254
0.379286627819612
0.364637096392029
0.374987484781422
0.367904427220755
0.374266363436987
0.355387554124555
0.37491965683398
0.36597074031199
0.371662882434683
0.352465088032894
0.365267267470495
0.348163027799023
0.35544224562443
0.352674609518851
0.35409135656792
0.350856885452787
0.349919488504101
0.342828518318205
0.359170572526943
0.337890690817295
0.348106139883085
0.338560513101714
0.33899686779831
0.33399781812029
0.343014611636615
0.329907670584336
0.342748413548215
0.321451843661332
0.334982639919903
0.323658335505842
0.320604156576064
0.313348333170082
0.329058962625037
0.320660417659795
0.325526050039344
0.313046207198384
0.327042806166212
0.317449265175306
0.310899377105132
0.309324812615985
0.311138625728782
0.298859762401489
0.314382545652116
0.303180918293955
0.309137262226925
0.290820355200851
0.309910432334862
0.292851097819454
0.305547214085542
0.289891200160804
0.295883634165955
0.287803820410303
0.301192454598389
0.286840088484291
0.287892563843262
0.280151191916332
0.28516876715091
0.274221519698014
0.288061883779055
0.276687910959321
0.282505715018032
0.268789156740702
0.283200920300844
0.267353825891921
0.27273673757555
0.265460800267101
0.27846470034033
0.266871417048803
0.27276770345105
0.257575081445308
0.265199300106176
0.263294573205988
0.266262701000905
0.249764390773722
0.257017063186269
0.254895181984862
0.25873313773043
0.253622481700886
0.261867744411144
0.245967694644523
0.255014230591002
0.246823059517074
0.252043631443545
0.242052460152205
0.24663868341265
0.23748402206136
0.244553502150433
0.240423120070571
0.242342373865009
0.234917539425152
0.240807933150643
0.232603796573134
0.239553589948782
0.229542490101255
0.237323402163132
0.226498860888845
0.232538242921602
0.226124840796503
0.233513781933764
0.222973695598204
0.232041801694984
0.224523377545434
0.225164048047988
0.215071131817448
0.223821773003919
0.21331384989098
0.221386366984791
0.204665546242891
0.215944196881525
0.214812083595653
0.213872149044165
0.208920325708661
0.218144613287189
0.209530487285587
0.209112113523579
0.204950312452764
0.216397065692973
0.206779931249835
0.207476212267455
0.198668186163036
0.199565623190948
0.199639857936389
0.200131800361526
0.195604316445769
0.199784796450399
0.192306462285066
0.200237938975791
0.189678432459008
0.196690797592173
0.185529052140255
0.19428791693453
0.18715915191784
0.191823610477526
0.184120499069673
0.18992675839859
0.184818363711636
0.186738189104156
0.187183460044984
0.18750571515477
0.18033846131474
0.188162992106393
0.180148510024711
0.183544396679832
0.176965861543062
0.182369726994136
0.173783914861561
0.174074430584142
0.172169609081543
0.179900198497747
0.167796075481023
0.177328902387645
0.171492700911153
0.171868371167212
0.172426113757916
0.176376007935332
0.165473258383732
0.169201139842583
0.161227774609692
0.167425411605232
0.167926321323653
0.167367292612247
0.164747520791699
0.165784512762903
0.155789428140602
0.160383995844004
0.160998853372641
0.162858390261773
0.155980562722057
0.159519955746555
0.153243040775685
0.15655398153819
0.151950163810535
0.152592270967903
0.150799054889568
0.158155360442704
0.150725153864554
0.150726630131985
0.148436535083796
0.152960500830333
0.144662572108205
0.149029968685982
0.152396948748283
0.152145877091506
0.144713107533739
0.147047509978586
0.142562963213714
0.14991720335494
0.144585705748142
0.14519939353944
0.141036877747786
0.146861586720563
0.138587730286755
0.142831846429707
0.1363565934652
0.142227404519672
0.137147387911345
0.142689076755367
0.135614276391734
0.140902325398275
0.134271836850993
0.137371568913796
0.131649137659077
0.136004517089574
0.138478456206308
0.138433781818682
0.127277014865128
0.135281979175952
0.129802992795695
0.134492163540118
0.129771406580516
0.135644747853531
0.132952259327926
0.129265280439438
0.130405162696924
0.133718209747257
0.129953088226217
0.129229495142678
0.125528371062476
0.133448063657069
0.128994521477759
0.128296211635351
0.121499793392839
0.128490692828471
0.125582722169371
0.127970066881209
0.125746403148517
0.12832629115099
0.124597406442526
0.13436310526154
0.126109207795948
0.131886731098568
0.126670401858825
0.137612771609551
0.131367589691707
0.136789018240802
0.127834363971508
0.13570409465516
0.129642718850695
0.129658065334685
0.126371161113453
0.132454820963123
0.128214957131874
0.130395795737863
0.133085966608128
0.137380897728252
0.131963409172662
0.138477040007395
0.135604545410009
0.138016561068976
0.135974511831806
0.141173910487474
0.133498500567792
0.143294796067406
0.141500067157986
0.140455272560271
0.14110903775344
0.151537908817123
0.145742596832797
0.147700852771625
0.14614482101859
0.149241014239973
0.146066523493713
0.148906159671559
0.148858945704318
0.153788629431135
0.153149823767941
0.155568848055558
0.155008137932724
0.159149685520702
0.15541621719219
0.158231486058152
0.158799513903821
0.165640371513651
0.161254961970124
0.163168594301685
0.161246182892614
0.170600526484915
0.165224360673222
0.172108520541903
0.161186738097898
0.170104602001608
0.169671281314982
0.172748557524881
0.173861429833144
0.176469756634534
0.176479855140541
0.184897528067287
0.1820541036359
0.187628894112438
0.182220449950413
0.181070380182083
0.183060998527484
0.18440966145214
0.180584198122517
0.19003233159246
0.188878211339395
0.189790811261789
0.185869166232599
0.193961312932369
0.186033635585088
0.187671218500418
0.179715266284078
0.183524348862804
0.179481689300537
0.184839335676001
0.182901300110179
0.182989203214029
0.179448323351196
0.181930155361743
0.179018110511032
0.18438622306919
0.179024518603199
0.184175845295714
0.179459592004346
0.182270517923994
0.174114844922465
0.181926109924088
0.180952110424502
0.181512541087527
0.179570480703231
0.183056923903005
0.178504338200579
0.183592097654065
0.181728909413447
0.186447312675371
0.180402093548731
0.181669434598629
0.181756029435845
0.179877509640035
0.179404200229774
0.183321008322305
0.17899559599347
0.188763981417698
0.185302991083581
0.183167291850761
0.183313667728517
0.186293304263082
0.179120543189587
0.183197373671596
0.179832517638855
0.182407356788311
0.179669993969911
0.186246793122872
0.180806041191275
0.185352377688191
0.178201528606039
0.178568596070653
0.179151835973829
0.177909939200767
0.172965518001279
0.175170313924582
0.172225566550686
0.176291171780788
0.172661080072021
0.172763543461444
0.171032636817094
0.174979875606493
0.166353423558755
0.172233301805053
0.170460316256206
0.166946700664711
0.164432913035275
0.165193757210242
0.159851479279207
0.163212430674617
0.157055897126739
0.159630814618199
0.156796607981907
0.155659070269353
0.152838788480043
0.154096259244776
0.152249189402202
0.152439456063092
0.150742510736061
0.152894532827261
0.147189262167917
0.151227297521843
0.145438841299622
0.142411788793521
0.138511516692607
0.144295080500003
0.135773837116819
0.139227633974842
0.13556618028178
0.13673228305108
0.136690107290193
0.137236579058763
0.132581154486429
0.132822259496458
0.132041367054737
0.134438989300019
0.129840162243608
0.133857626216606
0.129147899135724
0.128452775390271
0.126310915898736
0.127533595447655
0.123579489082717
0.123667227651261
0.119265751749061
0.123230672256276
0.120761960065076
0.123765298894039
0.120954416184728
0.122420550341185
0.117938595827063
0.120129019054819
0.119751281469707
0.120298690385817
0.114815368756673
0.11880592156995
0.115511206013121
0.114724314588005
0.118058567374885
0.11950765562512
0.11571602235476
0.114174689953134
0.111623014086733
0.113269121779123
0.111725436497269
0.113756067186373
0.111280026495759
0.113371223285604
0.109451835827471
0.107212606989735
0.110047466011309
0.114151795620022
0.112221531829125
0.110983595778193
0.108016506509748
0.109970173620816
0.110644433743142
0.107455107865861
0.104088389272797
0.109142799325826
0.10661628996668
0.103906984620719
0.103453449741719
0.10521391306574
0.104539701373107
0.104985440392849
0.10244856987043
0.102612577509803
0.0993797515317228
0.102510808519953
0.101685528917097
0.102854879952334
0.102131114610685
0.103861686206172
0.100994191520513
0.101618686841405
0.100644284250936
0.0992998378600316
0.0990263285239775
0.0996308580446598
0.0984030061535428
0.101586000219373
0.0983686692605874
0.0981398346832084
0.0991472706932574
0.0998084907403892
0.0995122802213643
0.0993626534354791
0.0952233333186369
0.0997816355505556
0.0974164887416618
0.0977848516475027
0.0979807797918874
0.0975517129881782
0.0948391771127625
0.0964572268612055
0.0961754207283139
0.0989803145399895
0.0940336968948175
0.0955404152267287
0.0940122238795711
0.0954793233459661
0.0924827994236169
0.0941533706798694
0.0948311475582205
0.09501385514918
0.0935168783686716
0.091280371014862
0.092580358910441
0.0961692132790921
0.090936957635817
0.0944152461185643
0.0930354359066962
0.0907165361214981
0.0919517317060539
0.0941863617659022
0.0907997091705007
0.0913736061687918
0.0897505673410868
0.0909006621850638
0.090231935228892
0.0924281985498886
0.0919121134141954
0.0890354227706694
0.0894652517864371
0.0911918028647476
0.0905085418114771
0.0917130558458727
0.0899626930009671
0.09168494721568
0.0894834531841315
0.088023208748254
0.0881315729143422
0.087478014261731
0.0888442415092854
0.0876489073397376
0.0885843078406581
0.0893278092563536
0.0874559829872832
0.0884813945104834
0.0907820963193684
0.089058681820274
0.0857225352816407
0.0908570612907354
0.0882777279643611
0.0879060641804674
0.0862122773034828
0.088501873092412
0.0863694029933725
0.0869687132253078
0.0859360593156523
0.0853677228421621
0.0855895603154248
0.0876234155657359
0.0852306320061933
0.0848457004505975
0.0858715576141438
0.0873389752333584
0.0813010922634257
0.086415600654841
0.0857803587754359
0.0833401360155353
0.0840662880416444
0.0840492070470966
0.0822150916255527
0.0820413069790312
0.083864496791289
0.0838190973843191
0.0791154343435472
0.080455286186386
0.0808011668915078
0.0845769395439375
0.0844349732801562
0.0832320434923243
0.0842001915387988
0.0812913922850176
0.077627086341593
0.0777501439541591
0.0771998919408483
0.0801576542981117
0.0776050017024064
0.081393827068837
0.0789704677643037
0.0809347829874351
0.0801449588612369
0.0814209465088961
0.0794283538435034
0.0788837366785529
0.0776907257230244
0.0807152185857483
0.0783955468169958
0.0788261290162492
0.0816007737617977
0.0766234867003831
0.0776744407975054
0.0775329807497542
0.0776236012416354
0.080609590926264
0.0786596327010058
0.0759338723745796
0.074840627420041
0.0787201529099463
0.0765260698308678
0.0773807792865559
0.0750564400823759
0.0780947613335828
0.0755943580375148
0.0751330248759861
0.0747231585081676
0.07477083031518
0.0728317072104959
0.0733714345669778
0.0730598026245466
0.0735292811505164
0.0740712101396403
0.0744485744174015
0.0753721350327711
0.0744301941526355
0.0710603318906047
0.0730441449734199
0.0692123242771526
0.0713546784520259
0.0717233585442636
0.0721333549399187
0.0708765433374172
0.0705653290653037
0.0697731983792291
0.069348359834227
0.0684983893952214
0.0705783917383637
0.0689648205832965
0.0697659700394075
0.0681507046988008
0.0667984759771286
0.0676269793326369
0.0701089491180032
0.0664888519317178
0.0650143307595815
0.0652939071330087
0.0691815270260665
0.0649949914067695
0.0675065917575505
0.0674737951691619
0.0671897936255608
0.0647891011817494
0.0646050227702889
0.0647009714771456
0.065961771073769
0.0648210804449272
0.0659891319427107
0.0641574577934154
0.0681423401708973
0.0646545194859015
0.0639642073797655
0.0628151859957357
0.0642021462387543
0.0611215834982573
0.0641820164522943
0.0606060824793663
0.0636378184831233
0.060145348188761
0.0624585252873944
0.0599177684004017
0.0644979512227963
0.0631137059042399
0.0609769752483951
0.0585474064619125
0.0613021215493818
0.0611060620420722
0.0628038275346269
0.060019401971573
0.0605940303612303
0.0616756810277405
0.0633393013116126
0.0606738612330683
0.0619383227415861
0.0591682480037524
0.0621237818929835
0.0613077906585112
0.0610615220550108
0.0604673095676596
0.0623985982305603
0.0603274770199569
0.0604961035044271
0.0615091432487763
0.0607372521106871
0.0599617923879209
0.0583198798573139
0.056769710424035
0.0578822723082092
0.0586065466928024
0.0573160700463677
0.0595055108415925
0.059821397708084
0.056666766798484
0.0568683361476884
0.057694254305013
0.0575124664390388
0.0577237956096337
0.0576267766762655
0.057483494499982
0.058450083508894
0.0589461489402466
0.0581193492567239
0.0558419126592056
0.0542719068762119
0.0545340715998393
0.056767031497619
0.0555053455399342
0.0566220547297204
0.0568206808337898
0.0568832982345493
0.056306169600077
0.0579398768997503
0.0560441295285231
0.0563252948720911
0.0549575590177094
0.0580702602847136
0.056472456132851
0.0557702857357166
0.0577204545025865
0.0551028956360399
0.0565115596586977
0.0551304635164487
0.0543323520313591
0.0560319054408257
0.0558591499987893
0.0545038297864895
0.0532919392963501
0.0547549008803553
0.0554262383029893
0.0562551864011214
0.0560451297253349
0.0570046513618692
0.0557510949092197
0.0544703965584585
0.0529316152855251
0.0536440574123602
0.0502513668376229
0.0528892956482799
0.0513154269861275
0.0510530147001811
0.0516819880764176
0.0535099969214501
0.0511844730978399
0.0544905815064825
0.0517887106178374
0.0533000830670346
0.0512376746461742
0.0550671648962062
0.0516875691761958
0.0510361263582037
0.0497399809045651
0.0537573572889738
0.0522433806802692
0.0515732576735127
0.0508515456229975
0.0519353576348837
0.0521412114138378
0.0523769812638643
0.0522574591136686
0.0517648624956594
0.050021448263232
0.0507870458777455
0.0509094315716521
0.0493911773464586
0.0494036318354858
0.0549111700509823
0.0526302040054577
0.0503418492879868
0.0507873121885301
0.0503966969880069
0.0506656580168139
0.0502460552398889
0.0500983569115769
0.0500692512839966
0.0461461934486091
0.0517397843055149
0.052645710032826
0.0513397182006358
0.0508205597647043
0.0500145142170285
0.048506636110988
0.0487955505914547
0.0497263214260966
0.0524714246150496
0.0502168941332247
0.0521807903522278
0.0490514909097437
0.0470939669730847
0.0478672932009921
0.0498736982459207
0.0485832939117652
0.0495953658884989
0.0490413850959125
0.0486605991979741
0.0456744008806105
0.0481833655899487
0.0485680831782968
0.0487241844371299
0.0452614015305907
0.0489009981110259
0.0498191809446937
0.0475044622442429
0.0449705762672767
0.0475202856839446
0.0448754254436011
0.0465695488204011
0.0477913688136809
0.0459186872902528
0.0462700862120923
0.0473301555308185
0.0462388863812434
0.0475143781403188
0.04407320832762
0.0469241008200279
0.0463862240091476
0.0453257438646415
0.0437808569035438
0.0462917993207472
0.0452054760483059
0.0471011990411746
0.0445000634230879
0.0461972154714419
0.0435481343062896
0.0450630373300144
0.0414603479651674
0.0427357316042915
0.0433896714846159
0.0438177338399129
0.0407489715715599
0.0455569678877461
0.0447014956536609
0.0446658668661976
0.0427070432005573
0.0422815962943944
0.0421691686642697
0.0449404442661379
0.0435390517519987
0.046196438079235
0.0442890808050963
0.0434219398206006
0.0410021759664593
0.0411079600128255
0.0432439013731573
0.043363014767339
0.0437321025964805
0.0431278254250326
0.0451232110326447
0.0461601357063702
0.0424496499954037
0.0408722574482846
0.0428735617866006
0.0423020802796193
0.0395105215103158
0.0426930043342364
0.0399531325615421
0.0410181801171839
0.0399783855048282
0.0408102071742912
0.0395244205465157
0.041660166042008
0.0392254052604577
0.0429292092865593
0.0403179417656256
0.0420790250083418
0.0401489188897974
0.0439741493559922
0.0376566292593355
0.0439751748164956
0.039701971737216
0.0396815771530549
0.039425048865375
0.0412612443547681
0.037904363912288
0.0391626995482918
0.0385920189846702
0.038739965177982
0.0392359743653537
0.0384885378141336
0.0367516631086737
0.0388448039391481
0.0374322870388987
0.0389584160769045
0.0381240685452207
0.0378523744677942
0.0393299762375648
0.0387660403698299
0.0380395916403557
0.0397405095300008
0.0376723156645413
0.0378882671364598
0.0374814892385932
0.0372403217121395
0.0379341525509072
0.0370874572893955
0.0353535341800689
0.0404246765791828
0.0388918282102714
0.0394318549326667
0.0355851866437431
0.0387176081837859
0.0373361953038218
0.0379935113103712
0.0372693493533955
0.0409030163457137
0.0382053478151526
0.0426327393412986
0.0404571664334602
0.0401472358251377
0.0394161410552181
0.0432862540318915
0.0376064894558221
0.0443460180223155
0.0400136986939137
0.0436604946982041
0.0401465147199277
0.0455500925702617
0.045035122009399
0.047091284510193
0.0419849041896127
0.0433399279604764
0.0342386688815912
0.0361020119696581
0.0374328244455346
0.0464060041047405
0.0313909213156039
0.0358689144219442
0.0380212170408164
0.0441648944665595
0.0304546011788974
0.0382178909973177
0.0345831183913863
0.0400372600689823
0.0405082829351936
0.0373476179164671
0.0281622688851881
0.0413450908266778
0.034111123614639
0.0459011304280378
0.0333663545193541
0.0406946726210412
0.0374729467091364
0.0462032342638805
0.0278289158398261
0.0457095296029552
0.0291307317037981
0.0445319850440346
0.0251712865598318
0.0413942413096996
0.0268091786625242
0.0432460892949443
0.0249545863606294
0.0434951806505897
0.024396582909313
0.0485139721726117
0.0269473950076178
0.0534583154640122
0.0243326699187874
0.0460613379967062
0.0166553538575536
0.045466650821932
0.0179147438833629
0.0593850125041956
0.0285024727788394
0.0552732159961423
0.0202043839518082
0.0447724707735185
0.0251626660435814
0.0587747482019997
0.0246416695913666
0.0443059760411492
0.0322568458056182
0.056357951809435
0.0417200672992477
0.0357793565237548
0.0455655236532879
0.0331973504008
0.0501478200696221
0.0224050026936962
0.059068446301955
0.0192901555967765
0.0564714230793816
0.0236069739141269
0.054584774138935
0.0249433277462726
0.0496689178280271
0.0294144481777653
0.0413112355391166
0.0350212579176033
0.0362422658517868
0.0380767422558078
0.0358596596244632
0.0349681432126987
0.0387178442933026
0.0327926804055211
0.0399284482129387
0.0315056334147306
0.0381094690573662
0.0323221875398799
0.0381867388396206
0.0308772599210798
0.0368977838239496
0.0319587972522287
0.0344567743631557
0.0303005176821841
0.0327657972743145
0.0320915777899859
0.0366286359586852
0.0328573656832754
0.035247449979518
0.0316797528328551
0.0346371583331519
0.0324542526288056
0.0338522689788096
0.0301486428195572
0.0344038413161096
0.0298020907215076
0.0302032753165559
0.0286886390916183
0.0345423789139599
0.0308538554430197
0.0336815417624225
0.0275260594870354
0.0310417896720047
0.0306459630723273
0.0350744502411687
0.0317972422199697
0.0357807119607891
0.0327883449716849
0.0323441751450334
0.0306186562205069
0.034259401089258
0.0301848283321569
0.0327636716611962
0.0326948701720793
0.0322080814137324
0.0283697443712668
0.0336221463627384
0.030435862498931
0.0343668518418023
0.0314703232400541
0.0347266159564824
0.0308422697109382
0.0318593515156045
0.0315278058596796
0.032391292909556
0.0293102939465319
0.0332830982885296
0.0298619772387294
0.0316168013997174
0.0312678490787865
0.0314467977876299
0.0305044479291407
0.0327667652696072
0.029085258635411
0.0318230914769224
0.0309456406075503
0.0323972664123047
0.031385031539069
0.0321571845695356
0.0300516493657835
0.0322027602620264
0.0317289469981694
0.0311091953727045
0.0303906013172303
0.0304836629757541
0.0305706734028316
0.0300427208252307
0.0307329814413828
0.0312644166826712
0.0296305206891998
0.0300023095687292
0.0296123000422544
0.031084906373439
0.0294955105672583
0.0323843509642603
0.0289880093889019
0.0306632985122203
0.030190363364909
0.0311999621346086
0.029962025606111
0.0319998468737564
0.0305653910171073
0.031330920458526
0.0305658595926493
0.0319702542780213
0.0305812763546506
0.0308624618219862
0.0315598914017933
0.0326092805793627
0.0302883514757217
0.0317983210867763
0.0304084149061804
0.03080566397165
0.030424251636931
0.0322508388257522
0.0294467729259025
0.0326329000583408
0.0301987868138295
0.0335343107033339
0.032683718755531
0.0321235122017231
0.0310229035370226
0.0320049589259458
0.0299547155060099
0.0312432101046536
0.0320658784278304
0.0292043971487529
0.0317931293790152
0.0331068373419854
0.0302619606499825
0.0319710542079573
0.0297691375681287
0.030606170893267
0.0295409564665917
0.0307604621079938
0.0300908335425582
0.0303840644379409
0.0293025707390103
0.032298455100498
0.0294185048902822
0.0320404270735683
0.032385326514398
0.0304275771949607
0.0307200471807486
0.0305950634208643
0.0295726730343312
0.0318555467012218
0.0277145490071245
0.030918917926711
0.0303284421745721
0.0314247013656003
0.0298918977888714
0.0313373890872765
0.0296282944228541
0.0296989238516421
0.0288519017578918
0.0316638976981071
0.0297301971724024
0.0324776965243798
0.031031924466672
0.0310859770473415
0.0334700382239055
0.0299697957600055
0.0333307623236806
0.0309117327900693
0.0319663869300499
0.0310398094329954
0.0301745805886265
0.0291620222462963
0.0301132276194906
0.0338518076137885
0.0316293043088032
0.0340436920328615
0.0308517473731698
0.0316535651809976
0.0293243397087026
0.030513973232927
0.0303598313551665
0.0320384314267871
0.0310924409825446
0.0299921155054478
0.0294890935290585
0.0286470883972479
0.0297986133348782
0.0310072411986767
0.0311152531345966
0.0303287295708767
0.031395792643679
0.0280752437945444
0.0292235460132989
0.0298595110742757
0.0312931270621498
0.0280024590188288
0.0298074055703318
0.0306577573606172
0.0303401532193105
0.0290186284409449
0.0297561018267245
0.0280328073682639
0.0308702846254942
0.0275370189935605
0.0307772098204847
0.0305368802126818
0.0300526996766945
0.0291985493095097
0.0279335743194219
0.0281156849994509
0.0289578136317225
0.0307857110163668
0.0293828513718866
0.0318181991182177
0.0281405469503435
0.0297243695662458
0.0295714495553231
0.0296380095017261
0.0288511019166187
0.0308230466963888
0.0272389233809638
0.0293715686251301
0.0285147891238282
0.0297411374587844
0.0269132923815308
0.0291233271996096
0.02889576336021
0.0278928593753264
0.0283437142495071
0.0277619602083633
0.0288456878557989
0.0301763787676546
0.0306946877334021
0.031242579713083
0.0291729969784141
0.0291256373213909
0.0282232153914364
0.0295613431759178
0.0293380227927205
0.0294308286347281
0.0303769267549979
0.0300053867885429
0.0300192743319136
0.0278705253792794
0.0275770273640725
0.0279089810931627
0.0276455617537917
0.0276918200172362
0.0286959073236061
0.0288472857250447
0.0274848092724067
0.0286755360554643
0.0270174002919253
0.0283267757214469
0.0296364550480678
0.0278051296411837
0.0267561435184525
0.0287021697994431
0.0272475766894288
0.0273250166470799
0.0284717255871667
0.0291079661742164
0.0285668600193842
0.029502670628874
0.0286116226571081
0.0278274462952607
0.0257470140812805
0.0279751993732063
0.0281654958698739
0.0320368039219463
0.0309125783516477
0.0272090083197423
0.0298000361248659
0.028269547103579
0.0305677837080209
0.0275361121777824
0.0270703724675075
0.0271936625277281
0.0280908575030612
0.0261499655872694
0.027720497977835
0.0272554065133257
0.0284797348685056
0.0271216870034451
0.0267134260437215
0.0260253763004929
0.0282467498948574
0.0277239212549642
0.0282820898740168
0.0274845185773448
0.0294839387682531
0.0288992820098447
0.0280153359219044
0.0260106370257672
0.0280410505763439
0.0324857514882691
0.026894897747551
0.0296183834653619
0.0263261116681325
0.0273746035215196
0.026931305180649
0.0249582243203194
0.0274501588271777
0.0255156907497917
0.0267230949312701
0.0263280744610025
0.0254626987835325
0.0261114822933631
0.027068547749298
0.0249445054902039
0.0261668006496032
0.0276672519411135
0.0251089668867191
0.0285790639573384
0.0278719375091849
0.0257834608894995
0.0265693106399253
0.0272606804723758
0.0260186844570631
0.030692297661425
0.028182140718617
0.0339434104585876
0.0300572464976917
0.0260732916528746
0.0263476501434493
0.0245695858765006
0.0282195614169877
0.0250950074928089
0.0265057817526071
0.0246367816407254
0.0235461934492452
0.023625412813343
0.0240408576548472
0.024365229483789
0.025761447547448
0.0251453356897311
0.0248959332714448
0.0239715474654851
0.0270242469796769
0.0240347756823602
0.024285997629397
0.0239302452763197
0.0245623637315561
0.0237237878086115
0.0253896548557284
0.0232906661033881
0.0293825298014195
0.0312599920496496
0.0410831378880487
0.0283226244545592
0.0280501289565702
0.0276044282874779
0.0306485658270955
0.0240186386533103
0.0257181697316848
0.0239663693452629
0.0252807309435016
0.0255706620745261
0.0264482934434987
0.025373155476333
0.0255579696359983
0.0249686651418845
0.0255638076250182
0.025749294723549
0.0246180020973154
0.0235241875412541
0.0274476517896645
0.0245934677033411
0.0251558461222995
0.0238330041536408
0.0244342251343352
0.0226629923524212
0.0256944127613284
0.0251796615687964
0.0347133673685081
0.0324590919036815
0.0278425035915509
0.023469444851987
0.0213228894727321
0.0246814719864995
0.0239550430931223
0.0262303602341269
0.0237373664247941
0.0240490588647055
0.0237466242130701
0.024263121131681
0.0233061238334402
0.0265069949684484
0.0253858670007088
0.0245537833292295
0.0248466163392741
0.0217126024743392
0.023914538042496
0.0237660819470541
0.0241091529262831
0.0248860720808444
0.0222171698631686
0.029935749284445
0.0248013927110122
0.0278896830281155
0.0297644346048928
0.0512204640678789
0.0266465709981316
0.0271283524346087
0.0253439678341158
0.0220118591122781
0.0242845549168776
0.0225481399470732
0.0218566617370627
0.0228536515570452
0.023133565830291
0.0260101323968784
0.0249647634632968
0.0250651479670272
0.0223800019425551
0.0216727126210794
0.0231784930898422
0.0225864830962596
0.0243210842296562
0.0228268479306201
0.0220148289386744
0.0301669057400884
0.0422152012960494
0.0365257988478496
0.0211672435185099
0.0286016100207573
0.02595162604567
0.042787689485372
0.038957053559019
0.0175893512919581
0.0298801866016009
0.0182582115300481
0.0266249365938147
0.0182613317579282
0.0251225309206081
0.0205406037616736
0.0381769047257998
0.0216212941504636
0.0321661563192533
0.0230635819152621
0.0248082818098206
0.0211603072091205
0.0253344413684772
0.020419960013683
0.0229333720805143
0.0207220342590056
0.0233080475967118
0.0229479958909418
0.022966635520179
0.0208395258915328
0.0254715149892142
0.0228863070175166
0.0367038979360383
0.0221593600840218
0.0260309267955796
0.0204705364044592
0.0262261304357529
0.0287891253941082
0.0508624493209377
0.0223442498783177
0.0261973808713156
0.022425249985679
0.0242962095053716
0.0262539632833583
0.0226704792452056
0.0212612540485738
0.0219780504959159
0.020083557625171
0.0239622104448848
0.0241951490190426
0.0214564351474347
0.0239032029302876
0.0209714626475601
0.0225246651869235
0.0220223434868074
0.0231074699358072
0.022130638520437
0.0245190789811259
0.0305749751426659
0.0368483131811023
0.0590987262043426
0.0369712351878893
0.0449897910111232
0.0274195353064759
0.0276097366079416
0.0213732373758243
0.0284791744558282
0.0199659420284818
0.0297069833498669
0.0196897307584578
0.0266349482491849
0.0232895166215959
0.0260162042635011
0.0186582110991746
0.0249682504359897
0.0189094819552202
0.0248936578441338
0.0172295303679201
0.0246754202347286
0.019676356358994
0.0238429280000378
0.0235209738596986
0.0359297112888646
0.0355559864239142
0.0248512669063407
0.0369283353800251
0.0428128211778219
0.0675664422800731
0.0236541551466367
0.0365680940879042
0.0206023825273495
0.0229479882581717
0.0209178360769132
0.025138148971676
0.0307205856834659
0.0278500552097604
0.0211791624087976
0.0248617761559616
0.0249228764974307
0.0233918725106405
0.0256582423229998
0.0400488762790812
0.0659915476562671
0.041126042209411
0.0212663873480283
0.0301735376982104
0.0301591714396709
0.0591834429708224
0.0311901627871286
0.0249824831537184
0.03141523088698
0.0202978399645586
0.0250100907261393
0.0175373172692821
0.0276944794189396
0.0281461665022118
0.029691699158157
0.0201668200941459
0.0250977952792733
0.0198612078393019
0.0281195026333234
0.0319938478597721
0.0385069127373032
0.0363718907010852
0.0267825777761867
0.0267772748919466
0.0331260501493308
0.0207564927143095
0.0297014772574443
0.0198524016254648
0.0290403813202704
0.0351201452002323
0.0480360246781854
0.0354018808043503
0.0471482553112863
0.03889264079818
0.0272914894498776
0.0273082605512853
0.0454642814716833
0.0265711858608989
0.0376227611130225
0.0254505948487211
0.0797155413957642
0.0422690708999513
0.0541010480504854
0.0282626320095244
0.028720645122992
0.025449948053446
0.0241995857309003
0.0310847359135357
0.0375226992428422
0.0395975017705946
0.0150072754955259
0.0357085854561251
0.0279337517461241
0.0525862961871903
0.0270139169932283
0.0343379964124876
0.0236516990797882
0.0334719282912755
0.0305261014446296
0.0414761464565222
0.0256838462368046
0.0678160005593323
0.0786798837095484
0.0480662872181301
0.0425722297693266
0.0309244651493407
0.0651240212026956
0.0420555525387324
0.0234838740506723
0.0351805833046541
0.0181979702262112
0.0335073948768298
0.0349729309621564
0.0644140905379668
0.0409473475891431
0.0230704406888993
0.0361428375221395
0.0325332762609466
0.0509405962027313
0.0479659653134461
0.0218293858236062
0.030826005668021
0.0250135796817711
0.0473316436267784
0.0545278319320755
0.0797889913328333
0.0355270887266051
0.0820833218664716
0.0469539562240458
0.0552946826150978
0.0389921840615884
0.0448966116862708
0.0505042210032178
0.0630696843973184
0.0322090895285726
0.0363952147534766
0.0415079741624905
0.0667752159349161
0.0350865448808481
0.0353489175468222
0.0399607190840073
0.0404974461017605
0.0856084411745388
0.119593121651077
0.0687542123643252
0.0445914481822595
0.0468398802170946
0.0630069694341095
0.046722187799424
0.0281791373237457
0.0360194782238179
0.0293087953957714
0.0318437238201667
0.0377039497552012
0.0446048544339946
0.0435386231590985
0.031444913984329
0.041478877190694
0.0353214975394508
0.0814879197548177
0.102924398891386
0.0866233637977234
0.0697690052236288
0.0740792641412405
0.0801118109841997
0.0444354132979445
0.0457657994994554
0.036019753721676
0.0530720454475188
0.0414024729048978
0.0386570462892309
0.0517963194358567
0.0585108668326482
0.0743629890795268
0.0612473577302957
0.0752667704353599
0.0504183847686944
0.0589655937880544
0.0940744746711226
0.143208823780975
0.109981295142923
0.0453746862695588
0.0973897682171041
0.0621604369131169
0.142184072212322
0.0705374387467246
0.0531898248856529
0.0527063591078817
0.0597692597834709
0.057695256345216
0.0742466129875449
0.0716953825666172
0.0847379950444379
0.063508087849604
0.0816060171931615
0.0840457303479103
0.195672412555734
0.139213627444466
0.102142767177109
0.0768646825478198
0.109238620059364
0.0932588420238347
0.0846168296985058
0.0661174257311912
0.0922452166032546
0.084972585985675
0.148313742881585
0.0908462158184283
0.0873188181599976
0.104858102715362
0.107174426969954
0.117962550156673
0.112545394196828
0.155843144431229
0.0946585812591748
0.104961648814789
0.0915949835130183
0.10343312764314
0.109180745808315
0.133079216447052
0.132001482058124
0.105887656089984
0.114615331289688
0.106982881142492
0.110168133802351
0.109708885762152
0.115645556579475
0.122027979625545
0.160608489940007
0.214808203888075
0.217631405442103
0.175817885946058
0.112546510696749
0.125609136175162
0.12495323015172
0.154038936214733
0.172380670083338
0.15202996607979
0.156537040333648
0.110317786141772
0.118734743975721
0.115708916286593
0.115560603839394
0.116242482829748
0.109389531597337
0.123563369600593
0.128554551728931
0.152562958286673
0.129842983348026
0.198637412906051
0.127032254031733
0.116736032757996
0.11445897667731
0.115684029212655
0.104527123546393
0.108831992811545
0.120182684711041
0.135325154945021
0.113990728315963
0.100414928897176
0.120562372635026
0.13246474899989
0.146149165097036
0.114656118211476
0.110270854884784
0.102512469309398
0.0990991402401867
0.116688768976754
0.117947860224981
0.15854395418178
0.118709257102629
0.095655413630651
0.104958325784247
0.0953505861535806
0.0999613822324283
0.0961523614798168
0.106874275725544
0.100510864729291
0.104849091169902
0.102576026554974
0.101962156834018
0.0910169908186309
0.0999365572069235
0.0984658030611901
0.105880958551143
0.0940985379293701
0.0975447239595415
0.0926563336353929
0.0976810922502016
0.0929295673440677
0.100638343307545
0.0935306637178986
0.105995271632391
0.0975546934499113
0.0989247222961929
0.0904693218337678
0.0994727783441614
0.0952620369727979
0.0987291606153374
0.086390842389672
0.096874856917663
0.09123566432547
0.094046485977861
0.0899074414265079
0.0938540811363802
0.088453888184221
0.0954048669879735
0.0877417273545562
0.0925710131808296
0.0899235563264134
0.101143013920839
0.11495404463519
0.133652218360779
0.129911685728837
0.0925711082160345
0.0924541090174162
0.0888053582475941
0.0870003394800841
0.0997967570995376
0.127354191405263
0.126187223444774
0.086290011560216
0.0862140272144285
0.0881099085542812
0.106244637447412
0.0973132544602445
0.0902224348639353
0.0776479548811076
0.103553932171656
0.099881464620304
0.218508494628276
0.177327172233577
0.192622982872654
0.103788997175222
0.0931469505121778
0.107547141127082
0.121379292712646
0.0887425396818881
0.0765135054888118
0.0896684974791724
0.123264703536316
0.107784034138258
0.0791018037361605
0.0770922153324934
0.0861267145394166
0.116737284167177
0.12182211017837
0.112164167945556
0.118369404422978
0.133153533476397
0.131176434700309
0.158935001585382
0.177440984442308
0.115788806551575
0.0855724782762929
0.0783384319401585
0.0852522321178864
0.0995261935352378
0.133338379843238
0.104952526973161
0.0884143224176299
0.0764551731870213
0.0693741612535571
0.0870349876405287
0.10447704449606
0.0936476667093741
0.108245108099191
0.10840391070913
0.09383342817986
0.0829199148636091
0.127425098693165
0.128573008597889
0.154831568408514
0.0792408982467988
0.0824140364667562
0.120601651996877
0.132748360651461
0.0940789522923858
0.0904351587148837
0.0644588950551445
0.0846285996448645
0.0812355861507952
0.0819317096991282
0.0939206923609326
0.115352586910492
0.127035336232923
0.170871508007557
0.183890150923123
0.13384100148745
0.0824139125073087
0.0645340937180077
0.0625986432585279
0.0757173001684044
0.0607459436668006
0.0787890290967104
0.0867961424965905
0.084059134718851
0.075568789514281
0.111841560412892
0.0830335826219567
0.0610012162627547
0.0608239906319728
0.0659085668062225
0.0740535808878614
0.118289719944345
0.122415206205223
0.0978208385551801
0.0931422289341261
0.103491884601859
0.0785130260693242
0.0707647618279952
0.0698040595084692
0.0665852978920261
0.0767541711962635
0.0899720287880996
0.0808053517448647
0.0793923143556966
0.0726666829992518
0.0856221491081378
0.114546311164115
0.108964722357784
0.100378094813563
0.122371035358974
0.152445583066623
0.150793550535533
0.118937966588528
0.0971850833308686
0.0959756847515365
0.0993437949862171
0.0936914804210346
0.101255896183138
0.129091989263409
0.137156958057023
0.109687980693206
0.103219693975243
0.109740772998414
0.10505872338917
0.125204889173183
0.145570547851391
0.16854046207781
0.17646582579913
0.18176278975499
0.150558291345889
0.126567217530358
0.119143245902972
0.126853065624316
0.124256947424377
0.114710787170783
0.116558918388478
0.127868069145625
0.146618894133839
0.127613918665432
0.120683705202928
0.119143782262661
0.121390390568308
0.121250103895263
0.125336817522199
0.122865943207699
0.124153756196415
0.120537779347653
0.129712436321833
0.149471710232859
0.193920849148989
0.158025345112651
0.131175319523683
0.141421697796544
0.141510952386153
0.133074278755124
0.140215787744757
0.159746756097374
0.149281227224002
0.13991291591186
0.139621082006135
0.137322415639824
0.137847251277245
0.163798884222387
0.162349824403319
0.148878913626778
0.141677830258276
0.147818930597376
0.188180247359201
0.195443486898362
0.177805168416144
0.16847970172561
0.162307597663157
0.149135722848731
0.147985071885219
0.145927561418121
0.152237052100558
0.149335722485433
0.154621210919604
0.147700331826377
0.147835522230089
0.145894260202868
0.145954119926883
0.156926564461519
0.175541111413127
0.152763969083974
0.147931870429509
0.144930837254415
0.144552181256109
0.150995121631105
0.175356390666021
0.171643451548266
0.158827135605381
0.153336495919436
0.172559106188375
0.176649036139336
0.163347999790937
0.140985545593879
0.148148882682408
0.146943255040482
0.147036758277095
0.141520814991037
0.166247416833831
0.176934288495955
0.164285284120675
0.14578834552811
0.148296410585629
0.145685971017203
0.152174129034566
0.146244131679558
0.154822624570907
0.148582703173789
0.157668290613332
0.15620243013994
0.153958069630082
0.154086637456897
0.168315053621373
0.177262534348435
0.165638817990656
0.151613197999228
0.149707864870898
0.146230616174886
0.150524047952016
0.15010071219496
0.147733677539304
0.135586714027248
0.143099128546562
0.134590266159626
0.155086273855362
0.170408512446952
0.154668780633026
0.153903935313165
0.140081711545044
0.132399276512099
0.133100738513111
0.131763110806247
0.129784525363068
0.130520226648149
0.132925713642994
0.126365801020451
0.125407621443093
0.122987887109648
0.127365720232691
0.126333099814936
0.12706060752932
0.124006511233075
0.123813940285689
0.122236191400117
0.123902764345173
0.121071543366375
0.125547672178995
0.120839249633496
0.12382194408706
0.139853071266627
0.149794172722643
0.148784996936499
0.133658092231018
0.135064443735999
0.126657279668015
0.12203328554607
0.123063837436871
0.119842142548541
0.123023658986311
0.11912030447603
0.123961458536601
0.119957155689241
0.121667174610545
0.120534332079662
0.123516316344978
0.119916538490994
0.119305105758621
0.117152277452261
0.120324665509487
0.117164764018085
0.121348974573553
0.122309699149857
0.132872977976904
0.124266614847653
0.129770504707624
0.120494601713099
0.122014205606725
0.123101850295765
0.125890283372921
0.126505972901962
0.123050021003578
0.119120292320609
0.117181532458738
0.120577307297532
0.120147767082047
0.117569798857391
0.11918712293119
0.116751275376824
0.119512986942689
0.115976977814876
0.118817071663563
0.113314750058233
0.115467393696535
0.111038405470791
0.111851912072602
0.107144806055805
0.112132165017434
0.110064594824787
0.108942741505848
0.106977231435523
0.106266523687652
0.105055201542015
0.107332673931988
0.103857000551879
0.103694059759363
0.105770641922493
0.106403269606109
0.105078839515682
0.100552539446291
0.10043181307609
0.102224853430509
0.102775675363542
0.102185258373508
0.10018021042457
0.102355873425357
0.100767461207066
0.101639215791181
0.101399731453513
0.100991456803754
0.103811206905226
0.105173497613278
0.100671906351969
0.104100058948999
0.105871983482847
0.104900726154835
0.106927918434381
0.105742857600628
0.106683325415057
0.106959115091457
0.107984551508727
0.108933352974283
0.107216549121056
0.10809082119538
0.107128735737728
0.108143421209857
0.111731747691418
0.10851390873612
0.108658474737254
0.108774981592773
0.11010710779217
0.108458082146649
0.108708836606662
0.110424511177429
0.106290690699573
0.108467461724472
0.10821111962825
0.107671474564748
0.106170301078946
0.105514615217216
0.104972717055261
0.105554156834934
0.104716997490452
0.105707055357073
0.106775402476985
0.106237317122264
0.103984886654475
0.101942998500428
0.10296783433062
0.104080291539125
0.104316878770049
0.102610735435111
0.102765026767445
0.103177116295317
0.101853705673031
0.103250453786008
0.103314963780217
0.10123082071616
0.100011902152941
0.102640116460976
0.10113681050397
0.100849153963389
0.0982364563826943
0.101304217663146
0.100034822029931
0.100236034923958
0.0979741555831593
0.0980115839168268
0.0981169625718603
0.0991117198014067
0.0965502480330639
0.0977153315669633
0.0964415310998203
0.0972052610039518
0.0948088099811669
0.0952092785650153
0.0936945967509995
0.0945831428334532
0.0951333640583592
0.0924367462195568
0.0921544065704358
0.0926206276271816
0.0903806863907773
0.0912805733689849
0.0905201911943789
0.0890462349955287
0.0888732442218984
0.089537890454738
0.0889577638979911
0.0913930749639425
0.0884912803635557
0.0897253264894926
0.0901005294799606
0.0905178483115219
0.089561574903883
0.0886734100542486
0.0853119422793012
0.0863533107528448
0.0859129756103803
0.0871506344737848
0.0860859199749524
0.0846897582014753
0.0824453378441736
0.0830485414453931
0.0818537803020891
0.0831709121743158
0.0808214938663305
0.083169439614046
0.0829392488442234
0.0858925863530303
0.0863470561839502
0.0893591794462661
0.0917717352203319
0.0944920384494304
0.0976862739092374
0.102946151680673
0.105416557597526
0.111939541480117
0.117010574040626
0.123812781151274
0.126321024773317
0.131854066908344
0.137920899249432
0.139699972143191
0.144419413174652
0.150297999991802
0.154400153731517
0.160551179389409
0.163808004310256
0.168604700826109
0.173664750253715
0.177890198300841
0.180723813356622
0.186663355561674
0.18901371235941
0.193372464778164
0.19420059673298
0.199171643573932
0.19989197549438
0.201878581662769
0.203162838167888
0.205753080094045
0.207110136666858
0.211182169883981
0.207290022962343
0.211353996040641
0.210374381842123
0.212652886363675
0.211178863716944
0.212623860456187
0.210933484189239
0.212749216459646
0.208629724695767
0.213668510004522
0.212549594559757
0.214724018029901
0.213138788369001
0.214276473611608
0.216973051926066
0.216650288989439
0.218159074817905
0.219435316062204
0.222152572184613
0.224095469845867
0.225791181446308
0.226709606076384
0.22630494533734
0.232973394472669
0.231145869233228
0.237367474378667
0.241492718131673
0.24516010030652
0.245813508880804
0.252984265929304
0.254379308952267
0.260249729255718
0.259258908533702
0.261531535983222
0.262178622678503
0.266956198117228
0.266304327486527
0.268952399671788
0.26909980572671
0.267918516335364
0.269648867733129
0.270093048936362
0.266259407827434
0.27050141717322
0.267009235831575
0.26727878962755
0.269522595428094
0.264420397151167
0.270597549080705
0.269772459332398
0.273513846180318
0.279802276657256
0.282300820008242
0.286674701588131
0.293681782043611
0.297901658495522
0.300642654738717
0.307186269823814
0.31251322056263
0.317624845129346
0.32286191638385
0.328985997598192
0.330627799253532
0.339437661228767
0.341517323447119
0.347340723378425
0.351920157827253
0.362349697909843
0.361670650006407
0.371367518635084
0.37719630926115
0.388012729989274
0.388709222634708
0.398958680569535
0.399456258581746
0.408406936425568
0.413778757806677
0.419563961325711
0.420495951504745
0.426060979017949
0.426620150299972
0.435350492604253
0.437581723983151
0.43948832473314
0.439911341617782
0.440782891463817
0.441204632298817
0.441954195716206
0.437567386687872
0.438784309005415
0.43582148746163
0.433282850592375
0.431396900420973
0.427482467202744
0.421279935737432
0.422256320663867
0.418711690782641
0.41983942020355
0.415746500705126
0.417120318701695
0.417914642029245
0.41877584728715
0.420219353946204
0.418465357932453
0.419646674861457
0.426299210593651
0.426850208800637
0.432035637199789
0.435094482793724
0.44068549912111
0.44194658580758
0.442547935462107
0.446731187784206
0.452450210805293
0.447526315244015
0.452954887147191
0.451862064008338
0.454577616109
0.454370691514199
0.459656518177863
0.456628169875348
0.459207906053684
0.450894847501001
0.459168519091933
0.447781690912623
0.433439441971994
0.44247770572633
0.453084665266621
0.440907502594676
0.447475200832919
0.436024034858156
0.441010299189723
0.432760472748548
0.433202522578687
0.422386141408098
0.421450429368392
0.411947850436534
0.414118518750488
0.403073946343922
0.398555814609663
0.393489227884781
0.386748415089606
0.378469984996335
0.37132025228655
0.35771604466971
0.348939813093785
0.335516280237245
0.323782197482567
0.311525762248746
0.305234823023769
0.287441834104263
0.274737497541356
0.264713521828006
0.251767798660811
0.242184629473254
0.234010716572973
0.223970335945918
0.212726117897237
0.208107566687516
0.201325508841463
0.203128099160518
0.198864984469815
0.198786017772881
0.188541309217241
0.195482011481225
0.182409255964444
0.18902615711292
0.182239944815344
0.186765195651861
0.17510140125797
0.180125453809918
0.171775048371679
0.171036357728796
0.164873313902284
0.164056656817879
0.157413214590072
0.151389540723597
0.15296555977101
0.146658581991862
0.142900856719258
0.136323668844871
0.132753214719142
0.124886705494333
0.119917061760314
0.115065116458288
0.107238206686897
0.102522747540247
0.100096647610744
0.0968581361680926
0.0907847771262879
0.0860884336385379
0.0805090442999163
0.077070226178801
0.0745148694139841
0.0717814768733819
0.0676282665754055
0.0665194361042586
0.0644627638305688
0.063468428782235
0.0579911108517348
0.0595576288569257
0.0585826708328107
0.0578958556631797
0.0525766903930412
0.057100687334796
0.0531966766080388
0.0541157059991356
0.0519570656864022
0.0515626324361451
0.0564255220405832
0.0558788274536145
0.0551752149037716
0.0560038665316533
0.0578387721066372
0.0528707258171996
0.0526770860991412
0.0561841703326638
0.0582398362130179
0.0579607852830376
0.052580436273152
0.0599585983105318
0.0566271851603916
0.0557376427485139
0.053392565652732
0.0544659645429725
0.0503373777325679
0.055324117020522
0.0524959188276329
0.0526009901731181
0.0546110698897424
0.0487851055924923
0.0509009388367784
0.0525802950525452
0.051510296386585
0.0515705654596875
0.0514967265563128
0.0539966255598352
0.0527607462183197
0.0547776741380699
0.0559272567349634
0.0545543942364766
0.0586718954757076
0.0538075578380693
0.0585093089580141
0.0628597749813062
0.0606731240700304
0.058844513759593
0.0624236898896831
0.06324470518568
0.0604200966925634
0.0636920294027039
0.0620165950377383
0.06305389472698
0.0569101379789138
0.0598443708671648
0.0648405860602771
0.0665035842236353
0.0611820314905263
0.0630420115910921
0.0668340278939245
0.0645809997420913
0.0606211099880617
0.0671187957480445
0.0664858597040259
0.0682155257237968
0.0723946520768448
0.0707675543249645
0.0729149339226527
0.0766002576667048
0.0758553683710955
0.078422212344329
0.083632778468833
0.0862262389131708
0.0920927432764872
0.0875995692803059
0.0913311235708157
0.0884836978049987
0.0851216031433562
0.0901691652668976
0.0884209364932781
0.0868043746451895
0.0809276591900776
0.0837094221509997
0.0805941999877265
0.0794364328872069
0.0759804517273171
0.0752163873991615
0.0773453413971625
0.0773780512296427
0.0748950698385976
0.0750070024101799
0.0756651161158617
0.0746810049644668
0.0784572307073161
0.0758838507596614
0.0769608604322024
0.0769564739643804
0.0698590732824008
0.0759297197899892
0.0699933867967493
0.0735635143915801
0.0701600369692507
0.0730289972756309
0.0658107722675474
0.0690807680809856
0.0666031119461945
0.0685467886733387
0.06530106248827
0.0698515002470229
0.0672221231400038
0.0607525351425277
0.0635865202532465
0.0694174703161027
0.0608218660374541
0.0662858523796599
0.0640919100483323
0.0590366593263656
0.0555042881775663
0.0594196500285771
0.0613678125157972
0.0588391240352182
0.0551483125084224
0.0575380828375214
0.0534060799647877
0.0616812068906743
0.0563938403579261
0.0591142570012771
0.0503148261431016
0.0543409580710494
0.0472328096831154
0.0590527529770849
0.0555387719024533
0.0508677147487321
0.0526747637228148
0.0514818993626386
0.0501422076072453
0.0538869206177706
0.0558765428268857
0.0545499408457237
0.0526421982818604
0.0563552278579302
0.0463348180921015
0.0553983188860086
0.0477252843821744
0.0471413552784703
0.0452846412171005
0.0543629272583066
0.0506940164146148
0.0486507264170713
0.049825985630953
0.0525942043984712
0.0426457405042686
0.0505426727297329
0.047786053482072
0.0590484747814936
0.0473702885054909
0.0531329257968411
0.0496090845824082
0.0530870453822787
0.0562645544221041
0.0563397441416444
0.0513949219542117
0.0598838692774619
0.0551307824517426
0.0623284155870046
0.0542258499672313
0.0603498905151431
0.0539277675447733
0.0630192870641997
0.0550909782487988
0.0526523993023859
0.0672508944275489
0.0689885701037126
0.0521311542879613
0.0676146193806592
0.0637539574600366
0.0685243989566955
0.0666159009809138
0.0732343972997427
0.0730440396024982
0.0846216261624244
0.0841837594355598
0.0888093958254127
0.0802731416210926
0.0861058591820176
0.0831055692671498
0.101956933694285
0.0870245362725032
0.101046919530598
0.0933103951977553
0.108816004940149
0.104081998299994
0.105490881813912
0.103648331850454
0.0995207346160183
0.102363347712535
0.108669175329778
0.09719872251003
0.101762482994141
0.0937571538546086
0.0992213260547372
0.0834458167746648
0.0978625149533263
0.0879650471280543
0.110736786548034
0.0976163834056032
0.0991488242268867
0.0887576375264455
0.103541057088986
0.0797326505870068
0.096869559389757
0.103431475788594
0.0988123186328619
0.0847416146956978
0.087035365317234
0.0885080091045441
0.0878687023193315
0.0785175080687193
0.083942992004626
0.0836886569724606
0.08941793965954
0.0607739637402714
0.0898281080036582
0.0839250348444604
0.080209159797143
0.0628453643473751
0.0713697694901684
0.0793882048358215
0.0955969124404296
0.0839004318768547
0.0837084177911842
0.0777551093807689
0.0813757013511819
0.0682892546721972
0.0778606953502853
0.0791368181160839
0.0904576892654211
0.0699438865957913
0.080206566979921
0.0756440533139891
0.0749853832995097
0.086180507884168
0.0796051439577921
0.0737780777094369
0.0854158302485267
0.0854047565182526
0.0836410611776284
0.0907088335744489
0.0891167088215562
0.0939858468425025
0.103926722345266
0.0901267606463789
0.10432643650005
0.0732551806127019
0.0856076224787529
0.0752689569982216
0.097911149254436
0.0626894515370297
0.0912531035343486
0.0745677650570757
0.0902328884959975
0.0749508839903111
0.113624636579535
0.0917262265480904
0.110408082974217
0.0984288128332141
0.108164679804153
0.10278711812126
0.119733098533399
0.118396808358216
0.110495097329636
0.0988333648314396
0.126907197253656
0.132394450717188
0.126978892575933
0.105354456912616
0.138720396717629
0.0992683085873131
0.126991951791926
0.128863894958238
0.124114536934341
0.120186663681816
0.141748895338566
0.116304102441279
0.145197648801782
0.116194839195956
0.105286170385131
0.104223252506874
0.0897423822889875
0.110088811926143
0.127432499598472
0.0609861316893239
0.100346410027056
0.0946792549371293
0.0983979280594151
0.109363322750782
0.129053357561047
0.107507301600519
0.149399145323576
0.0974521682501948
0.174786647599465
0.0808136984132811
0.122273073098637
0.0831304993671602
0.119079771773605
0.105992686357545
0.158561451799576
0.0189757514465245
0.184629851541142
0.139800341864285
0.145611639800522
0.0857329466714606
0.110648147216403
0.0651713270759097
0.152381918445839
0.106699320506619
0.1064576655229
0.245402345033194
0.17753971610275
0.104401431154125
0.0929392984394743
0.071643326654028
0.125057379269966
0.0562791266709098
0.102551697350606
0.0998164844240268
0.161502871232926
0.0848809331388049
0.173399520877604
0.055666812162236
0.250103484281479
0.0891912955180144
0.190016167207348
0.0613798677591183
0.22430605313898
0.274035712226029
0.179415536535656
0.118127953990539
