3596
4000.36533379555
650.420452594757
1
2
2
0.089242479754868
0.0953734509287318
0.0922853527269994
0.0956138477480559
0.0924351907608883
0.0881134867185382
0.0849092736260235
0.0918149578676752
0.0819261608386808
0.0968818216503572
0.0959258873590588
0.0865304195210681
0.0824968437088005
0.0923795477371896
0.0881871075709945
0.0948444886303333
0.0891301239386181
0.0908160826633891
0.0886618905347074
0.101083157316942
0.0873657169310897
0.0879441146992323
0.086948863785631
0.0860188624454356
0.0925364434134767
0.108047750626921
0.0902803626338154
0.0955561094108635
0.0932191802304353
0.0915969749088641
0.08665257850126
0.0963188644290804
0.0927794753063602
0.0933229131274774
0.08534028042363
0.0866735234717417
0.0890162703858554
0.0912388236908085
0.0808997455936256
0.106161438366739
0.099477642290159
0.0910684656255122
0.092578289565979
0.102139582524928
0.0948416482313978
0.100250051443952
0.0881762350501931
0.0900169502775516
0.085177213824703
0.0935610229561632
0.0864040457103449
0.0892785326131144
0.0979175138226451
0.0981049921120048
0.0928036183322379
0.113965010321266
0.0925310592890208
0.087447264504121
0.0852580739469843
0.0950995016685435
0.113630095145424
0.111630908036641
0.0916018340474815
0.0942756212950882
0.0873366174028481
0.0931053298578875
0.0805528050073946
0.0880449276117945
0.0867929023875549
0.094861995372413
0.0897731771355992
0.119867366401113
0.105828266558792
0.0945491894554019
0.0966827196876718
0.0942653416393839
0.0831131709056831
0.0855236059167923
0.0795647899043479
0.111513477064958
0.105462077586683
0.098184166044218
0.0905188343373939
0.0873720208422564
0.102438227343078
0.106249592324645
0.0741234503723594
0.10942971518244
0.125590665104581
0.100644266396773
0.0805320038634165
0.0920307037375795
0.083452532458232
0.0818625043165233
0.0809730405261254
0.0843009603877072
0.081403558420061
0.0929058265134478
0.0748459575263453
0.0898246885576707
0.0952053954244534
0.138114762374344
0.121432175708235
0.107547082305836
0.130700381321689
0.102750077877113
0.100951895258584
0.137702341643579
0.098930398893366
0.0861213886156975
0.0793682581836607
0.0935285928332893
0.0848980762700032
0.0896249677524506
0.0817754172712981
0.120777370331074
0.10503554068166
0.0887476176830481
0.0821171462537283
0.0844065725710432
0.0786381223630922
0.134064865206441
0.117970847864485
0.0956461168963679
0.0978876724957991
0.0943313760522076
0.0860560746288925
0.148692868289804
0.104664690469104
0.081324562797018
0.0712267149979995
0.0856317057204386
0.0774365435139449
0.115365854080007
0.130316624789388
0.0950006821273109
0.0860842188078466
0.0963882591196986
0.133621418736183
0.144522649642164
0.098870190127925
0.0959482951554306
0.0726788248714749
0.115222986197173
0.121547155675667
0.098034290762076
0.0854497295100115
0.117755825056715
0.0837972719247453
0.0809288439623686
0.0727129707734999
0.0969320490167503
0.108577345598086
0.106009524558922
0.0838080729458951
0.162641073113078
0.13089226392258
0.157984236580048
0.123270843268379
0.105285043511287
0.0906570345736344
0.0836902018298562
0.0758191447250473
0.0813336340644082
0.0776999266604637
0.088159476299472
0.109562609403131
0.104783344016713
0.0835576745726175
0.104114888527633
0.119067567921308
0.104980211381074
0.10383535170321
0.145441660111193
0.0855879363885167
0.105150695331975
0.116080274813731
0.0910495089556135
0.078219478072778
0.110880396588454
0.0985943055169671
0.0928904789878034
0.0799705470762945
0.0843268027955132
0.0894754284988282
0.104378637484408
0.082324134976941
0.088741164163539
0.0764586437903132
0.097995915331732
0.126907258111185
0.156472671450489
0.111603684980522
0.102340777178516
0.0807980858461559
0.0850306794252332
0.124033023575129
0.125999740127839
0.0818524724419202
0.0809835545065903
0.0730023602599378
0.0793527128062527
0.0720455829362794
0.0843550127149494
0.0693038126222493
0.0981693419734225
0.12394908914085
0.108822813525523
0.0827470480164106
0.0845439779005843
0.0896597940587141
0.106308477717735
0.128174862450999
0.110768984034743
0.0877039383880777
0.0888894199410638
0.098969787430955
0.119176885091476
0.0853924525986127
0.0797798700155503
0.0770932984892311
0.0839170800014123
0.0769629224147195
0.083193882338559
0.077593833767094
0.0813871598293873
0.0769847450234403
0.0845609318117205
0.0787485918157902
0.0905108609161944
0.0864701210996967
0.0848569496761012
0.0796504669181518
0.0824574666546843
0.0744580773926686
0.11330292858897
0.0978775341470864
0.0943214526170403
0.0769409354773767
0.0771725098198306
0.0737457782852922
0.088678386818023
0.0732084193632184
0.086710418424796
0.0761329848327207
0.104549095364859
0.106526486121318
0.0956495984441239
0.0783170256543189
0.0811522534404444
0.110261334933327
0.0995201330325565
0.0848552061287062
0.0827825661377455
0.0807957667238474
0.0794368103739916
0.0941874997867293
0.130717598373449
0.0888397103446701
0.0914203676518352
0.102008755766565
0.0937935887753753
0.0856779724223352
0.0938534706562553
0.101805203543108
0.167003807784635
0.113318225526173
0.138446415012304
0.155105360747937
0.107822087587906
0.100883246075207
0.094685099023274
0.0997756215599248
0.205534273884348
0.140760939688298
0.0993604247179239
0.0915131611725011
0.111258235702524
0.0821707120875606
0.105683350681879
0.101194330721153
0.141703000988177
0.12427976497263
0.178057693696558
0.130408083551998
0.104105473610336
0.138962696731468
0.116969317241929
0.0931426017597322
0.091465508948846
0.0847348692117619
0.0940870676830904
0.106101325616622
0.104903854372628
0.112214204392231
0.0955825732016357
0.10620230990373
0.123259249208
0.100406304949389
0.0924988157364699
0.101001060464716
0.106692761193539
0.0869673650605744
0.0902840995850277
0.0884839126769292
0.104836474928244
0.0897312529315844
0.119761153851688
0.14622690067077
0.112950362940663
0.111329884154013
0.129090635305991
0.0906739265071263
0.0902435835568231
0.0875620027949307
0.0948798991514052
0.0864601134932411
0.0859100502436415
0.0936416134618231
0.125928517294869
0.0862370272380497
0.101630818069418
0.0861511292592295
0.0886022338396959
0.0883241285531995
0.0969830779464063
0.08561973269089
0.099146679934413
0.091851609816052
0.0999624102904911
0.135815384718707
0.131604185487453
0.105260331370513
0.177804603433256
0.119566858647924
0.108619199016417
0.09156898336559
0.102848439880463
0.0964619472913108
0.0956231975271412
0.0926727025510105
0.0993073173010237
0.109989585574751
0.124287070697904
0.100480782068831
0.121316934348439
0.131746599837617
0.220759663200442
0.166128303482018
0.134885049938604
0.105181613435524
0.115007104799243
0.173038490844528
0.14588444599809
0.169255403362132
0.141275645302853
0.115281297647385
0.119726187043082
0.106306472963206
0.118871325689717
0.11035224857014
0.12535984478331
0.115638934934743
0.12507100991509
0.116327800830153
0.135252692329076
0.11775669937815
0.17037609027644
0.160768141634786
0.142020356819677
0.12929262441788
0.140835922714207
0.132140286442626
0.199926793102816
0.164042447902353
0.245490852959271
0.169714285093528
0.227646200857145
0.181697220524178
0.168309968569097
0.143301442565062
0.148189425476153
0.153448814730252
0.158422621383983
0.153707740007872
0.165118281856091
0.148224815158273
0.174995882028765
0.154365695116191
0.171484059132581
0.154678357872243
0.194249605536922
0.200990780580823
0.181451048958295
0.177801473309997
0.191890014367436
0.233927646521285
0.299694104786091
0.236238734328036
0.197510134693953
0.200880701122387
0.188889815368676
0.192604641126704
0.192916113240415
0.187317997204162
0.213822808404003
0.224235082574527
0.266652253955672
0.223151999711247
0.263933053289926
0.221196869732742
0.2211010452548
0.241465976799706
0.233124847213729
0.256630660231404
0.253869100980607
0.226069952382248
0.236193953166775
0.283069244501028
0.254342717524937
0.257154496818972
0.258575202428726
0.227891279054173
0.249148730436712
0.248568176748341
0.268876604550082
0.245467981316221
0.28636032424149
0.262376324216322
0.273191343087408
0.264903974962057
0.275905348855668
0.265823660642352
0.312200398744816
0.274741691014889
0.296893987081909
0.270048686630439
0.290016534440861
0.271309381754341
0.289841515492004
0.340274615694799
0.342928858848579
0.344288907752051
0.317490228881601
0.288893131367338
0.315415883847797
0.306591001067315
0.327176964920707
0.298477412913566
0.339184853783866
0.322251952416457
0.342123847697943
0.316119941299286
0.348212397509059
0.323826363219652
0.357096707327786
0.334965349879481
0.353820676283175
0.329873326304949
0.356142456103269
0.356878477761939
0.366368741153278
0.408270263614136
0.425107362978332
0.424722695788954
0.435928497635324
0.366943474627975
0.384863396628997
0.373177084192332
0.398239503630956
0.392457728257329
0.441335899140375
0.395819731369085
0.42718114539677
0.40491874401633
0.429326645000052
0.402681389953238
0.457450485856527
0.410230165517156
0.456487596999782
0.414040078475275
0.452036295008987
0.418641651100638
0.485293478694114
0.460416108344968
0.49247159348084
0.440469337340158
0.514995191379191
0.456258200896642
0.489629941410819
0.464821066291381
0.490188357449408
0.459787526073366
0.49807320627928
0.470250751690417
0.5067890923792
0.490731310133334
0.539549347681017
0.505484838111727
0.524288276167021
0.48442413098552
0.51551158378651
0.525121814726758
0.530050547516469
0.524325468423578
0.576112592148634
0.531251636764121
0.565115116750117
0.533211987428033
0.567674366580817
0.547901630302766
0.611664115018082
0.559378126037163
0.611930557628176
0.553228028688367
0.630669193663823
0.55202106414709
0.631202652034036
0.582635832467042
0.61815945139089
0.578688351094617
0.621088477539948
0.598514950637873
0.657757803976218
0.613954909097161
0.667058234923893
0.627865794865228
0.63856792091594
0.602770480302136
0.673022431466106
0.64339136220965
0.658952370102214
0.632653694387906
0.704923757094563
0.64727631324527
0.682381759103502
0.631156909937198
0.688291853135857
0.662906065893862
0.714678969019281
0.675307286831545
0.71117490085356
0.688685279946076
0.731382384539604
0.681111622368982
0.769705058861089
0.685368036713968
0.765993482504253
0.737030646194883
0.75407746364595
0.708370127974802
0.795154624227047
0.738042758240303
0.761533164633853
0.71464284221486
0.822764575206249
0.755389527280918
0.810614941389975
0.758980017723205
0.836235591302775
0.754686393071261
0.792723737526403
0.788593915447791
0.904140176225617
0.778308283462568
0.82444897587184
0.777402979245722
0.832476512344867
0.756691132620754
0.870968584229616
0.772326896901072
0.848054465034132
0.831192540006182
0.910395239104875
0.833163892750573
0.927669992901819
0.889505418785173
0.940802192251982
0.826120126707378
0.910519548649725
0.852189953216756
0.991487411367449
0.902389337638252
0.961837638579208
0.872632736712029
0.928320968841127
0.894714498471448
0.949251731744419
0.869166721256907
0.98333109937789
0.912208526002931
1.00496182141609
0.95594451191774
1.05298733062674
0.912611296024014
0.967652772353788
0.960063503996634
1.01485863480637
0.969510168029112
0.981941969603628
0.893358402875062
1.0022672304836
0.972871749509375
1.03585936851909
0.913809530000586
1.02204055876919
0.964607212814389
1.12897403112234
0.91996788825644
1.13449711072275
0.989192201727547
1.07027586169664
1.00251787999775
1.09056011645743
1.01317480272492
1.14460616958295
0.986391509324807
1.09205981145837
1.00860832580775
1.12074727134416
0.999127278612737
1.07775523405787
1.01787570214299
1.16027409373593
0.990151886458747
1.12980799361363
1.10146895014574
1.11145290285154
1.02914323484356
1.09675307835143
1.03957470423857
1.08996210724463
1.03787324621268
1.15592088403028
1.04566483625305
1.16739642868586
1.03611522740597
1.22370882991495
1.13375328023758
1.23140691615582
1.09302726638073
1.13781328622543
1.10407633394988
1.20610271520066
1.1336343192106
1.304656215561
1.09481935177786
1.25741652518329
1.09527016333642
1.22606851932729
1.0658893112718
1.18174420346293
1.1405011015983
1.35458882057805
1.15710451487413
1.27895192518146
1.19778295174313
1.23456752672127
1.13806534802069
1.25557791058053
1.13217258616192
1.26292616780554
1.13475075109597
1.29324094228672
1.12428988590084
1.31163011944815
1.2611377659399
1.26371349130074
1.12439456378546
1.28302128403686
1.24025660366652
1.25975946919443
1.16581517134931
1.28757181931953
1.10755126085124
1.26249087397751
1.19558465803049
1.31556918093334
1.18376514035114
1.39271511115916
1.2587402262308
1.34692983972225
1.22016321759178
1.33850871666825
1.19001155997987
1.43119235991331
1.28499969221689
1.33757089998219
1.18556728469639
1.30931528176575
1.27268634622817
1.44735272475415
1.33462666245939
1.28770292521366
1.17759936289126
1.30182780980359
1.1987042447334
1.30408037719126
1.29088741754268
1.31110301779005
1.21219833077055
1.33332441944789
1.26448142557068
1.31898093111211
1.18987829474139
1.42092115011731
1.28478197161288
1.28096593585073
1.17971146488535
1.34180465794182
1.31836798466968
1.33573207062502
1.18733864828236
1.49116988699273
1.30310004382647
1.47011273582181
1.27611159441251
1.32612145119026
1.3325978503161
1.34473976913267
1.21849146185883
1.43425407750027
1.26379167638504
1.41281568975003
1.39129871022717
1.39051243756899
1.22712226950234
1.5287783937642
1.27196250645909
1.34646332946787
1.24858141717136
1.37054884489499
1.20500796105686
1.47536625026388
1.25475601217218
1.32846925335992
1.26141405012837
1.49081693715915
1.27479418192465
1.36029473333824
1.24816847573535
1.31999131063199
1.2830608533156
1.43321551339984
1.25552453149884
1.27011380896336
1.31658806619003
1.40505499944771
1.29145339451771
1.29827527471298
1.33185518790085
1.39502536982268
1.26774370359541
1.32895217005151
1.27132334915203
1.39073102478006
1.31720874559587
1.3216039911619
1.29898607765045
1.3683900642699
1.26377521648094
1.38298236049104
1.25267139758012
1.31321398628431
1.20620972222735
1.33971921413561
1.28645485302197
1.2970606680139
1.2700639313216
1.37849450361236
1.28829490337774
1.34504171200855
1.27494467715855
1.30733742112655
1.23693729919795
1.41511098420467
1.29364881955687
1.33838027915744
1.32832593747754
1.44809706033601
1.20844235079945
1.33505115350912
1.33335938734364
1.30490826189029
1.20710826810045
1.32974267560231
1.32953509123698
1.35916362775435
1.23718269959904
1.37783142783945
1.2437843173418
1.29297477536789
1.2544715216665
1.30275270739038
1.34133341181706
1.31338552287602
1.18792187902321
1.30419800623281
1.20639301788617
1.30058229379566
1.29124794783114
1.35990891041689
1.22296894592814
1.27461739322867
1.24960929010849
1.2842570547621
1.15089827298728
1.3251687624887
1.21360927686689
1.2905215172784
1.28152954498987
1.2040612038927
1.32164943552442
1.28739584484647
1.16164077730099
1.25807733400943
1.18445860095672
1.20189526352259
1.21408085506914
1.24307422418863
1.17806582853339
1.2499926913057
1.12409213201085
1.22062328828947
1.25474282109186
1.16092514814824
1.21404939593345
1.31570357096844
1.24642845278663
1.25423605016945
1.14057117114158
1.23694968300305
1.19854486476712
1.21868933033825
1.16195891225476
1.20579161330818
1.17363649590907
1.23379338357606
1.15807701990825
1.21283721089097
1.16587210041521
1.14169876893007
1.09124383183513
1.19713158597583
1.20334055712013
1.14615692156043
1.17675355448959
1.21802495652511
1.13284116699564
1.17377626657449
1.16472355980029
1.17541178112197
1.16268128805018
1.16331277111858
1.09975552218765
1.16413233467496
1.10711528671633
1.11541939913571
1.08323906095263
1.16683997514966
1.11645167677816
1.12616111539851
1.12654592339119
1.12456579672631
1.08452219505662
1.08832236492214
1.06902811264953
1.07109039286156
1.01869656631255
1.04995336973212
1.01295028057139
1.04826076904198
1.06197215543126
1.03352177286043
1.03365514850201
1.09095624423239
1.03609148021785
1.05268975305252
1.0084310270249
1.08044907942253
1.01351989577998
1.02585196755353
1.03435864181924
1.03809980052685
0.986523247811624
1.02949542473262
0.999793690275849
1.01566486507354
0.989123390232935
1.03739734653216
0.967434425506641
0.991781655296072
0.966666934733756
0.975761957421144
0.980595670053452
0.988778324555965
0.959377309053828
0.966961561709119
0.922282254261903
0.941713765884157
0.916294966462242
0.963772567586067
0.909148659617537
0.967894003928451
0.927620975475378
0.921987157011827
0.92361862621641
0.918309268230929
0.893923303238458
0.897486269471913
0.91059606861142
0.938992472342534
0.905521737408307
0.937316534003519
0.889461220350198
0.882262038589319
0.860271931983614
0.907977151037903
0.870961706035321
0.853644074077096
0.849354387411523
0.859120773172032
0.855239663416665
0.861065964342698
0.839707303773591
0.855188655257098
0.843572965999671
0.841423450212218
0.819771811227019
0.856644364339382
0.832713286766276
0.828828533928865
0.817187487026904
0.835861603836303
0.805004409399147
0.80850593758411
0.787603249927915
0.824266961086464
0.781393046606567
0.778509006171425
0.769736698219927
0.784584357402725
0.753458709830189
0.780027702202547
0.741445950805968
0.773641711124987
0.760921913794563
0.754108886327676
0.760903626652271
0.759619606428549
0.740426608917247
0.757431545071503
0.731681244644723
0.757455061226241
0.724155680026949
0.728022987694945
0.72550118599967
0.736656691504871
0.70583624088122
0.720772982262553
0.706678318109035
0.714678914582205
0.697350672937829
0.710377819225109
0.682634218519689
0.699211586748484
0.689220213017415
0.698217830177675
0.673089564713925
0.678712040724595
0.669712352351829
0.686960356786296
0.674796749157671
0.659741069783324
0.647133382627717
0.668949542716193
0.648687299674258
0.672095280205002
0.647101790142524
0.648889234754274
0.635952590867541
0.642427540892549
0.633599167177506
0.639268328213569
0.626443486861086
0.622408497528736
0.615598563400922
0.634607062641932
0.603897083031124
0.611174840044353
0.597733234610518
0.608421230049198
0.595707466382823
0.603537648491943
0.594414822430419
0.603224630014535
0.591758102626365
0.585772875033662
0.57784524107788
0.588138287778393
0.575686890033849
0.590917940217996
0.573687113523488
0.579913727469189
0.566579584810502
0.567345270591025
0.566110855792508
0.569723380549225
0.556981238476813
0.563882025573103
0.554012497052055
0.547526464846904
0.539661000127803
0.560563828591731
0.545742841432466
0.552957671141026
0.536749505495706
0.533067571717114
0.524823311717347
0.531168340738663
0.526814963163779
0.536264351397943
0.51838498770628
0.529672066915292
0.50958633452514
0.518950347744964
0.514242121437101
0.514600170155418
0.501098042932464
0.518504723408067
0.503017316508081
0.501231139315776
0.502578292690815
0.505172861919573
0.496638088423901
0.497080251393726
0.489595190636515
0.491694448022921
0.483130567804448
0.484200623309155
0.474207199006784
0.479455329319756
0.477781582581601
0.484338101820151
0.471746976096878
0.469473576753514
0.457638814356626
0.464002890546448
0.463055105849204
0.469328679745907
0.461918271743613
0.463484823291342
0.447743635642129
0.458619641569508
0.445987787765214
0.455546003783566
0.447761944636625
0.452862754466883
0.442818615282631
0.449384374910588
0.436835071935698
0.448335384203534
0.445483347788846
0.438262929553148
0.434204092784218
0.440374812334134
0.432442962344104
0.434076960559055
0.433175655351893
0.433867332597168
0.421626084948304
0.430700597613953
0.425277804089515
0.4228380791095
0.417901169215639
0.422936705497895
0.425786396077842
0.428010081763452
0.421017668894921
0.421694264937858
0.41699666455035
0.431238787576085
0.419587572462519
0.425022587478805
0.415356975763337
0.427261313838611
0.425728861325749
0.428091415414959
0.416555124017061
0.43125817104131
0.422850149163425
0.420894941552085
0.422188591874673
0.432076538549837
0.42864061503012
0.435604096933644
0.427936129408609
0.431382996146057
0.422072612578092
0.435415884840591
0.43655845956231
0.434655769773311
0.43985856219724
0.443300128491139
0.441011559974889
0.450823706551606
0.451665132004557
0.453286608834166
0.442722491748744
0.455008691682345
0.450981103971653
0.462320602127376
0.459247703829966
0.457260582139721
0.457146353851228
0.460042776510774
0.459429483879126
0.472545373226802
0.473038491796561
0.476303914293808
0.473304279571188
0.484191234616794
0.481110881210464
0.484064716731885
0.480787390212309
0.486507850195219
0.490702149711413
0.500541195898157
0.492287552879291
0.502975409252067
0.500672268088106
0.507553558790597
0.510419931869936
0.514821145777704
0.521658475860831
0.533553922325975
0.526015095551909
0.530896320269931
0.531791651307668
0.545371513875367
0.548777092290909
0.549440792988455
0.543060082175839
0.561419093512713
0.563334581011881
0.566023102847975
0.551494373625023
0.554690992967194
0.562516990860628
0.566230621443659
0.562839452959913
0.564362605307049
0.559400005354875
0.581334193374798
0.558643322518521
0.561599631894357
0.565888544509761
0.554769189298669
0.557479290299944
0.572463445193865
0.562247243267671
0.558627146928915
0.559318070854919
0.566915700455162
0.552565989570714
0.57051890599698
0.564261975402972
0.553913998350977
0.553442025363777
0.569790697305441
0.556926028652823
0.557194322737766
0.563570835996526
0.564825185819374
0.552743751309634
0.562389719048815
0.561528502875433
0.5637869507325
0.556662954802555
0.566878237511184
0.575621728785774
0.576042065524276
0.562785096630915
0.560042794273918
0.562684388122704
0.578690277072157
0.564679716609836
0.562018185248528
0.568500022258892
0.576968057072219
0.577445293226531
0.577280995589207
0.571121439903105
0.573142450194004
0.57111506654669
0.574866956042133
0.564492831945266
0.574538628046806
0.569998677647745
0.569687135827329
0.564734913769266
0.564844662294122
0.557469167325712
0.554746761016963
0.553420639347126
0.557454369543929
0.547875384260508
0.556257883072112
0.547842200460052
0.544646442477775
0.5460496239314
0.54483391428854
0.541814322495444
0.537525486174517
0.526452080742942
0.536418171703324
0.528444897078349
0.527263588560419
0.521708709638495
0.518385366927106
0.514380104662636
0.513242558116646
0.501570732654233
0.500774562376029
0.511424175890137
0.511381252321683
0.506161839804527
0.507986053049531
0.492261659521452
0.488588758296855
0.486104338493839
0.482665153843382
0.482843176320021
0.484123135278889
0.467244817837937
0.470269470981953
0.467336725915481
0.462775808825007
0.459037666020529
0.45550694577573
0.448620847537006
0.448108069527916
0.44564517621934
0.446955384834472
0.441808249651161
0.443844352723549
0.436823222741694
0.438172861384432
0.427390311017577
0.42795756649832
0.428118011890932
0.423201036047028
0.421205885681217
0.422491054263605
0.417043322411959
0.421614626938621
0.416242853211344
0.411351805912659
0.413685943011941
0.413265265937733
0.407235889817327
0.409320370095613
0.405115119600819
0.406306842436387
0.404469549760297
0.400605098327391
0.398222442134637
0.399819215172888
0.393995617510797
0.397797490399149
0.396690501383849
0.395206724322554
0.394547832861813
0.387738453099816
0.380651922289724
0.384740462351798
0.385736273145506
0.383194143484912
0.38091482389722
0.379236991492774
0.379614399138038
0.37804953937196
0.373405544569319
0.375297572497539
0.376420964023826
0.366332377911148
0.371486160201677
0.373382536966621
0.369150786066841
0.3699427739984
0.369045788600724
0.365052471193453
0.364931318394345
0.362589842062822
0.356182538091949
0.36135109101287
0.359751093096141
0.362776848657968
0.361837151413319
0.357648321877696
0.356101498310126
0.358418833102754
0.352469680401721
0.350291402190266
0.351882899477633
0.350744014915332
0.346571234099938
0.34650765516893
0.344800878577137
0.345199905682612
0.345517926400869
0.338388883890102
0.34376575433277
0.345986206999378
0.341089752720198
0.339570878909009
0.333995496376409
0.338023129876324
0.338030310145463
0.336613567427862
0.334716814163641
0.335448090444128
0.334940213704163
0.334202655762277
0.336203976528003
0.334232203520101
0.329056665531077
0.33448976110033
0.331159633855111
0.326828609521644
0.322580499224586
0.326582126681904
0.326443232160434
0.326684021465489
0.32471397374958
0.321129618195888
0.326714949220954
0.325678168091984
0.320618251579123
0.321900090372817
0.320841692295501
0.319184734208244
0.31757313193775
0.31421981748003
0.317292341343904
0.321317105885038
0.319591860853221
0.317626329285149
0.316478395288085
0.316509808775676
0.318833589471999
0.314049935023438
0.314376437075294
0.316150557076827
0.310694364102865
0.313153175879689
0.311788329111284
0.317510404388728
0.312983613920643
0.312229421402971
0.312464159999229
0.308932619519311
0.306502265189993
0.305141174272407
0.309337543401092
0.307379365532798
0.312054698430409
0.311645265008311
0.308281428320081
0.310093497891133
0.30458175450411
0.30781517912863
0.307854110276907
0.305367002466142
0.303787560443724
0.303539208408222
0.303083196067718
0.304307632964204
0.300013063576843
0.302142622037627
0.301833392269479
0.30212167082869
0.299744953100302
0.298948570882287
0.299349324757047
0.3038804365751
0.295832423966955
0.294467068533969
0.3001557798201
0.299692421696707
0.296318511913698
0.296443808530344
0.290277705217495
0.287729360580851
0.292795321033925
0.293532275167403
0.292041841223419
0.292335555530335
0.292519068405627
0.287904420106184
0.288470792693501
0.289893434269734
0.290510446972595
0.286774868392909
0.281392737076868
0.281447877320774
0.281657383620604
0.285364777522123
0.283716628498931
0.283902189126258
0.287024622391879
0.285839750306951
0.279620312490795
0.2797773462645
0.277478637930501
0.280541804841127
0.277858299737277
0.277332723449855
0.27504708053666
0.276830107396276
0.277163130319712
0.271401978693467
0.272323918556582
0.272712701522834
0.272909863922809
0.273980150773308
0.272819561836611
0.269811151009263
0.271108297912598
0.267546870185433
0.266512924548703
0.265660295707679
0.266406150653247
0.265959808010534
0.2614771153437
0.264176586866731
0.264006490161925
0.262966699311995
0.262382166332711
0.260074957137444
0.259206961396533
0.25828595208583
0.254000583055496
0.257919491432819
0.25872182830171
0.253594051409581
0.251476777212465
0.251760553484569
0.248759245894063
0.2509837424044
0.249191221130465
0.247791105790051
0.248235083232042
0.248343084987566
0.248804308639953
0.242551887796724
0.241715165697298
0.243301338208677
0.242040004453663
0.242811266210134
0.238851940255861
0.23810749456921
0.239340991530492
0.236717820944438
0.236228297757582
0.235125219849625
0.235372844779746
0.23662936495347
0.233417638052172
0.232960724461371
0.2327115004803
0.230756548232757
0.230967883318776
0.2301565708027
0.224690492483733
0.224322611504233
0.225566998443824
0.223823637761449
0.224793072487748
0.228517968020447
0.226352910136361
0.222195435044553
0.220315831987239
0.220271367645183
0.220355566833095
0.219332295856344
0.217311374389283
0.222686151142263
0.214999088659169
0.213832945981702
0.21489857944714
0.217027400163648
0.216813841536841
0.213497402094262
0.212600310467309
0.211472812310481
0.212491340124984
0.211124731167095
0.209345095164683
0.212816592701275
0.212544146068506
0.207773520736426
0.208551350606542
0.20915724488961
0.204933179220123
0.207708053195908
0.2062935205004
0.207057515269877
0.204100321178284
0.202788996944516
0.200499552301754
0.199503504892242
0.201658726822951
0.205127054851314
0.201843276206541
0.199956771312403
0.200594420331102
0.197585501330146
0.194672697788892
0.19588511637228
0.197418400113798
0.194948796942074
0.198639421036114
0.199762985921035
0.196489427178141
0.194820931349538
0.195695993862452
0.19348098244566
0.19520839780419
0.191622140461604
0.190630247142317
0.194278595822834
0.195054367484935
0.191978623013848
0.192280176748588
0.188808756995939
0.189418864491611
0.18956499741451
0.189313467272285
0.190949179351586
0.193081452242503
0.187890533392561
0.190058345441783
0.188080412277682
0.187375359677062
0.185283133616885
0.184946971150438
0.187968919955416
0.186751101835721
0.18510015420506
0.184220977102224
0.184146413502609
0.182949675154882
0.183829611571133
0.187125796753142
0.184508038398441
0.181930484872522
0.183722973247899
0.184509227883653
0.184215529999696
0.185551757753931
0.180994403103703
0.179679937695301
0.178698245564095
0.176935109989597
0.179308480914625
0.179940680661086
0.176439946462586
0.17533751562853
0.176379471405319
0.176811680306884
0.177995409260027
0.174472818132519
0.174844201291364
0.173722240721639
0.178395695589166
0.17351413122527
0.176052187257098
0.173515237385535
0.175526243186825
0.171308959110396
0.174705383237159
0.171075950795978
0.170453437614239
0.170736944453835
0.170460983526497
0.171161481880038
0.169116670260475
0.171132325446238
0.169768679871764
0.172047680451909
0.168911010759681
0.165929083461013
0.167405921335616
0.16747172712651
0.167545245268607
0.167576485470685
0.167686580186078
0.1674356198551
0.166282955837849
0.164607551595973
0.167892998638118
0.1641796209415
0.164762601941525
0.163984048136557
0.162211826906262
0.164647344676723
0.162180435945997
0.162327454862957
0.160456347011553
0.162986312903084
0.165255602032382
0.161108376684848
0.163401164883592
0.158651364538228
0.161167845558211
0.16011825778678
0.160058722392356
0.158304372156661
0.159937293731269
0.159083462761543
0.158205254864138
0.157847461871184
0.159521431623869
0.155662190463502
0.157241206280868
0.156481749611296
0.156386334646787
0.154683271642728
0.154538213032859
0.152146093327904
0.155390728175586
0.151509820330602
0.151496685468387
0.150415100319191
0.149580086777243
0.14949260046063
0.149057740861615
0.149312776357379
0.150302677621012
0.149380716832451
0.145240737562165
0.146981191179547
0.147680723879225
0.146806738438124
0.146474813322278
0.143517508506483
0.143230249582114
0.143994211589346
0.145322822559053
0.144841147475698
0.142523835731552
0.140199786546872
0.140683824996124
0.140375878492274
0.142053752792697
0.139043952827543
0.13917387840324
0.137556418032489
0.137285484547809
0.139851515522686
0.138778636863956
0.141471557241707
0.135445586853223
0.13647113327217
0.135967702873645
0.135266902883546
0.134023783469541
0.135957004632557
0.135780172391338
0.134225153515077
0.131748177205623
0.129816003190672
0.131159744053285
0.133712363059882
0.132223955064781
0.133717582295516
0.131845981961233
0.130390536019562
0.12648423403899
0.129667044722105
0.128256498781828
0.127196507116545
0.128442494906041
0.126228010332471
0.128551257339697
0.123555670165623
0.125582520923123
0.125478035957353
0.124749802983188
0.12191591150985
0.125054413679906
0.123819724100111
0.122910119923975
0.121081815586964
0.123948872284029
0.118908227566318
0.119591372336873
0.118877797725761
0.11967111688388
0.118558485922532
0.120260863830117
0.117641640505562
0.118020602084695
0.116914116379301
0.118602196928866
0.117120246899741
0.117884479110663
0.113201448300525
0.114275214777642
0.115344519061084
0.11731968385156
0.111492034693542
0.118392942198457
0.116646458376472
0.114500271108466
0.113920913037028
0.114861877085082
0.112368535737352
0.11223854480564
0.111861596758681
0.11286625024203
0.110165164504971
0.111894771352195
0.109052030994859
0.114935407853406
0.11116327078712
0.111771781906464
0.107920393401908
0.110239954201507
0.111245152106776
0.110342394389748
0.109455378615799
0.109568386640893
0.110764875317239
0.110669327492561
0.111146490642053
0.113326704640008
0.109789785727228
0.114488860443566
0.110509712014164
0.117139030569062
0.112879854683037
0.113211481226761
0.113315465550364
0.115728611283896
0.111241118036164
0.115143230624237
0.112821390072495
0.114041659792243
0.101478412495091
0.101806760948506
0.105583879307747
0.115015790987645
0.10640135992035
0.104114043186533
0.107997857079221
0.108731102626039
0.0990879436682598
0.108836119100429
0.103303038721069
0.103426257772026
0.106949442270631
0.103966723270157
0.0963563647466058
0.106803152325964
0.100477498118681
0.111405306392082
0.0971556015795388
0.105968208725177
0.103302902586925
0.111801533346891
0.0958422534234051
0.109254713173927
0.0938949259713834
0.108268462745439
0.0921551841748339
0.104763405800602
0.0891968516688637
0.103608503404397
0.0906956048981533
0.106552749398809
0.0883303838370078
0.11137643171658
0.0949554735479708
0.119769059389341
0.0888810545191568
0.109629285977449
0.0833610250448619
0.111551183986006
0.0883061674319854
0.121922592036826
0.0931500255937756
0.118598267367595
0.0834703721529066
0.108418254885088
0.0929942505406405
0.125456976774188
0.0854534095136905
0.10748808154382
0.0940109412368065
0.1177708641028
0.0983948483445302
0.0968711154016828
0.105607697632544
0.0986750935897087
0.110109923292766
0.0874895573324014
0.118476444019211
0.0824159480047945
0.114440814814497
0.0870633438187525
0.116924731094717
0.0888162860627941
0.110529995088342
0.0900681404796905
0.104826497755018
0.0970532624615346
0.0983104661818804
0.0973902285922099
0.0949221908353233
0.0968502997258255
0.0983958581150348
0.0922190880856782
0.0991190364876677
0.0913028957136059
0.0998714340200029
0.0924683556340483
0.0978890209912615
0.0926273829809318
0.0964774693199597
0.0910021361751442
0.0938146837112923
0.0935654039467398
0.0936855996149323
0.0896611397787442
0.0975338095249725
0.089820006811966
0.0942422144794854
0.0910677178804905
0.0945938010178479
0.0921037575098434
0.0943389358015605
0.0910433271689928
0.0945954768891207
0.0910054913573873
0.0921588261487252
0.092004055114086
0.0932692508857742
0.0903328898302548
0.0942158900033952
0.0897339500911213
0.0921786704113565
0.0910009879018783
0.0937197269390064
0.0928701923144081
0.0941743446027436
0.0907799891442821
0.0958329648511329
0.089955851323318
0.0933187605335515
0.0916586467175182
0.0931421930309886
0.0917228535802449
0.0928379945585202
0.0907655015748562
0.0929065541264167
0.0898721281617243
0.0915447819742812
0.0925245708875464
0.0946412463517679
0.0898689738063089
0.0935158755466443
0.0888064863169744
0.0922202284801392
0.0914261075345682
0.0941747029618919
0.0917334139184364
0.0940622731952331
0.0923324385433836
0.0950754850704915
0.0938384117142242
0.0921668401253983
0.091984538160564
0.0917495420087533
0.0901927161197374
0.0911122112983109
0.0909417470813643
0.0947635486222612
0.0888680953625419
0.0945698896425075
0.0910629989724233
0.0932580659009041
0.0910597050654372
0.0930225740091388
0.0926872698721201
0.0942382470393835
0.0909963224633868
0.0941344567948368
0.0887862228691258
0.0939833746864621
0.0915779446349084
0.0926004188925441
0.0923290025690755
0.0929619199119486
0.0924131015450324
0.0931782036968645
0.0898626765205287
0.0945913409724731
0.094261272729388
0.0949658315909779
0.0923612500561471
0.0934029183348787
0.0933843973951722
0.0956951631914515
0.0958146578611828
0.0943926213064498
0.0929692534269734
0.0965805751129212
0.0923794499169321
0.0957275711122262
0.0944398331215395
0.0944411985680206
0.0952661342302707
0.0945159756139628
0.0933191753165031
0.0958354113053724
0.0948088509080077
0.0970899870712481
0.0954414391861686
0.0956192001090384
0.0948372465851877
0.0947290351698375
0.0958263328464292
0.0957056168750803
0.0950291289899933
0.0953431689105601
0.0953363447933449
0.0973021725200085
0.094948080238445
0.0954778336079276
0.0957712278265909
0.0966163082446377
0.0961791615621192
0.0975167828960489
0.0939598648179462
0.098973804685111
0.0942295008066831
0.0959703679152015
0.0951004629311238
0.0969068864362195
0.0950492023284646
0.096286607973854
0.0967362102458544
0.0976051307585215
0.0957400280189559
0.0970742698133478
0.0949541708670309
0.0969002387482089
0.0979104070714475
0.0998807466970701
0.0968242517954337
0.0966014056960338
0.0981296876010331
0.0993877819825378
0.0977794249809506
0.0986138079394943
0.0980742233905349
0.100409340207713
0.0995005225672191
0.0970708870642664
0.0981102757433573
0.101462998785663
0.0992298126185528
0.101135535152962
0.101491791292323
0.0998112550153102
0.0999776038466822
0.100563169849719
0.100962123024862
0.103055723151248
0.102814172132535
0.101405502212103
0.101882828152353
0.102051384161127
0.0982718595000733
0.0988940009968515
0.102573464749373
0.102575097673868
0.0992388291249599
0.0996624864200712
0.0991432256153214
0.0986450169442386
0.0958212395141188
0.100390215448201
0.100661874483728
0.0986749137447776
0.0964179818716869
0.0988577937092005
0.0980762653836006
0.0978553067821004
0.0977520160563154
0.0975047027513901
0.0985734995288145
0.0985392613421993
0.0969502108413981
0.0943485066736596
0.0956356324167063
0.0950723080570288
0.0997633619958666
0.0957789777331142
0.0951538768037665
0.0952342591473193
0.0967682278328689
0.0954073549657776
0.0957918485123914
0.0954225523846983
0.0956241217283401
0.0963002274294346
0.096343286284549
0.0963040361970001
0.0936238880018027
0.0977117069582426
0.0948154339451566
0.0941293941690222
0.0940173871615635
0.0942736685943656
0.0938284947050694
0.0951815655054899
0.094414591118929
0.0930687315009147
0.0937985478660421
0.0947572433012152
0.0938142127786791
0.0936574089603128
0.0922919628566158
0.0923939947321078
0.0923208403859125
0.0941158074907793
0.0957941396947132
0.0939449243219019
0.0924242594026611
0.0923452499080918
0.0921359140773399
0.0938675396930408
0.0932659376514981
0.0933926060186688
0.0916317459726881
0.0932957326436205
0.0951573399761935
0.0944587491372431
0.0919849457234347
0.0925232277496836
0.0922317872004858
0.090915172540537
0.0910070021050893
0.0914739080267591
0.0921190508611601
0.0925702938035717
0.0896311898291235
0.0899604131805614
0.0900097316595704
0.0920940863611821
0.0909408296354813
0.0907916722330098
0.091010847209195
0.0906561502493281
0.0908713514888468
0.0913045767434177
0.0893218114784343
0.0915431061013845
0.0901387896867551
0.0911842570513499
0.0903646288890185
0.0927008231034933
0.0911490339170883
0.095624480657497
0.0941785650749143
0.0904132922064712
0.0934465378947035
0.0900523341999956
0.0922493181890601
0.0894297877001849
0.0893080510804821
0.0897354635198942
0.0895661421173135
0.0881433350933705
0.0894921570177448
0.0874594154691443
0.0924626215199316
0.0873640136927027
0.0864890736234124
0.0877404253237876
0.0880766209987926
0.0891271925929296
0.0897304450399193
0.0904213809693274
0.089825807764524
0.0881867287850121
0.0884181087344503
0.0876367878318959
0.0904385366878351
0.0933801907997349
0.087030042429202
0.0868166154604414
0.0871875561083725
0.0854252671123074
0.086434336593977
0.0866534724979916
0.0862766032096664
0.0852011011465424
0.0841445981337756
0.0873708063688901
0.0841825795902847
0.0844339557918703
0.0843123135336152
0.0848045860090547
0.0861342297785559
0.0866347864116986
0.0827457326956561
0.085826110395524
0.0854627026320537
0.0841186584769092
0.0822865204424347
0.08488041731554
0.0821502947480485
0.0857289528627842
0.085124928671964
0.0908387590147875
0.0852405113305932
0.0799395865657156
0.0813147095464974
0.0795133162005834
0.0837421916393318
0.0804476239392376
0.0783950981511237
0.0800217203854314
0.0800437098555114
0.0814458673264629
0.07905216105835
0.0764321881508432
0.0799931031272684
0.0769900611764198
0.0763857725223063
0.0763766022036497
0.0799659092026573
0.0750623867987978
0.0775426862486665
0.0761522614280825
0.0785137515169248
0.0772894203395145
0.0769746943940591
0.0736902894772423
0.0805168664517421
0.0824892679511489
0.0931931383443457
0.0779351955138086
0.0755422453721138
0.0790531221976217
0.0811140808843763
0.0734575776434747
0.0765661462022122
0.0733608455922534
0.0769765245750986
0.0760624992975963
0.0741774716074913
0.0757387425721915
0.0758623206500553
0.0744406491036871
0.0759504074960593
0.0754725245988319
0.0730308834776673
0.0709319686286825
0.0755397212928717
0.0734302669816644
0.0754901297589422
0.0722675603770893
0.0739000139229839
0.0747166957509427
0.0756499099750139
0.0747222648604444
0.0842664354059189
0.0819126676419207
0.0764600018163207
0.0737765935181932
0.0713975121305056
0.0723144430457811
0.0716292266454883
0.0749922314837087
0.0711199921253949
0.0726356205634761
0.0728370865463882
0.0727090769175837
0.0732487029180826
0.0737580367110305
0.0717107927944658
0.0711507076846773
0.0713799388235718
0.070252166704042
0.0712179274128731
0.0713782265832099
0.0699040662274716
0.0708837754310111
0.0693498515352313
0.0768120693329246
0.0700689323506437
0.0742599920557017
0.0768721411559059
0.0988864942769446
0.0725493356061619
0.0722989689819079
0.0716074245764698
0.0686010316199938
0.069536144819846
0.0700754479782696
0.0697065871898237
0.0689695214213079
0.06992984546229
0.0716385590315712
0.0702907616485754
0.0719493431226545
0.0691448626316722
0.0686910375743688
0.0674985547187018
0.0672682847321709
0.0711169352729289
0.0680029719142756
0.0689067729169828
0.07717259124286
0.0889205632568418
0.0812897613562283
0.0667482586672421
0.0731285807255319
0.0734233880639588
0.0867852286512725
0.0843073884276844
0.0640277246085923
0.07363326296896
0.0641276919241206
0.0716796141225404
0.0636201991600051
0.0702282767007938
0.0664641083127543
0.0841315029940366
0.0676910716491545
0.078696403499077
0.0674871172456381
0.0695718843438547
0.0673073206194388
0.0708178157254881
0.0656563579928155
0.0691051871574346
0.0669462906424814
0.0671877107422095
0.0668975532634982
0.069788224395607
0.0657609756561095
0.0697776841585433
0.0699993031214438
0.0824159058089883
0.0651344573432057
0.072518637272173
0.0649349817149311
0.0715952226031709
0.0759289126791963
0.0934022309869837
0.065982890382917
0.0694351199224906
0.0661495161958187
0.06982970328682
0.0700627417948238
0.0694854704653592
0.0672083627492954
0.0700847325075618
0.0668831749118815
0.0665359558450341
0.0687282159160481
0.0668175186629893
0.0667462724354215
0.0666684307644547
0.0676409207389876
0.0667367893496086
0.066678730324764
0.065305902576475
0.0695286964784731
0.0768224193698594
0.0847326699775404
0.10486510174323
0.0804120989112277
0.0884399273132555
0.0701862664373901
0.0735596354202695
0.0667929911428266
0.0743734779822457
0.0660393532057263
0.0724590691913497
0.0664401564809088
0.0723595370833515
0.0679882830363499
0.0716813845452235
0.0642649575932955
0.0690382180944258
0.0623948323390815
0.0704743993530863
0.0641836947652431
0.0687730526406812
0.0630200197130857
0.0666639319855836
0.06783896274685
0.0810782759868219
0.0772986448749947
0.0695030788617373
0.0853932739998687
0.0926732457183827
0.11123934792038
0.0713874166670354
0.0834425364574301
0.0664828386082497
0.0690766443277181
0.0664238740433715
0.071759062337852
0.077517081534801
0.0724015168802725
0.0663857340428817
0.0721092069307998
0.071255573069608
0.0704003219681335
0.0716895614836571
0.0888793430303916
0.110910154306246
0.0874263944145041
0.0677374529528388
0.0768568169953791
0.0784035154142997
0.105420065627384
0.0757964612734349
0.0721544513449476
0.0793948368639855
0.0677091049439864
0.0729739162471284
0.0650361838900674
0.0761299541506936
0.074595053253035
0.0769004938458501
0.0661533880841077
0.0706326712901947
0.0687957894224693
0.0751282174456686
0.0806124956815383
0.087114641453005
0.0826787985027015
0.0754787993338074
0.0763198163168328
0.0810848775112503
0.0693722165920681
0.0793017150981652
0.0678405456875528
0.0775086591408679
0.0860628702686382
0.095234722148456
0.0854947430340934
0.0970757998214431
0.0857181356903573
0.0752871647351841
0.079611827531902
0.0987999722244874
0.0743828389578598
0.0899364598666113
0.0844193350181165
0.130223140366654
0.092316309247863
0.105759957249908
0.0788063868840031
0.0804236171028363
0.07572794255407
0.0761378841207136
0.0864957227176528
0.0882069566393369
0.0897422267849372
0.0691978453372721
0.0900665370212256
0.0842866482671599
0.105429240249723
0.0810531022241774
0.0904683465018352
0.0738752689565537
0.0886481879722916
0.0878109196068869
0.0955528307936827
0.0852489443972304
0.128033691253778
0.134879506228222
0.100858722051977
0.0951774508178803
0.0906699371127722
0.123704571600963
0.0966206091041739
0.0788427962329048
0.0899730863783015
0.0752582828408056
0.0928204815951399
0.0975027672344535
0.123869026893676
0.101022817945571
0.0820465787472713
0.0952306584477066
0.0957374871192062
0.112702888545367
0.106268020352358
0.0822048274758874
0.0909540563707869
0.0854930690244214
0.112861875105181
0.118429327520261
0.142722452418305
0.102224633124417
0.148177037159892
0.113941333993961
0.122211713207532
0.104376405170322
0.110729961754252
0.119723109948356
0.131298882739681
0.097755463741823
0.107698452709419
0.118615611969339
0.135809676504572
0.106855804278706
0.106565927471522
0.111294236292105
0.120700634912561
0.170267577516382
0.196664019516369
0.141313243220068
0.122419197333251
0.131906511175501
0.145462378525221
0.128142991577659
0.111947250986227
0.120664522911799
0.118007234691186
0.117350445042161
0.124832652627873
0.13137806762733
0.130573697205268
0.121943069819774
0.13083580106806
0.131930148016873
0.184539504542021
0.196619887316954
0.17566922482959
0.165082585669369
0.17197765585858
0.17743174782882
0.141989586141445
0.145654044173499
0.139217917812292
0.154325203638768
0.144005228097095
0.141618204643847
0.157268006249725
0.170980936448888
0.183796704600895
0.171034635296445
0.186313413610082
0.159350527792274
0.172965561156004
0.217442559681712
0.266389500024641
0.229790176181068
0.164850144922782
0.219857458182019
0.194639490537995
0.270181488332716
0.198289720458412
0.186376529221399
0.187570509739212
0.196509200865015
0.198755389614052
0.220695279976206
0.217314525870837
0.231848356820064
0.214346710776179
0.239221395230131
0.258430155462276
0.370102666858108
0.298573616551491
0.270293213998903
0.248734549524135
0.283715929302426
0.273468730345413
0.269090602680052
0.25404219682896
0.284332257300396
0.283462906850628
0.35043759817904
0.293890891963171
0.296066948827006
0.320217065830563
0.32772485173359
0.337526448149322
0.350235808581129
0.38112712558629
0.32489722344925
0.342283221432912
0.333124213264506
0.34905458593246
0.350872935260054
0.384879287964088
0.392674026856838
0.362964024249578
0.37200440240001
0.37041645852257
0.380090816695775
0.381522641992883
0.391786075024417
0.400999288306923
0.448639052819587
0.509763475219042
0.543484491566514
0.459332636580891
0.394423673240208
0.4112350518038
0.421050983733022
0.457148181166515
0.457985926842758
0.450848167763068
0.456391939154521
0.40006432407295
0.416952086843636
0.417087990104782
0.417278177490992
0.420074893109235
0.41607339257428
0.427271227746475
0.436635613599861
0.454253445907737
0.448776052680955
0.508682537529965
0.435786212640861
0.423026546333177
0.420300865098833
0.423750687979144
0.41002742048027
0.418413736952846
0.432316512592904
0.446992904177142
0.421591087884591
0.406651701668463
0.425403807749395
0.437644499684764
0.451743248541931
0.408885245781314
0.415881202149657
0.410582900749947
0.399098631791301
0.409780392277786
0.423300408330461
0.465260048968988
0.407334497138929
0.387823641856496
0.397796434619334
0.388644318733991
0.390903606054797
0.382247957085104
0.406936887444933
0.397974877408034
0.393147690311139
0.392849414208705
0.396894604431833
0.381390402329145
0.395010073454009
0.386898725922182
0.391934284018702
0.379299721263171
0.38520098742444
0.377919643192104
0.387441294387651
0.379330187646087
0.385301888632057
0.383111212173049
0.393794071222361
0.378993666531129
0.38069789588338
0.372795496217018
0.380869933555014
0.379397403312965
0.381429207072769
0.369731604508391
0.374824028998228
0.370843673063988
0.375765447118112
0.363463597663641
0.371207550451996
0.367465436319804
0.369637495441097
0.36141997360066
0.366152844276318
0.360415735978049
0.367751568800571
0.384232074351918
0.404467857017842
0.39188920998071
0.354481285255899
0.353318170580277
0.348563635283414
0.340527894891844
0.358474239351431
0.384086588874593
0.381546977236052
0.337785171494128
0.32791358312589
0.329687232544071
0.348324768651904
0.325233384587876
0.321201649853001
0.309951018990297
0.335443869425668
0.343073163481035
0.460743762314795
0.408478761511696
0.418344584590908
0.312535964081125
0.306578728832157
0.325234928930564
0.335445601290713
0.293956671297352
0.277592399783522
0.29595137369223
0.32724052009201
0.304101593846417
0.275696674184802
0.268894277139623
0.280838683507012
0.311709154499165
0.309521521341336
0.302621871412785
0.311361341416363
0.319880771964911
0.321617201984709
0.348928461209177
0.37843958022407
0.291678167071932
0.262786045487958
0.253335971964328
0.260149448155746
0.281709436297982
0.305187143869204
0.27977856800048
0.264049273038773
0.247261453757116
0.238133093509431
0.253768384248879
0.278381241359356
0.258153107979829
0.28070570124157
0.271260189315516
0.256260395500785
0.250692968110197
0.292913165090522
0.298194030058183
0.32129073227332
0.239121111155604
0.247264144482366
0.288840509414594
0.299263304972075
0.256094622486523
0.249446748571655
0.223594871085724
0.249025206189322
0.243226525173602
0.244232522234556
0.254511566740773
0.278812132979516
0.29327720620238
0.336561876001282
0.352858520490722
0.294357382759583
0.241611420742708
0.227296458628052
0.227851851151209
0.244974085655507
0.224641490160216
0.248720307981806
0.258186487876191
0.251473913107066
0.246338801187771
0.286969687323214
0.25198679851123
0.240765770152468
0.240430389170425
0.247291984426418
0.257485770335857
0.302856426517686
0.310568929895626
0.289601835284452
0.280319129121399
0.296629132341653
0.278459927625951
0.26805690539215
0.272674353356552
0.275775299274257
0.284008769840571
0.304696240927042
0.297734847765907
0.300785152260448
0.295783339148878
0.313563368065181
0.355630583014916
0.347369730149445
0.343150949176169
0.368062666632387
0.401427262189687
0.418478439129787
0.379248787368805
0.360919560616112
0.361046431059444
0.370963455166198
0.372007360675498
0.383505648569497
0.409432080434746
0.425249168825369
0.39692893440964
0.391745511269655
0.403368856222538
0.401651823591237
0.425606269845497
0.459871486890056
0.488620361027812
0.498622843033154
0.496431635476884
0.469925381512278
0.436386893400918
0.431361893174868
0.444555706739657
0.449893631189128
0.43961110172748
0.444633879683977
0.457181515591999
0.487598157771911
0.453696207345863
0.457751006197947
0.456401296186278
0.460493321782865
0.459544259750941
0.466088091248164
0.463785278090039
0.472196375532516
0.4678431695147
0.48182690653858
0.508710990997051
0.585069903782023
0.515302412719602
0.490932790615499
0.500711372060045
0.509415003252013
0.500339619481474
0.513948614911956
0.537997469167805
0.531265996323293
0.521530225265021
0.524435225366638
0.528406722972896
0.532923805306818
0.553594531578844
0.570273349994845
0.550418112360748
0.544726418714953
0.539007122624675
0.602848112226723
0.612006613305364
0.586167634408696
0.586094497710187
0.579290607293847
0.560498021982754
0.564263441496669
0.563903414043117
0.578238790503928
0.567909332838086
0.574876061267274
0.569367212087989
0.569048841289717
0.566271801974684
0.568415167551902
0.580835676832019
0.605090006420997
0.575550893329599
0.568768003049376
0.567737907395838
0.568997420375635
0.56564183438184
0.604578037807012
0.595716835643015
0.586277087649803
0.576008755639721
0.59954896698021
0.605683019757574
0.581728305703524
0.560229968902783
0.571109590860809
0.567675065660053
0.579645012818925
0.563950204800365
0.591639842227357
0.609801479406599
0.599425946413231
0.573874731240141
0.584926610059846
0.587608752444722
0.597984072581778
0.58882733672794
0.594893574219387
0.592930967459215
0.611623310452843
0.615728680880676
0.603463961324336
0.607111494270323
0.626440098663618
0.631664154416029
0.628735473560504
0.606576223944081
0.612407865296329
0.602191349696319
0.610759775010057
0.611039190930699
0.60447153253325
0.587079546964967
0.600617266597056
0.581850285838176
0.601463813351692
0.622834336625193
0.597019521585655
0.590769807680731
0.573567772405523
0.56011725093766
0.563511182560969
0.557535522117315
0.552403254768966
0.552004379878154
0.554581980657999
0.538967752278263
0.54623868462955
0.531009466569821
0.539005213950071
0.539645110850643
0.541187960390775
0.533256125130832
0.532689159412958
0.530825974375544
0.533536416629931
0.52560305582617
0.531607668577331
0.525190677176153
0.529205138152228
0.553474294085054
0.55677423619204
0.556439123196661
0.54009374270532
0.536751844415693
0.53962968955444
0.526222126202775
0.528359673215619
0.523424853375797
0.522084301514909
0.519307696351867
0.530113929570037
0.523236759211602
0.525348569694582
0.523396417174943
0.525029709663446
0.518755445648776
0.520650286114548
0.520887605685379
0.521901780466826
0.517469982446134
0.522099550220324
0.523733635753058
0.535756166946185
0.524823500614351
0.527985344022048
0.518864106784441
0.520326658492189
0.524918325381215
0.523743001622222
0.527701009493176
0.52010882413
0.517856675032812
0.518858417829849
0.515218970427776
0.519600645540034
0.51635903661999
0.515356568142343
0.511213852669704
0.511507368556685
0.511197954552908
0.512062562132518
0.507345234594861
0.503962565625378
0.499212583462869
0.493112661571995
0.485906849716012
0.489018408384548
0.485886401381699
0.477031527116817
0.472231970027659
0.472044739624611
0.462794414219036
0.465043148594016
0.457819084270853
0.453879441296267
0.457330867110336
0.46226346472784
0.451882344829766
0.450857267821292
0.447976026204016
0.445541723442776
0.446094098216646
0.446972180427942
0.4454872312412
0.450383092668256
0.447199289132715
0.443221595793716
0.44466622193622
0.443750574118998
0.447936727532454
0.447687125838502
0.444868383016859
0.457606031306656
0.456342690621281
0.455785165861254
0.456762483337082
0.462055036221996
0.460794979461864
0.463592531517079
0.46586193273882
0.465663722991355
0.46604046600702
0.471527228519518
0.470754084013584
0.468451023733202
0.476194439039929
0.474147957512882
0.473670757922101
0.476247948012132
0.473285525343613
0.474065439970957
0.4721525051672
0.472856855516534
0.472395688808092
0.475035752165393
0.466182048247944
0.46713426056974
0.466456260351913
0.465882311525724
0.460842296773139
0.461419333600012
0.461305000677335
0.4624010494445
0.455537533517238
0.459787558910881
0.451992167477733
0.453080980255615
0.450486342759296
0.452091016028569
0.446057706233026
0.448666425521112
0.448165815177309
0.449038027191247
0.443028852070004
0.444869477220254
0.442930924072089
0.437032982056184
0.438338454409943
0.437966345340467
0.432515605932005
0.439838473750627
0.430698717155082
0.435286430043747
0.432996856461119
0.432717847767416
0.428186371357967
0.428212421127068
0.425135826847052
0.425763325525507
0.421638649648895
0.425049095396964
0.415755599789195
0.416514895382721
0.412076303083666
0.408624489503639
0.405465768655631
0.407808162621569
0.402097550520059
0.397758735868226
0.39560402021324
0.396215184090172
0.390111780411786
0.38954619900271
0.389330595969789
0.386317527465298
0.385446631760796
0.386551045782889
0.383693999507109
0.383640349861032
0.377963216988808
0.382714776274645
0.380244258019831
0.377319630373412
0.375113557066711
0.374933119344261
0.367304731814779
0.368249052140495
0.362010452170631
0.356794444506413
0.351494891436899
0.347032100133665
0.341857047759559
0.337302228853773
0.334750918008403
0.336952355300065
0.331925885945847
0.33282317676374
0.335557268854904
0.336381294156496
0.342043473452561
0.34968179882504
0.353599745363688
0.365494564665647
0.377768943043119
0.389063384878677
0.397542384861714
0.413216113428275
0.427188563573109
0.445045401711598
0.456247283864519
0.476448259878729
0.494899692856183
0.509658735200801
0.519964466373935
0.536734217512681
0.553593799952741
0.568413737517202
0.585390452742349
0.604570440643213
0.612706089031094
0.630523643602247
0.637588565822023
0.658484487218706
0.674814996980016
0.690261112682353
0.6906908010802
0.70647888724702
0.711835152326844
0.732938912019496
0.731372123106944
0.741473299435893
0.751475874844458
0.758511220512261
0.765328239717278
0.769052346360514
0.773340432750977
0.770784131457399
0.777115191576063
0.771004943509457
0.773458745208765
0.769342559382744
0.774596916713745
0.776282150238365
0.780340629998819
0.777043160097229
0.78707313098468
0.779191348652947
0.784624434232699
0.785850958469712
0.804439857686158
0.793532415110048
0.799901883362301
0.801296180480243
0.806543621684385
0.815244815381688
0.813462102855556
0.828963045320389
0.838867958002212
0.838637725168485
0.856283465298275
0.877108162749407
0.871126963060261
0.880173694165502
0.899709826906849
0.909610130774202
0.916642637992565
0.927873761221526
0.934185048607584
0.941113897333146
0.956235199902152
0.959114366674786
0.963477010179778
0.974134108838536
0.959603896862315
0.96560169944453
0.972309186881329
0.958153671274241
0.953869781321899
0.954818234694699
0.944190674932676
0.952034124286899
0.944187008285163
0.952437274473888
0.955320917708061
0.969091231363937
0.972936974989558
0.98966002636833
0.996402766363045
1.00696905096963
1.0293882555484
1.04424652809151
1.0486199420591
1.06420467116792
1.0772037138514
1.10044626188334
1.11509686914551
1.11398643544032
1.12658060966009
1.14438491902528
1.18269263772583
1.17485833421805
1.19098425723596
1.22117437857207
1.22678202220067
1.24961915321468
1.28712941211023
1.29577144063409
1.33598323834095
1.35611875940955
1.37087092677498
1.40802742688716
1.41027751816642
1.44979601483445
1.44292313687857
1.50513169942765
1.50780364631197
1.49475024670356
1.46482564709292
1.53331744880166
1.56669535550546
1.52753116336717
1.58313881721368
1.55905654807869
1.60758724552609
1.63618103964357
1.64190956748667
1.53417301028443
1.59466404230203
1.57577453945239
1.57590565023835
1.55488604272823
1.58212958386459
1.51580543385593
1.62278371069728
1.57344065004224
1.58242363955529
1.60223595322248
1.67752592142919
1.58005148804811
1.65358527632552
1.63770749452723
1.68994447892953
1.70793812115255
1.68809043769967
1.70342276311247
1.65056737108861
1.65057963766724
1.70477765330805
1.74277953854508
1.84878852991403
1.83892767185956
1.78910280294469
1.85063383879176
1.92117197116062
1.96847226229558
1.93168181241482
1.80106481913746
1.97708956120111
1.83908460834304
1.9206013696099
1.84394118266915
2.20357377967714
2.13584604827838
2.10518685389837
1.91387844134705
2.04059615394647
1.78930762604286
1.98162938395938
2.02652276169052
2.00829170589507
1.91409806326262
2.31632818484108
2.05076556136566
2.08858504177737
2.0234612796758
2.06537513774319
2.00661647780661
1.99152920998064
1.9300467615745
2.28060623202975
2.04483903732986
2.12611189657843
1.87932176885952
1.95442130009914
1.81602044101887
1.86650517520826
1.83031349563793
1.74251302457954
1.70092481722555
1.63500654440911
1.65341726448555
1.61884859093481
1.52790149347466
1.58741875006266
1.50013019116847
1.4919115625215
1.48854573695578
1.5238392688897
1.51001803377812
1.48643107664526
1.4521555571306
1.50755766113315
1.44653699920903
1.41882078362145
1.35824870036389
1.35162016941162
1.33873909190873
1.3122876134324
1.33854729275203
1.32275617468823
1.26210182754096
1.24028396184776
1.20562488991229
1.17395988885068
1.15578907477139
1.09530108812354
1.05177972560165
1.02788369263004
0.992403313749644
0.952155969249863
0.897092535987029
0.878622242113034
0.824175683768314
0.779296228229248
0.750385586460244
0.724406658211071
0.680882927553009
0.663476490198514
0.633911507182414
0.608946365395118
0.57785215785246
0.569132806756275
0.551295869856717
0.533295997300187
0.513057253286158
0.503550991596884
0.49615927607844
0.484282250895293
0.480209454203295
0.476572735363473
0.467168236795956
0.475333152671262
0.460650767301809
0.460348331396289
0.45493964949956
0.457065893624551
0.464505383239772
0.464186924245821
0.457588670871207
0.468457608464192
0.470877505792888
0.468908811952834
0.465089300709292
0.467069097875716
0.469609739616915
0.466149152566167
0.462246797793612
0.472075892549055
0.452852043283435
0.452170936595658
0.450234952500383
0.448397833395715
0.445699966645118
0.448805718734701
0.437997641747055
0.442950081536064
0.435390809944527
0.43637630383564
0.440070505428598
0.436167892776499
0.44111311628321
0.44092012678458
0.443317693429636
0.445183483572312
0.453247271360054
0.451459543189933
0.449079864930002
0.461841703475665
0.463536085932387
0.461952492592954
0.472654185788758
0.47991642410946
0.474296848755313
0.470392662888955
0.478034409993088
0.473651060497588
0.465718675126092
0.473073965254429
0.46690152740165
0.480648550867069
0.475357891549791
0.475428768489319
0.479695672573094
0.484168790887804
0.482477297407745
0.486426363074224
0.491836883140045
0.498759108236497
0.508819411119068
0.513974373001921
0.514752315338345
0.538876419776671
0.554658843083377
0.564612073056173
0.573711879639497
0.589569469698073
0.606555361113689
0.618212483947112
0.616901020866058
0.630197460189709
0.619738997890814
0.623599329566566
0.628337192355047
0.620502287411892
0.611306404236802
0.609370062839996
0.590746324545816
0.589976158137995
0.570032641386669
0.573778544864187
0.562124907095129
0.562764554380166
0.555892270595735
0.560337938575711
0.555199314463839
0.566408500634902
0.55569069933295
0.563600962260908
0.565229971671943
0.561979942586835
0.56267062784487
0.560109491385428
0.544025057084024
0.542103831728186
0.535425247176914
0.536487645440889
0.524994147880482
0.525728935205483
0.523668988615039
0.510403620277981
0.503789158834786
0.519122313178428
0.505308619653978
0.494198482191476
0.479711661890522
0.490153370038091
0.482146616635794
0.504839049933314
0.491563623080437
0.493024991913515
0.468347361874743
0.482315020061373
0.474990796039881
0.469517908519603
0.464905259513435
0.467298535206839
0.470736319965579
0.471895789618779
0.450205518583144
0.458461982773873
0.443584037047977
0.462927899832296
0.446106290699549
0.451346446030703
0.446906419964934
0.435901637187877
0.445287538716387
0.431112389034157
0.438505021989396
0.426541708297151
0.431846471758872
0.429550158851997
0.420406375803425
0.424312732992009
0.413258744182703
0.415802935706008
0.413668672169922
0.418122639562342
0.40297280544946
0.420629714138236
0.420748874482483
0.425017085534367
0.420367634880402
0.428450957225612
0.417130278513282
0.416756609205361
0.429367535123845
0.411911509129062
0.431303536956361
0.436123184046704
0.419044913629054
0.425792461820344
0.437446754792044
0.434935273779499
0.429221483819935
0.454054467829055
0.44119729729043
0.45634717156905
0.447963402295921
0.456272791937977
0.444606413989828
0.469944380428254
0.443160684521209
0.479504906974966
0.474315069274372
0.465188324834311
0.468349459551683
0.507268684215942
0.491286645477439
0.495327437621203
0.509181868711067
0.528379675641331
0.535945238347332
0.52824917949847
0.542846745768739
0.577279137599559
0.579940218389876
0.614506696692999
0.629123707561041
0.662558514166075
0.635933587402773
0.684446345094484
0.681585346523328
0.73393847730043
0.751689585880032
0.726017965294736
0.73072609491683
0.697663005237948
0.666111485923047
0.727473024950128
0.704925447657456
0.707570393843283
0.719791289711994
0.786647490599478
0.69830909438044
0.705611131841116
0.709595384289008
0.725304337023954
0.734250630669797
0.728101758309486
0.703401546662289
0.751775590122364
0.730348731760321
0.70416754993559
0.672783349602161
0.724233988815055
0.686905715857261
0.685261584540247
0.692363714845195
0.695980369752321
0.657795462848258
0.685258230278307
0.691734000342563
0.658781323695548
0.636814518759023
0.649664114664023
0.633323866507978
0.666701782880419
0.619348820350661
0.646982008289544
0.664964177609267
0.683150629787558
0.623286627046157
0.666708217938706
0.652260194164722
0.630971099341823
0.640893396155325
0.662500457807104
0.628232955259472
0.625870020966889
0.635763544660737
0.682906706174702
0.648380168462326
0.670531034982782
0.670642457848386
0.653124605899621
0.599489292549939
0.656747364354852
0.652144257616284
0.645203113085145
0.638450377969249
0.701683597595141
0.640396624979535
0.653794968937199
0.693499556703942
0.732692618089395
0.673403888793363
0.725643270915865
0.670574386752316
0.680642056085069
0.707182228405241
0.748344665548567
0.658109555465262
0.719139980133618
0.739134930928876
0.774488809455725
0.745134495714123
0.752196235219714
0.696655458084482
0.736481935418834
0.726854753652258
0.821213505959376
0.775006688079485
0.743718301656088
0.821090352501573
0.858999174697585
0.757029860967506
0.930069408687967
0.817715840451689
0.932809059052471
0.914028244602723
0.991300433646814
0.84333099419141
0.884136942103001
0.890446251188361
1.05161020110776
0.950095188283497
1.10399716383527
0.97448820505809
0.98874711097801
0.864637546602898
0.82268321794562
0.875381465919207
0.856365183362123
0.775863580303307
0.964592270743266
0.697912547311969
0.797280522470935
0.769557502584006
0.846413417575304
0.766112501133779
0.837965864013151
0.646827784513163
0.78574872665866
0.897965104882356
1.00726160073955
0.93125272784076
0.729621249091505
0.715464548741984
1.00327434746942
0.643900313956827
0.820626640010465
0.751580790489362
1.09374572936827
0.960194436606987
0.738909427190723
0.640676429356045
0.743017000834439
0.869136746218968
0.991906290725753
0.976016276873725
5
1.14700409103137
1.91566008172786
0.718376661133786
0.975666104997229
0.661353274789166
0.969449433416116
1.55489446589161
0.996540439766389
0.716399733263759
0.934717089287252
0.662520854555178
0.997330923856993
1.54896258793056
5
0.981216842321758
1.6232505170924
0.788284391614499
0.558787652935006
0.831804170022916
