3596
4000.36533379555
650.420452594757
1
2
2
0.0729521597159783
0.0717703659926754
0.0745746170685032
0.0819301431129183
0.07994134774661
0.075163214230502
0.0712775505631621
0.0732875369307299
0.0648313302729197
0.0764363784624646
0.0763271712221836
0.0726578641255053
0.0659330045714034
0.0715473014169896
0.0726328689196768
0.0804528512153284
0.0725202998860082
0.0719758368491621
0.0694101100577739
0.0737446863747875
0.070894877439302
0.0806336579338393
0.0700477741136
0.0690248869998687
0.0794762221951778
0.084790412668339
0.0712296806758122
0.0765116551076051
0.0810340374025332
0.0792966328778349
0.0696244336618196
0.0768713073756044
0.0727790884093174
0.0724562287445584
0.0645847506807596
0.0671725894260017
0.0702822101252883
0.0753297791044985
0.0658203733492996
0.0841957745507302
0.0836295891096958
0.079418564218831
0.0709041825357151
0.0768576630759655
0.0765384474857907
0.0814210420661249
0.0697650797953644
0.0748200168535351
0.0746793501613464
0.0779724903655851
0.0705733156239357
0.0742641800296186
0.081910046079445
0.0862681005169469
0.077347276109083
0.0949398333201701
0.0809549969113237
0.0736081628879681
0.0735988946732892
0.0814428976451886
0.0988940254545451
0.102041279084103
0.0761334937295647
0.0768159679631474
0.0744626002252805
0.0797193088241367
0.0682742385831473
0.0714813171350434
0.0696489350682308
0.0822564947187088
0.0771787017549117
0.102131852509612
0.0889843667801334
0.0796440889055156
0.0833014844598726
0.0815513613771665
0.0727564492882997
0.0755092212625533
0.069407908042163
0.0915485738865749
0.0898017108568036
0.086375844212004
0.0754070079086428
0.066322516769594
0.0825341497135098
0.0934622753936181
0.0658498548087856
0.0946048370955031
0.108052218415803
0.0905207144860639
0.0699469513795121
0.0733213378489915
0.0690379324877322
0.0697760840920312
0.068436186082091
0.0711836115302772
0.0681936121220784
0.0786488331916593
0.0680363196629319
0.0791869377853316
0.0876558965941014
0.119041132969963
0.108925937813988
0.0972084580445283
0.116264258442637
0.0952846686163271
0.0933759777999963
0.126370523543267
0.0881560524591023
0.0747140106273102
0.0658848874516809
0.0756952901333083
0.0722921939870003
0.0816204728894122
0.0664987795058318
0.0971228545826566
0.0946588500733232
0.0836263856264193
0.0740645012724382
0.07032189882406
0.0732512163874636
0.125730828395873
0.105565745794903
0.085284600893987
0.0839916941712836
0.0748756962815878
0.0843738776994782
0.138904545172965
0.0933279307679092
0.0732101636787826
0.069176265311018
0.0710401333958917
0.0633075042302211
0.0895093471839079
0.114772572888792
0.0885558974346985
0.0680274082849592
0.0818630656717461
0.121289304551334
0.132474474769237
0.090327284533854
0.0848319503844417
0.068824705636447
0.107048777210584
0.106667143729658
0.0885430865861516
0.0825463225402454
0.102697314725967
0.0786649476312833
0.0734300534161392
0.0631095041466859
0.079050699559408
0.0997524136391802
0.0928410679492344
0.0722526337655403
0.154738529693346
0.118329090170938
0.136425985912921
0.13120889550713
0.0874325500039268
0.0745124216711582
0.0785167896665508
0.0657605128030629
0.0729033243199553
0.0662315728111644
0.0747070292313848
0.0988729564155924
0.0976046419680403
0.0696045023131005
0.093011690046411
0.110327721124426
0.102996640940173
0.0985882714679213
0.142844631333453
0.0809841045548919
0.0868027446479629
0.110280972140301
0.0921625614232862
0.0648066421687943
0.100695847997216
0.0936322329283924
0.0793299074316739
0.0651959402761279
0.0697621304669537
0.0815804598159231
0.0977614520130583
0.0760671206100918
0.07094962429464
0.0690883716933964
0.0852136972842873
0.112929477526353
0.15060806685819
0.101377021148225
0.0907954634340661
0.0674023936251718
0.0662841802340998
0.111556725703864
0.106935667134507
0.0746094226163117
0.072941842595481
0.0579142024086983
0.0683554379674093
0.0638881634478617
0.0708160945286139
0.0544212322307368
0.083413242350893
0.122234366180342
0.0968758658041445
0.0641067070486831
0.0720857898109113
0.0761994684672089
0.102087908904882
0.127237813375132
0.103774715568582
0.0773179350140921
0.0747851560876545
0.0781688872402134
0.106319565379728
0.0802218287309978
0.0706374730614345
0.0628509792061436
0.0760820327529073
0.0685072520575405
0.069099252287263
0.0655034782695068
0.0766500140122778
0.0683858985613209
0.0749775403805162
0.0674281589933243
0.0769371884262711
0.0722805024290801
0.0703073496593759
0.0666231379895748
0.073575463477232
0.0633963798245751
0.107428404872161
0.0897778975995246
0.0830338828194122
0.0649410517983748
0.0631614545476089
0.0576294785280654
0.070193252830331
0.0620346739632118
0.06808064939801
0.0595044047272901
0.0906943753442099
0.0924992434673443
0.080484084398038
0.0629354216669485
0.0644789337273735
0.0955380754973967
0.0951676384641151
0.074169482836361
0.0676757245538494
0.0664269325288448
0.0649792294142011
0.0762309030030381
0.121479369390284
0.0849369976563303
0.0801385282033051
0.0913677625245429
0.0859550398411682
0.0704822396958252
0.077941232950403
0.0903383343175292
0.149617239329475
0.0991088404264378
0.118722062052767
0.127024618854256
0.0980653024230072
0.0894212713166354
0.0762981085805348
0.0767711897916857
0.212384282064123
0.12227531026272
0.0793118069583522
0.0847418121803742
0.096853893952129
0.0640038071925741
0.0928439858744074
0.0876505862802042
0.128518078158548
0.115019599510115
0.178353912896129
0.114114608547799
0.0874638944264921
0.125404173496489
0.101529114778519
0.0740213395556693
0.07280254792952
0.0675867662801742
0.0751680419407238
0.0895426457501222
0.0922523823453493
0.089789372697016
0.0749378574636876
0.0907320283736431
0.11324219410122
0.0805158399794217
0.0716973830197876
0.0805023187181629
0.082494714125463
0.0635680908456341
0.0714141996610829
0.0702773027987236
0.0904581292488875
0.069797751627432
0.107434860793789
0.134566392746594
0.0974436248476147
0.0916461404653538
0.107845104010822
0.0702352563568089
0.0713996065821524
0.0650011909719136
0.0699671618312778
0.0631417030919656
0.0637302834780477
0.0746776562636823
0.104380667748052
0.0701408273546692
0.0769577155044679
0.0633180156045956
0.0645388869610451
0.0662953475603537
0.073331519087435
0.0669475376159324
0.0737040691553024
0.0645343901748773
0.0754081595227706
0.105378006635264
0.103765037621832
0.0771004548450103
0.148796018264972
0.098486311712641
0.0892044230525586
0.0671200457201287
0.0746557911318158
0.0693093891344915
0.0711417339951479
0.0653650575367993
0.0716299311203016
0.0797919596442187
0.0921868614038485
0.0673434930990636
0.0892048915552724
0.0998801948060727
0.176249079644877
0.137038076544839
0.0970918384745098
0.0711091163612849
0.0723099646471874
0.129027337880819
0.111343434024272
0.12362746720093
0.111120228796927
0.0816178430794229
0.0908683615452105
0.0629621556642754
0.0764208279526982
0.065306638139446
0.0770947197858372
0.0663833743202825
0.0824766162351623
0.0713933473141093
0.0857149474618249
0.0656432103907098
0.102637283902167
0.108729267536827
0.0946775698160969
0.0838804419968709
0.0876997226735945
0.0719109817763991
0.140073228903285
0.121449218841564
0.175584483174624
0.114579721619464
0.170477461669385
0.121821486983988
0.112532175047805
0.0865622620068187
0.087894098275363
0.0954002113504847
0.099470673511469
0.0836007422586164
0.0967257774784225
0.081942187442766
0.0978130125178166
0.0810301513184611
0.0946006062099963
0.0811107722937414
0.109389706355002
0.11622565708165
0.101938350641751
0.101087943446455
0.104173173791433
0.131925955573542
0.207287242200247
0.148606694098011
0.116842477395677
0.11564282218372
0.105496907621662
0.105777986044567
0.0970789459858667
0.103162357891679
0.119241396410274
0.120118002615186
0.172537133245234
0.130878199937368
0.163882581791743
0.12239002981577
0.119774938668058
0.141759016423804
0.139360638616917
0.151183377911212
0.157769367300644
0.125976224783577
0.120006817545908
0.169326688450251
0.140289521634965
0.148196283246347
0.156369364794724
0.109627366028039
0.132783142737562
0.124268819386638
0.144306993013416
0.128960041802832
0.158363825643032
0.135852834459559
0.147369441195466
0.136207916002414
0.147134340160275
0.142483539091985
0.185142201249319
0.136762705601877
0.174342463751204
0.153175726428146
0.150883085072782
0.141746150042865
0.144573469221566
0.181376598510325
0.185769716238896
0.201070616032711
0.1926942422494
0.153251706032412
0.176424266454954
0.160806320954773
0.170998975503045
0.149496099760025
0.175441486139683
0.166098200672188
0.176677193678267
0.162741184159525
0.184468842600164
0.164070250599202
0.200037165051863
0.181093074351425
0.190058078271058
0.177496692682784
0.199866997907306
0.188578896299101
0.190746875343351
0.238762007200792
0.251301603134442
0.257039007824329
0.247668159923429
0.197579252607708
0.207844002414892
0.210077778650732
0.212040248533949
0.204431950151423
0.242295538212552
0.208651265110562
0.227653015710757
0.214970954054018
0.241552680355315
0.219205930083195
0.252622508754529
0.221849212798153
0.25085639451223
0.235257032670712
0.257463329565772
0.237746182321923
0.256435357987103
0.258478150685673
0.292500607605859
0.241716431225917
0.296236006581737
0.253476593531007
0.272175259133032
0.251451944714149
0.271506308530826
0.262768164393923
0.284081538797192
0.250674659656206
0.268913837676153
0.258963191189715
0.294529016377549
0.266739148605844
0.302080578346462
0.286131943003583
0.31114280579085
0.277785588463509
0.302840229981409
0.306005739912747
0.318821445030876
0.303424535084484
0.328733440254223
0.294564738938229
0.329175764662225
0.315970597740193
0.343125629653491
0.295883967698631
0.346223590152889
0.324390916106965
0.358078000552262
0.315451172760844
0.356897967702148
0.329570833059619
0.353568517540577
0.330376907461735
0.357721466561007
0.33105672530682
0.380014596496523
0.351268455762942
0.397276327973497
0.353546076314008
0.400145339751066
0.351147040209752
0.381971402561059
0.345592813054824
0.384523603971322
0.370442669743598
0.398462328285392
0.376561474547275
0.418318098575047
0.375617141366954
0.405893316131206
0.372523650174228
0.431131914186671
0.408587784340409
0.429893154569771
0.38732583452951
0.42983255694818
0.399223678691028
0.417479269248183
0.414474522030271
0.425946277458216
0.40904199006919
0.438244429511879
0.441483899950855
0.458202810315161
0.423754278215328
0.465958581486458
0.423603430895646
0.4729678693299
0.442583411876437
0.467600190188937
0.430010654231794
0.468537058901067
0.455527428342621
0.472780425045141
0.477104233278559
0.492174700788617
0.45107595253163
0.489994139382355
0.447192065262426
0.489555279568486
0.44394123193309
0.505991900707555
0.46859985836077
0.506576476988156
0.508778515978328
0.519941447715085
0.491136787233998
0.501690033197087
0.482766686558588
0.514122298991669
0.474970151935595
0.532423518995142
0.512964295539353
0.570999813906995
0.513442308320126
0.544011622166427
0.491933434793908
0.538873158887073
0.526972986622742
0.561674320910169
0.525155479595266
0.579054395508113
0.504221117155695
0.56929368381188
0.555994566771687
0.569903967485025
0.553687277225053
0.568073481006394
0.520374944858926
0.600634422672539
0.551852130525432
0.584469147197234
0.552055885189168
0.577353835396184
0.560460079921778
0.560962789118633
0.546891707849423
0.592647673911442
0.555504564211792
0.603072290763644
0.563849876331017
0.606920885750154
0.547464586757068
0.589397863847081
0.584903719652902
0.608942861696208
0.600601546577132
0.648480243403036
0.60304135967723
0.629888085346849
0.596923696095256
0.626991671945807
0.595191890306765
0.649396444275411
0.613534509013613
0.622367044251962
0.595378433893022
0.621564863559704
0.607473526888405
0.646264260970881
0.616273978731693
0.615463507110403
0.609832371344586
0.642542879573718
0.609986772918965
0.650430180524718
0.630182272997906
0.658189048616869
0.640812807511464
0.653116788281252
0.635680981516398
0.664466631015934
0.601336036237573
0.655973756953069
0.617137647206182
0.669553789076059
0.632088861101785
0.640149049984488
0.645170006057902
0.672681360252075
0.630212237350684
0.667419213520769
0.641081521011658
0.667022161737085
0.637997570397386
0.675266397270042
0.644959712216812
0.697993127480193
0.662517976917083
0.712759153980965
0.667890089446231
0.669254247169474
0.68304729338631
0.692371275601919
0.655305801535472
0.686429684280185
0.643608329208442
0.703680372177828
0.675281881327572
0.709300152324413
0.65879518405201
0.695685015717437
0.659619967345351
0.713593650590984
0.661770648940409
0.69236819320969
0.649993013277252
0.692072732999404
0.647836658050467
0.732358913826126
0.654747651136222
0.7325785209024
0.679707613576239
0.719084137593962
0.676769837496172
0.715358535991503
0.698654596542935
0.67135900997837
0.689421421318772
0.69443857394882
0.677290598334136
0.700448353775247
0.677635211281111
0.707437173154168
0.675789024771292
0.670866273509667
0.663674041239863
0.688604367480008
0.678977551372653
0.718882785328623
0.6914973894048
0.707098706095326
0.702436665717615
0.717099129923118
0.642667172063599
0.698043496898006
0.658671270049045
0.701836248688015
0.663529995067176
0.739064631637726
0.672019402388784
0.690514202359468
0.655956698032847
0.732367525025656
0.679280010137623
0.709629232607573
0.679605766869801
0.727557799851816
0.671404277866083
0.720142172694287
0.655498742094199
0.715642591626559
0.666100429044711
0.695172516957615
0.663462457135585
0.686213463180408
0.686496170852521
0.681390836421572
0.663800932528836
0.703845107296473
0.668365367780655
0.709060254677981
0.659812781253458
0.71466224669797
0.674097359034923
0.716354429937218
0.652312573696579
0.687014524861494
0.674514552842851
0.689774750126158
0.652433141290357
0.695525557277986
0.636848069668138
0.6984715079719
0.65878573629879
0.678097086320411
0.67007871384909
0.700922659709894
0.629757903360276
0.670796089421117
0.642385944711174
0.667363979951743
0.646603447871711
0.687428747609974
0.662854865854954
0.682345446975438
0.655405351700705
0.656395285958027
0.649731462488074
0.671721016294278
0.623957049677793
0.656765438406239
0.615854881441828
0.677266257189784
0.622170462338122
0.665262162604101
0.633455486414543
0.643774314311553
0.627733038311064
0.652846549014873
0.642363290757823
0.648615252389444
0.64779268632427
0.661265834388939
0.615473245462943
0.646519876131085
0.622119249576669
0.632878189917633
0.63294575774595
0.638173978960447
0.617571517032817
0.642270576414453
0.607089744728427
0.628293633907884
0.593728657789012
0.637869457854053
0.611273825245066
0.612912444646905
0.609069713930493
0.614108926176748
0.599200701792377
0.630780654250172
0.591780793008734
0.62720258626214
0.587727054843953
0.627009684388528
0.57751115403007
0.623871801053489
0.57030676667699
0.607466417732228
0.57934610224746
0.610717595392842
0.589610098565916
0.619607505798232
0.572942291550638
0.575607789576099
0.589075385975547
0.578981981007549
0.565749378170229
0.585950703267506
0.549511473444855
0.581991123375573
0.569437683098564
0.581136303140978
0.566445425436108
0.589752398475823
0.553934626758761
0.572201942057864
0.550832271911693
0.553377492164458
0.53780482730235
0.564321687670827
0.547477137253018
0.558863400446396
0.539209580479793
0.543035619513444
0.531946954874927
0.559948552906406
0.519983169855855
0.549330536058485
0.524292933054756
0.551065533823239
0.526952535003663
0.544158801273798
0.535481572290963
0.529833822460375
0.512571541786793
0.540631903436532
0.507084001272155
0.521396233839792
0.50648860890517
0.519838630889174
0.499335800526989
0.517067259491334
0.489939191916626
0.511867875759412
0.494178659102105
0.512352656765057
0.492591567083609
0.514456647548939
0.483919822748078
0.498642883321026
0.478987672381312
0.488453393846973
0.481315934642521
0.488530536614617
0.462150373680672
0.480916144288509
0.475497598908105
0.479345403382703
0.46383039346971
0.488268616795621
0.475209457058436
0.465399293771336
0.460061987374961
0.468623294232769
0.444241538797751
0.460727589102798
0.446967549953529
0.471911703739257
0.446293535576907
0.448716141153523
0.437029249080349
0.445419475022148
0.425661457257777
0.452677150518774
0.439455268585539
0.438242609722209
0.43083239608064
0.436174903360126
0.415728654356552
0.438911589971338
0.409338935183008
0.436095060317869
0.417847713139287
0.425892903683114
0.408213158209838
0.417925284921212
0.409904557508666
0.417497289807437
0.39091712895738
0.409809836472942
0.39137019279419
0.406008946623617
0.388065526881156
0.397777761930045
0.39074934004471
0.40498019011978
0.384867241039149
0.394708277323996
0.379973821873162
0.386305548928732
0.375776130914487
0.382580126065942
0.360521193387495
0.377005151374176
0.368868267425786
0.380700997825096
0.358340468339461
0.370320481826084
0.352392962200285
0.369885534263346
0.35984374821665
0.359505385946087
0.348653043077375
0.358961422703159
0.35179833607649
0.356307718677885
0.347837962317548
0.347352242119834
0.341445985384237
0.345396751297698
0.331308223894062
0.337126036474018
0.334110326950311
0.342554807702062
0.331330850759143
0.337065066645467
0.320476239489192
0.321806078506269
0.320882411750627
0.329923427628539
0.315970288606069
0.325438566154553
0.306395027308639
0.314259169736646
0.307762403031511
0.322703309401012
0.302976397682004
0.30937189712812
0.2967753138703
0.314240690888574
0.305104488455868
0.310127721571466
0.288566489064802
0.297765438985463
0.293585972539211
0.297353921576602
0.287606574596889
0.290037066075324
0.289951051014239
0.293648157232394
0.28705492216115
0.291481778044164
0.275430032562472
0.282439067406179
0.27755882905794
0.281170140154168
0.269483847052298
0.272666094962684
0.267589194248143
0.278992181910785
0.26224735041029
0.269574830621042
0.269609343104107
0.268796568149724
0.261257611854395
0.271444452192826
0.258213150463478
0.264583568883663
0.256215299459622
0.259052035878929
0.252381652463712
0.257605818538776
0.249211691199813
0.256479066898669
0.246191551753089
0.252331444111461
0.24633386138682
0.250276308415445
0.246572405367563
0.256840265411587
0.237333437862577
0.236373709144785
0.236034611936891
0.243151345451762
0.231488765545118
0.23616100128973
0.234334816524972
0.237973659295867
0.228899990239496
0.237028049778414
0.222474013521163
0.229427602434701
0.225203201130479
0.223002900196376
0.220356205003417
0.231845167911642
0.22521431062782
0.223233539802866
0.218379400208373
0.221996547666843
0.213329076465267
0.218697522823659
0.20570686349008
0.215873107287683
0.215327104062513
0.221394068923484
0.210623517965084
0.211173255446255
0.208704061523508
0.210351115583936
0.200398714558279
0.212089378841731
0.204707798670922
0.205524238022768
0.201342496114047
0.202730478688329
0.195893298936877
0.200593924684385
0.193586081871082
0.195682508347382
0.191699332226408
0.201424733059815
0.195472850798306
0.194935576003287
0.18345544660552
0.192442779055051
0.188042450060567
0.191705669772585
0.183162949692357
0.190124473014927
0.188483010621116
0.187963229921845
0.182886006271486
0.185606495506612
0.175675273297282
0.183738341767341
0.182437709371963
0.180893212052155
0.177656361123998
0.183953696050934
0.171587912379835
0.17792174471822
0.173279076824091
0.177887899517573
0.169175697379592
0.173090852485135
0.172243530073083
0.173189978609881
0.168487747919615
0.174130735288262
0.162206105027451
0.166159349830091
0.16243357905975
0.166541037915894
0.158783978872083
0.169756607763718
0.162961179977693
0.166794456276193
0.1592981267802
0.164661686480824
0.160015095376709
0.165595970377012
0.161522382946659
0.161182901797711
0.16009322971833
0.157058725062136
0.15648675768977
0.164615756934384
0.155036902742219
0.16041198425712
0.157014243576012
0.162370051740663
0.160626097749721
0.160925249508669
0.153646160605853
0.157583808185761
0.154395455890484
0.155638458118449
0.153537321457966
0.163208131336234
0.156379784631069
0.159919328497476
0.155241029864487
0.160021380012866
0.153236797475472
0.161735742173122
0.159866101923267
0.162802763755705
0.157630070142175
0.162993223732721
0.153458018783199
0.160375134547917
0.160812401680778
0.167638241453657
0.159266214545666
0.165806619394926
0.161196088885052
0.164394015356125
0.164212602705094
0.165832802055017
0.166107821339364
0.177190370042496
0.167367828701858
0.168276355045951
0.168861414563715
0.176140313926207
0.167280111177619
0.17769092461555
0.180608883886875
0.183938560204241
0.178482341737463
0.183914775119136
0.18190976980407
0.183668706949944
0.184072899530828
0.189453120670758
0.182678154032936
0.190156289549578
0.184916388680355
0.191259014848244
0.190844208007125
0.194502257706821
0.187921902663008
0.195319953930799
0.197409836632973
0.199565109846769
0.196503459487791
0.204722688666414
0.202002088509265
0.207370473921037
0.204565658171459
0.211958783352257
0.207626263612871
0.216890705048816
0.21704840078673
0.219439877626634
0.216165703138162
0.224235928200065
0.220585756752973
0.224859534916436
0.225734476365207
0.231132308111423
0.228453568863026
0.231390670067915
0.233575714582965
0.237705751079154
0.228255640339988
0.237342142576388
0.231924582588628
0.235692418505314
0.231598184701052
0.232858276829818
0.233453368014202
0.239961885256432
0.230496739945577
0.233265271494311
0.233648140870937
0.237537990564493
0.226190838429897
0.231858920965188
0.228353598971291
0.228637892110412
0.223362709085316
0.228174914156348
0.227088528702026
0.234195102069092
0.22760793257279
0.230991036160113
0.224778886406102
0.232509774945777
0.228417790634777
0.231083838759109
0.228110597140194
0.229969866212117
0.228064524943582
0.230349587996337
0.228157497341889
0.231031947873558
0.226848138440073
0.230038755861293
0.223754325710484
0.227098099794829
0.225145470465951
0.232424490816247
0.230488452215525
0.231463346678389
0.227938682830947
0.229435687777335
0.228148844968812
0.237035219143219
0.224584097029836
0.225744671707745
0.229019110353724
0.232498487194559
0.223997013178508
0.227398155610734
0.223425243648107
0.226784639607088
0.225024111865777
0.224900430522651
0.219492094156867
0.223532764616707
0.221624995142231
0.21919493568814
0.214457147845343
0.220722344448451
0.215843118381458
0.222207736485835
0.215298369099063
0.214682909670389
0.21128961061667
0.216108252167138
0.210612116722445
0.209151297457427
0.204864874978315
0.207218276523363
0.201420028447531
0.205273158040495
0.199410384021823
0.197159469708811
0.194175714242112
0.192087452006937
0.188992170589562
0.190412800740314
0.185667099071055
0.190616615894485
0.189654050812714
0.190190931362683
0.180725374419585
0.183844285845284
0.181739642726827
0.178104230818098
0.170759841969566
0.177009962752225
0.172220550523488
0.169684795412383
0.167043233845868
0.170683400508584
0.164590525418163
0.1650701946924
0.159268578259393
0.160516490780642
0.161682159156962
0.161956858527513
0.158329078651633
0.163702156159868
0.157691148965174
0.15537343422223
0.153463793050176
0.160149131115979
0.154147213623255
0.153536566452339
0.148248574288278
0.151034857523851
0.146329400010923
0.152333007222895
0.149047430889841
0.149231261606884
0.144813121386857
0.146704378109381
0.144859011187592
0.144096640908922
0.141873280997011
0.143346078837884
0.140661581119288
0.142356840263186
0.141924428854712
0.145658583903068
0.138780861940862
0.137006983416136
0.139641791027314
0.139386197942868
0.134943514582948
0.135645976309452
0.133885364928093
0.138081081690308
0.136359969876798
0.137181946498776
0.135201585093206
0.135846209459504
0.134037759888449
0.134254021898164
0.13291673558789
0.13115113350291
0.130017803517503
0.129298204101842
0.129988080731463
0.131138427071723
0.130298444917492
0.129719994461576
0.124398558017083
0.128984477087753
0.125395024597382
0.130110885584527
0.12345201209653
0.123624105458875
0.125761555129302
0.126353246011607
0.126617533387886
0.124567171699421
0.120867583067386
0.123454939154221
0.121926779406342
0.122385779426841
0.121966394979003
0.122645010360338
0.118381024413456
0.121776085623051
0.121291695623074
0.120936543186221
0.12206316916383
0.117065243821758
0.115505150838309
0.122039949829992
0.118404395651902
0.119198269842702
0.116285468631482
0.118510379313729
0.114982218376799
0.114881454721978
0.11247562597783
0.116100005275331
0.116265932122848
0.11779021063624
0.116213270182258
0.115937996512639
0.113474346816833
0.114331025722093
0.113900515088684
0.117515004575201
0.11146869255514
0.112167189061392
0.112594756227749
0.114459204098614
0.111616966221543
0.112124277833188
0.110472983088751
0.1106213188788
0.110735492435012
0.112661400287696
0.113899094060356
0.110458507855994
0.108075428418356
0.111741673012796
0.108486467710904
0.108117899585988
0.105814469307934
0.110927621286599
0.10729442276194
0.107604170778676
0.109700461622216
0.109382371970051
0.106036424662243
0.107596919760527
0.107942302744421
0.110315970010285
0.106727129167431
0.108772945063767
0.106755840396744
0.107051972296966
0.102856731829386
0.104012307525135
0.103213025821201
0.105406707082275
0.106112850515811
0.106329691599779
0.104746434267648
0.106906411130012
0.108319415040649
0.108511495778108
0.104869444200733
0.108997878343888
0.10252049398767
0.105907522074158
0.102355198627431
0.102363120776093
0.104343168781467
0.106043869629585
0.103932400057772
0.104065871790932
0.0989926840929951
0.103493265735146
0.103578435584583
0.101182948988575
0.0992195189770003
0.106164673310831
0.101366040990037
0.10178902036171
0.102711142618421
0.0999286897377618
0.100126539989356
0.101043231312311
0.0967225442689603
0.10236485675063
0.100795637611112
0.0980431204057966
0.0984783696649925
0.0988534277794769
0.0962524967300294
0.0995893405909086
0.102354586146694
0.09784477397398
0.0936499205930367
0.0987611448854375
0.0941117890646336
0.0967172438197862
0.0948121965853842
0.097197018283126
0.0953857996360629
0.0964126337421667
0.0946172549701368
0.0979318556246953
0.0966051109300605
0.0941850487022003
0.094485237593254
0.096680246061984
0.0935853525557863
0.0955835245204851
0.0891558258175881
0.0900818877287106
0.092409118570491
0.0916787241405708
0.0915769898989249
0.092536058342345
0.0925477542761964
0.0961760699749847
0.0917268761126269
0.0927285777064652
0.0903279569246029
0.0910300943709476
0.0912117649546016
0.0894079724000551
0.0883124586553087
0.08995790396855
0.0870434769574442
0.0905461702838017
0.0868217439826532
0.0886012694049006
0.0869240264379126
0.0870295553830459
0.0878288892619194
0.0880954094774342
0.0868622449586869
0.0870941388240234
0.0869195909043678
0.0872720525941928
0.0851111575128127
0.0857399087763873
0.0849460381667069
0.0850206070693167
0.0850720835100276
0.0847791752107189
0.0804786621705467
0.0836613511574089
0.0804749470289833
0.0798653787275198
0.0800092643341669
0.0835754817641453
0.0820614579823714
0.0820882737301916
0.0791307215623599
0.0786950870159711
0.0800150141721371
0.0803752022286794
0.0784707723721701
0.0778676296124402
0.0774228004099287
0.0787501870237034
0.0762864274244395
0.0799382979391717
0.0775912326367617
0.0793486603729726
0.0777180551423853
0.0770060006842556
0.0763113072357979
0.0757416056681401
0.0762222178536886
0.0761464477293981
0.0737199392060369
0.0774496504475537
0.073782655883358
0.074510495147301
0.0735961262992353
0.0730618114364418
0.0731753599752293
0.0750090574631982
0.0732533923873811
0.0757583910820628
0.0715421949531281
0.0705283709278139
0.0706369091728584
0.0719824198592354
0.0756874431389841
0.0712507306811984
0.0701003791523658
0.0719381605580189
0.0710998239094584
0.0722619066648523
0.069708513812214
0.0751899414884974
0.0730990198224457
0.0708626910590204
0.068034752666389
0.0730543727193797
0.0697224788032937
0.0719643294992618
0.070410675171329
0.0709815589211847
0.0671753315236585
0.0677160429026063
0.0690014691581648
0.0675777021869745
0.0677726925130059
0.0714532667387179
0.0688771209133409
0.0674096642254673
0.0663875581806587
0.0662575467529251
0.0645610592812215
0.065520082882617
0.0676584286603705
0.0677988559020538
0.064471051393335
0.0670882966342107
0.0684405733196329
0.066824244630017
0.0640381108738055
0.0627633089560617
0.0688239598717719
0.0681092455784576
0.0660912958357741
0.0674588441144791
0.0649185838718359
0.0654439550759598
0.0650216526131628
0.0660425928976491
0.0646503109541883
0.0653770086102395
0.0643891742629013
0.062402341081806
0.064978775110776
0.0646780574305251
0.0638029104209812
0.0649395221571168
0.0620619760070229
0.0643344871161023
0.0623153056697084
0.0639697460290214
0.0649385586871134
0.0641117111527223
0.0634548359756558
0.0609672641936347
0.0622389188898457
0.0650093267254472
0.0618015876436903
0.0631851509883407
0.0628199937716133
0.0654307530519943
0.0644341072183003
0.0628966195874097
0.0625017166506281
0.0616079981016758
0.0608589384869546
0.0614977925561617
0.0596758693144785
0.0626941778356825
0.060361394462641
0.0612745690486881
0.0606483460521884
0.0624882759134009
0.0605397373976608
0.0587871593414166
0.0585753681307569
0.0610865377600523
0.058215613422241
0.0594980836210105
0.061269467056517
0.0621047384554954
0.0591751705338837
0.0609238080518062
0.0597743728662948
0.0585164079588726
0.0585205376847562
0.0605241171794246
0.0575748936633447
0.0595532143615204
0.0576936088244403
0.0591097330514394
0.0615611495917183
0.0595959566087259
0.0589087861032926
0.0607003504985631
0.0571362023030455
0.0583680682727048
0.0541276390343241
0.0594409271901444
0.0580322017152304
0.0601720225193038
0.0570302278016334
0.0558912422803228
0.0553969409541406
0.0587597766063662
0.0569882476323564
0.0570572678326383
0.0573784384674238
0.0557402163586767
0.0571629140803364
0.0567985314015762
0.0578015299161538
0.0588062453316099
0.0561636899965067
0.0565680331479268
0.0542549225406266
0.0576769030721477
0.0568505994175124
0.0575428165671712
0.0553072626656266
0.0563986923344493
0.0564198533047287
0.0565488700664118
0.0546690476154748
0.0553097487956953
0.0546486135049044
0.0543816336553201
0.0541372918816833
0.0573659871591995
0.0552707057820795
0.0554882404817711
0.0540325788084726
0.0537760762623432
0.0540400944318296
0.0529378735108982
0.0517982780314892
0.0551841236198954
0.0519585882976281
0.0536933483831608
0.0543957747552449
0.0525184628593619
0.0543620997363422
0.0530540457915706
0.0524679298049887
0.051892963181435
0.0488080454156291
0.0537081094287758
0.0507325125583014
0.0522167941603248
0.0480065536706048
0.0510415582962364
0.0519694013256647
0.0511219072888662
0.0479489359314774
0.0511275831553301
0.0496909891688144
0.0509633242566609
0.0505742222168935
0.0497880867392867
0.049306493408466
0.0506850711413535
0.0464197025095849
0.0483777541771879
0.0499051105027245
0.0486789174321059
0.0498196228664805
0.0498118965073795
0.0492052570702657
0.0485929531213649
0.0468421992780618
0.0506250869614583
0.0472023583474538
0.0491728621297945
0.0482388504153497
0.0489627059510977
0.0466282351299837
0.0467215971435814
0.0461084650444604
0.0485631828458771
0.0493238872218326
0.0501219699244686
0.0460050607020326
0.044857629400016
0.0469731869169786
0.0459653250810216
0.0463937002771869
0.0461595132782033
0.0478534918153667
0.0462618353534192
0.0433957022559046
0.0470161705077285
0.0476594264244571
0.0433933058229533
0.04170441282938
0.0449532351986407
0.0444106840590926
0.0446838256296883
0.0436035567170165
0.0461554059813298
0.0438719096986403
0.0440926485188256
0.0441968187921997
0.0466536816687043
0.0453592522970527
0.0445039069717747
0.0421636397667852
0.0420468778048514
0.043895041929881
0.0453454246617689
0.043683136468227
0.0421018223762314
0.0390955559866879
0.0440304497671085
0.0428109420893615
0.0436995472301504
0.0419919507320972
0.0418087550667226
0.0434643793994194
0.043387175161282
0.0424059528694285
0.0415851961865559
0.0423010624075144
0.0412105857490805
0.0411493357218945
0.0406168667150152
0.0401250651858246
0.041320199954928
0.0411120366094601
0.0431812057978672
0.0412521444584976
0.0422407969771969
0.0420198066132407
0.0433577511711035
0.0445668900094517
0.04241152851959
0.0401860517858948
0.0431165482462015
0.0411544049574371
0.045337248373392
0.0461339189397159
0.0461028057845956
0.041282855625593
0.048493837259523
0.0434584408221167
0.0494855942891196
0.0473826695968192
0.0494101713267255
0.0449473764899352
0.050609410889188
0.0463835629264062
0.0476178084041001
0.0452373352397936
0.046069073818163
0.0351673997958044
0.0397494564956682
0.0368055471649015
0.0488317742498912
0.0398593479916789
0.0377818834120311
0.0409999741284525
0.0465256971506984
0.0338821059962915
0.0424781578311314
0.0387126588322997
0.0424083910150206
0.0421787422807838
0.0416172527467676
0.0333488798048669
0.0447503366675016
0.0394745952874371
0.0512470356893347
0.0362058319815199
0.0436311007407039
0.0402319256833627
0.0459306271721234
0.0317452741182683
0.0493200042694302
0.0343714262721544
0.0432598297226988
0.0309785871236312
0.0443382259408222
0.0262297178552246
0.0451638807600202
0.030562361817278
0.0473966328066494
0.0313237232621232
0.0524079614389511
0.031191669223589
0.0579334496303603
0.0272171198880181
0.0499494581841847
0.0212072692157524
0.0473297628580496
0.0260108771515514
0.060452967365119
0.0318888834633757
0.0612490351831099
0.0188855704393485
0.0472773438047345
0.0267205266454836
0.0627466466948819
0.0259447778515822
0.0515043481584586
0.0317214012863998
0.0625456219263836
0.0381907110696213
0.037257590045413
0.047671989945965
0.0384549370100129
0.053537596624468
0.0295245811024012
0.0555183804259043
0.0245709094240544
0.0569133335127177
0.0283133697673025
0.0547126910323658
0.0315027243519573
0.0516992678780171
0.0333728855544998
0.0459191794820603
0.038197754977843
0.0374057267965384
0.0405759167402836
0.0377181109233855
0.0370488822476958
0.0384982572699188
0.0361169024679179
0.0425092737993909
0.0354558980459249
0.0420316375799796
0.0329697435052467
0.0414870085184746
0.032430694033417
0.0392656374546519
0.0346590580046553
0.0367608384369146
0.0356463285167346
0.034975414684505
0.0347951447211845
0.0395795498312857
0.0335958815802703
0.0369689264133169
0.0325157872573295
0.0377233981817743
0.0343415630179872
0.0366373681555636
0.033610474072045
0.0356594131474709
0.0347604084226551
0.0355297555228549
0.0333030476552707
0.0348580582822324
0.0343836049531751
0.0359960760491753
0.031340440415407
0.0348384360973145
0.0332070658405035
0.0358382916654972
0.033904834698612
0.0383244076029686
0.0331977062059269
0.0371121208839324
0.0341203958573096
0.0361696534934402
0.0322662504228413
0.0356667966844425
0.0350455204392186
0.0346204168220168
0.0311319048753407
0.034484948148421
0.0303926200528259
0.0356733887614169
0.0353222334742859
0.0362237353582058
0.0340388796856368
0.0356506212259635
0.0327456541237573
0.033999116953584
0.0303448885984795
0.0361386079762336
0.03047340953792
0.0361797053701843
0.0337763205629473
0.0358575262735221
0.0353602853011931
0.0334257024328332
0.0319442800306856
0.0335824150733377
0.0325956380091175
0.0329429583263112
0.0318110413746718
0.0345378027982859
0.0308473361427993
0.0340510576230263
0.0337901703659792
0.0352645485668449
0.0327454313904828
0.0340948100022641
0.034054782695763
0.0326844118143072
0.0352281106030738
0.0327294815979173
0.0329262090138794
0.033619865532252
0.0340400642019383
0.0338562423231442
0.0327787737275014
0.0329295288237042
0.0316220313402748
0.0324006991161591
0.0338651567130655
0.032976795196925
0.0344347428136203
0.0354528388015792
0.0328822977422471
0.0333676211820279
0.0337158926658186
0.0332147264692677
0.0344387432447534
0.0329873959760257
0.0359022843569755
0.0328700953071286
0.032422733250022
0.0350822974231556
0.032038632395918
0.0341264869056714
0.0329208096829968
0.0331943886117615
0.0332275702534268
0.0350639301053476
0.0339257085723317
0.0354110946258842
0.0329362852694757
0.0359527492223559
0.0341579267645522
0.0341060370550454
0.0345264423789164
0.035525965783489
0.0319925850309106
0.0344298325768794
0.0344593594309864
0.0348667002853442
0.0317539888725462
0.033475770042715
0.032536591162121
0.0331322643967415
0.0337121930611322
0.0350314435767541
0.0339190832416339
0.0342587275993477
0.0301935465621968
0.0342801572896767
0.0342590438848254
0.0347415650929112
0.0330231384170369
0.0335951504024828
0.033622005727586
0.0334403160460751
0.0331454557121251
0.0334264848972
0.0326525296985253
0.0342608757512302
0.033288557702672
0.035302523421632
0.0331641939764695
0.0345724593208445
0.031301717947243
0.0343433012639638
0.0344709887560517
0.0353448417897769
0.0348520399551515
0.0351561149979019
0.0330516195074574
0.0359568865916422
0.0335937282293372
0.034687612242093
0.0346894650113965
0.0330942501469975
0.0349519527823558
0.034153893234039
0.0335070800426605
0.034695062439245
0.03273029615539
0.0341533844651357
0.0350157167302134
0.0348161434094412
0.0354492035572955
0.0326067673960223
0.0331656165952372
0.0339952819118107
0.0353656385866571
0.0360265031597852
0.0350277088357057
0.0343665161348412
0.0342389329050546
0.0322915960410977
0.031803171635838
0.0344011853995789
0.0338171568930492
0.0326960909216603
0.0309560719313842
0.031836950007221
0.0325826884689977
0.0323916390841759
0.0353736682453011
0.0332951213992534
0.0338132331186658
0.0333959566927515
0.0329188165114914
0.034094810201716
0.0327840332931908
0.0329099305730178
0.0345611469969867
0.0308247377816516
0.0336312371170569
0.0321675135526236
0.0323014214198715
0.0318547396355351
0.0309810124119159
0.0314463956190004
0.0333483799027842
0.0328068601025523
0.0324446486329808
0.0329445960666734
0.0300162694054718
0.034076848840271
0.0327355111041622
0.0302486424326683
0.0314350614301215
0.0326174681179258
0.0305374439052039
0.0316562907965637
0.0328534861308151
0.0319120219727265
0.0299610505441801
0.0312253753092528
0.0326554613993189
0.0294624456135618
0.0326624162776556
0.0322774527283346
0.0314458381381894
0.0324303151506435
0.0332762382848699
0.0322141432971389
0.0310057742491992
0.0308438391384654
0.0316018181708669
0.0327078512424837
0.0325672006363222
0.0308792743841419
0.0306660072217923
0.0322802478026827
0.0334104705736836
0.0315734453533206
0.0320499272186073
0.0319553544114953
0.0319739284725993
0.0316774425684584
0.0303698511321387
0.029952401300572
0.0307976952600184
0.0324381835475896
0.0295987794455516
0.0310798878451563
0.0307444011328422
0.0314599321528716
0.0311218733671955
0.0316119926175306
0.0299832891490947
0.0303934701242308
0.0314532678251909
0.0314288108334278
0.0293275485422484
0.0322596633821617
0.0307027458081271
0.0305574606731095
0.0296471483738585
0.0288809086757844
0.030609694319467
0.0360694278490432
0.0342801928898375
0.0317104879588543
0.0316951811925331
0.0320304351696587
0.0332795458617257
0.0279349946891303
0.0314399774932519
0.0301482987238188
0.0306635479031279
0.0302905958269418
0.0304563693550712
0.0289562030079725
0.0307381318866435
0.030028718543171
0.0291724482175353
0.0280260411475236
0.030119122739681
0.0286985198034178
0.030637640186853
0.0306936503782293
0.0309230605712116
0.0308531039157582
0.0298336688424969
0.0276204021263029
0.0316780452262318
0.0351558428748632
0.028853154479917
0.0320419378056519
0.0274924248223984
0.028746535944474
0.0298743957384634
0.0297448741492087
0.0297070415798285
0.0310522462890378
0.0283235387542674
0.0304317115437203
0.0293529934467493
0.0297966079040757
0.0292609134685923
0.0279560930632806
0.0279610321857733
0.0302586875245448
0.0280548670970584
0.0302723231790878
0.0293409108285536
0.0289482697605825
0.0284747407636562
0.0295697568184673
0.0268654483033903
0.0337677752522089
0.0317740058734917
0.0370241051652326
0.0319403501030303
0.0273466605205412
0.0275532197302035
0.0263551897421196
0.0298584306597895
0.0276307745952026
0.0275447719244905
0.0257488603123798
0.0270529347640718
0.0284305928181685
0.0278537765468153
0.0282016346693364
0.0287470720730051
0.0258790144712957
0.0270538273089754
0.0271351732749686
0.0290390423541357
0.0269317919801319
0.0267835497800466
0.0258984381187764
0.0285566959445196
0.0261205472458337
0.0299001184717885
0.0246447405543135
0.0305057767819571
0.0318539010730427
0.0441500521661506
0.0292310774896325
0.0283678075857036
0.0300005642528829
0.0331302088786524
0.0264833056088759
0.0281905401554142
0.0254721031385996
0.0274129679966012
0.0273581089404978
0.0275260421752557
0.0264895895857017
0.0276033689352012
0.0265462163049494
0.0280235016275448
0.0265704839177133
0.0257233599276289
0.0248390123223571
0.0276915465410926
0.0257677383461283
0.026702944276861
0.0247464939418531
0.0257648049817163
0.025833905541161
0.0274293911759369
0.0277422436482796
0.0381330000327304
0.0359263384385414
0.0301904970166844
0.0273169239920611
0.0246329643445655
0.0263818157469769
0.0252881000735309
0.0266316595502745
0.0260107994939387
0.0264329472070234
0.02612563933482
0.0253578263223626
0.0272125247276783
0.0284811235016879
0.0254972747514228
0.0262647182543682
0.0253588157660966
0.0238316296026992
0.0257303864931739
0.0255052164829528
0.0237190435064424
0.0250740158430277
0.0262032407631416
0.0322917568358868
0.0261642366107863
0.0289609302978965
0.0341323520102412
0.0569939824908874
0.0294495161818341
0.0289997376247723
0.0266008556866308
0.0249445645310582
0.0260268816070919
0.0267817727904643
0.0246926574743842
0.0255202837404825
0.0257465446695244
0.0269664078698593
0.026542006525168
0.0268532241551708
0.0248038503887376
0.0231700168326992
0.0254571024953462
0.0252341602200574
0.0251844881047201
0.0246802208990455
0.0252564207942691
0.0332258626973993
0.0464196258995849
0.0374898582850499
0.0229509487883893
0.0310548909293514
0.0289523777531012
0.0455260360097187
0.039278437323553
0.0191371162174218
0.0324923101093784
0.0192690820566512
0.0281060234601623
0.0193518508834925
0.028122035160174
0.023604067215258
0.0403535377342091
0.0242849725005034
0.0348109917009149
0.0264387116778086
0.0264000240987567
0.022953377733206
0.0264576701323226
0.0225893889378347
0.0259313243870134
0.0238253828962194
0.0235978263437399
0.0236829649204038
0.0249951771950206
0.0210873984077638
0.0267459141085019
0.0279994580182207
0.0397616063514417
0.0233381895831644
0.0302907583573258
0.0213947759953966
0.0276587139659195
0.0334996072060602
0.0505387716512007
0.0222921317246286
0.0262569961334899
0.023304221548526
0.0268967642391455
0.0277393027635065
0.0246772456996335
0.0248380956523835
0.0261054538506444
0.0229788739047244
0.0255099989365632
0.0258139706663434
0.0229653588369347
0.0252428391475949
0.024153196997264
0.0243703093194916
0.0227986963952616
0.0252525996032743
0.024606991986955
0.0273656356882444
0.0338580307936169
0.0429211322120768
0.0635836181358071
0.0365423275226907
0.0457969811214973
0.0275744793551349
0.0307709723482584
0.02226749488543
0.0307329021271623
0.0233208844550437
0.0305685405187872
0.0215698741107632
0.0307686225682225
0.0241352761038897
0.0292486377915535
0.0211886785871491
0.027437235818275
0.0198332196441718
0.026015983625356
0.0209148812394342
0.0268393533869319
0.0206129910848611
0.0256586256408439
0.0241668789561966
0.0386133240747878
0.0362096708223872
0.0261321287697675
0.0428683832753407
0.0487347542259046
0.0683509575873957
0.0262394909823792
0.0404383451371781
0.0236522045504298
0.0252245088652962
0.0224690501906831
0.028886187177145
0.0328701475082269
0.0284250253265527
0.0228799091434124
0.0267172459849979
0.027101157801348
0.0272038047301672
0.029073594092963
0.0444685958555574
0.066822334284777
0.0442947260253353
0.0234929572906672
0.0314336595921465
0.0328578489263787
0.061325724227923
0.030977261302729
0.0283121721920317
0.0347782391896889
0.0229275164882284
0.0284821276919303
0.0203351217124404
0.0296565429457305
0.028560216349696
0.0303439231915851
0.0213473564705176
0.0274736775873963
0.0220606770805632
0.0278265161975628
0.0336266584456681
0.0408869444661524
0.0395127737884122
0.0303758861159874
0.0288318639231552
0.0346353837802279
0.0237656634713212
0.0313224628886449
0.0212581130509807
0.0308236175330732
0.0377736071905378
0.050760294850821
0.0371557697852724
0.0492886981938568
0.0395432035404335
0.0289842745745623
0.0300655269614981
0.0494752033443683
0.0273294716342446
0.0417355381986087
0.0314843002537031
0.0840959637002049
0.0449922122769589
0.0585284007648226
0.0293093139176974
0.030483741784082
0.0252378211913928
0.0267967475295059
0.0343680946730105
0.0390208951606797
0.0393118212533848
0.0176685054388993
0.0394533289946307
0.0332313870660175
0.0540762183286452
0.0294950456765026
0.0386043123624806
0.0235258950594645
0.0360184382947667
0.0351323857545792
0.0444128790097196
0.03056499724377
0.0724904758723699
0.0801862683445112
0.0479656551330084
0.0454411529861067
0.0361856889797093
0.0699157735813226
0.0450857132682606
0.0257435498890096
0.0375986972267996
0.0216646324689866
0.036535233296238
0.0383029199853784
0.0674000134257155
0.0459406209551152
0.0254011222967212
0.0380421173623447
0.0387654013858214
0.0567680192684942
0.0507945492687115
0.025445227681714
0.0329400172780556
0.0288605767314641
0.0525808333603662
0.0586379342019686
0.0820879058973667
0.0376532351816
0.0885510662869472
0.0504933857699684
0.0605109846192771
0.041433170285184
0.0492789497909664
0.0587399630186116
0.0693105301318035
0.0334435717242007
0.0445784929053942
0.0516255719598097
0.0717084462844844
0.0396762203294341
0.0402606453625697
0.0425076196545469
0.047756219696703
0.094333383431841
0.125693807574787
0.0703315575987086
0.0486163198352719
0.0543750252731751
0.0706027751184455
0.0524503218296018
0.0339179081087028
0.041190179078326
0.0363190453992974
0.0377711867963249
0.0432801529818823
0.0495081327982987
0.0488461035082954
0.0362189672832161
0.0459513292281876
0.0435925573332097
0.0906575925323432
0.104044382656171
0.0920542549409974
0.0764884564255322
0.0831316683307423
0.0875479133281876
0.050439989608002
0.0539749287211807
0.0438314583998734
0.0586546406339817
0.0486557280674397
0.0446315391108389
0.0580559333645814
0.0662360417553531
0.0821013696844194
0.0689845421551643
0.0849759470239995
0.0576080957170841
0.0694113312101212
0.0998070815619333
0.148972013253366
0.117595111929131
0.0530718001750111
0.108633196790621
0.0757387215475077
0.152647575716366
0.0800542868491717
0.0659712606173284
0.0650106397602768
0.0718786549003771
0.0691828811240404
0.0890418797030373
0.0877788532764212
0.0975955582073645
0.0803555157612729
0.101359726999002
0.102914556935798
0.223892934107544
0.148651250002635
0.119498111386947
0.0963433101499514
0.126759491347371
0.112093597004765
0.105300309724608
0.0867517597162143
0.117021446847432
0.11390104701961
0.16467454268467
0.111683225493329
0.115040604399736
0.133209794780012
0.135131170606534
0.145458095818918
0.145610900269873
0.182872015413412
0.11960659780794
0.133434355307955
0.118534718493276
0.134317696304972
0.140332368633181
0.162400285936865
0.163374992885091
0.136915703369153
0.142989744085771
0.136656289078392
0.143037497264976
0.143440484792336
0.14750067367461
0.159618663597301
0.204913470431684
0.263485748319696
0.248080162177401
0.208082047925937
0.147583722677776
0.161999017021557
0.162709462529645
0.189494300256638
0.208671813175252
0.189050994659506
0.188870278916836
0.144235673406243
0.154314469569587
0.152794697428153
0.148596068135594
0.14976590701393
0.144382080405795
0.156198980744516
0.158495954718107
0.192286264461065
0.176689746038752
0.232665873288502
0.157268733706119
0.151341186533903
0.145382876570813
0.146133738333514
0.136163530386691
0.143935204793531
0.149429112239699
0.162281502995018
0.145518210582458
0.131256193789616
0.151928701736839
0.163339639628945
0.180556830503841
0.144224225556388
0.139868450865402
0.137147279506023
0.127869674231511
0.147522364478839
0.155140813940197
0.18205655763565
0.147679294976516
0.126834612493299
0.134296654525752
0.125343177871519
0.126844018784792
0.12196520004265
0.136892103439126
0.129294345245049
0.130665506519537
0.130700163220199
0.130426785181386
0.117794119505843
0.12889596232775
0.123070011645797
0.129796494962153
0.120686120958412
0.12378228469111
0.117536339711044
0.12087664304444
0.118299410111152
0.128073503465052
0.123186017068612
0.133125639712171
0.124207119339448
0.122693725251983
0.11715943848231
0.124979753829518
0.118341756382023
0.124645407273091
0.114357795294306
0.121691243837726
0.116436441744623
0.117845886709053
0.112184443957784
0.120089012862153
0.114656463875668
0.120095875519798
0.113774971112907
0.120337339072615
0.115825377395488
0.125013931391219
0.144706443681914
0.157643673098388
0.152648672553263
0.112665534029205
0.119977841613096
0.114235253333229
0.111354924264346
0.12772784726663
0.155035983392763
0.151653540205636
0.114717268127806
0.111707699905263
0.112248569614526
0.129475485268363
0.120652686388196
0.110505996081921
0.0997411389772574
0.129938640933986
0.127481267477692
0.250567173314913
0.201353305761555
0.215522902588625
0.123524745958307
0.119183192558904
0.133820684798969
0.14520947419097
0.108995450423674
0.0973438980572722
0.115072895274808
0.14554449360126
0.12918895501439
0.100751434155602
0.0972216747238022
0.106758088399403
0.139376373293889
0.141661486321538
0.134119568555158
0.143410597234535
0.159194830359343
0.159923174611922
0.190362558235759
0.198903779795339
0.133206882010771
0.102747288814142
0.0974086204659184
0.108591696006302
0.121362580024663
0.153888306533552
0.126348294099139
0.106327750439309
0.0974478785570081
0.0877913627444756
0.106773329487628
0.123038069899209
0.110811143834611
0.12891600974181
0.123741931051285
0.11241228875168
0.102540221523244
0.147816002682264
0.152166227125084
0.17652408522781
0.0953528495362062
0.104210778212373
0.134740446606994
0.149080969497725
0.115311860720429
0.104868206215282
0.0828369799862047
0.105428153834548
0.0977543100786714
0.0988308174760531
0.108598612169443
0.133900576690086
0.149404141538198
0.189845473037106
0.199589475215865
0.149864780455885
0.0966946124844949
0.080831046848895
0.0797839851902772
0.0922043688997947
0.0740933074217412
0.0971438299501264
0.104440533134802
0.0995297227200714
0.0947514992571109
0.131910343045697
0.0971771878493597
0.0806020453259822
0.0775089743675113
0.0826237999467109
0.0930300218355651
0.137156620504746
0.142510603598102
0.117003151884349
0.107500421425257
0.1211961127642
0.0974947824127216
0.0878822759420509
0.087620452310364
0.0882917118282148
0.0981879891310374
0.110545339918338
0.100795772289527
0.0999175993319215
0.0955751995180845
0.108216622334092
0.141607408099465
0.131336028374903
0.125621063357185
0.145870459129088
0.175950005148804
0.177796873569101
0.144958254619008
0.122895453936627
0.123719154942296
0.12615034643613
0.124353249486137
0.134644750931117
0.156991407980829
0.162471928330749
0.140528090573799
0.137570069254939
0.142764297809541
0.13938976781069
0.161770269351875
0.178232889039913
0.213559160251997
0.219524780200921
0.208024479269196
0.18431207465062
0.159828458653223
0.151074464458043
0.160617007260817
0.161802247210564
0.152666663275058
0.152177698552802
0.169795532822354
0.183139052468625
0.161259125694744
0.156270069088948
0.157076048315643
0.156098886801843
0.157864182205264
0.160968304461598
0.159241356475715
0.165706243223016
0.157928933989324
0.164458416035874
0.196882516495609
0.231023866196483
0.194976884335447
0.171663815942886
0.179917967998065
0.180032677117255
0.174651077416406
0.186832588166072
0.203174208498998
0.190661615675322
0.182741775771821
0.181586424700327
0.181120411473418
0.182187236767541
0.212087543357104
0.205566590655136
0.192224223432621
0.183210916510189
0.19631726067761
0.240244037146674
0.241845426094855
0.221033934162299
0.212841835326347
0.205588645274273
0.189487316844469
0.192553846117144
0.18880342830146
0.198395464153835
0.197690987821397
0.200046623766685
0.192060867115088
0.193741294359988
0.193742905735296
0.191448942484429
0.204853339724547
0.222601682578624
0.200559126192687
0.19353314298162
0.193345553857855
0.189463506962846
0.198102373359583
0.223787976458014
0.215179209782614
0.203442425719992
0.203304093282424
0.223976446388661
0.225815452941434
0.207768065602165
0.188691317409927
0.192658333078786
0.19172212898835
0.190357916482624
0.186884837842407
0.213060169304905
0.223125740251932
0.210636020862431
0.190674606728167
0.194896761604722
0.190591204158246
0.1964239580425
0.192243324952501
0.202096078322935
0.194732136299053
0.202832174539043
0.201577411533533
0.20154807827885
0.202989484593059
0.215463291872343
0.223664894832057
0.214703621210358
0.195994660009228
0.1935442063451
0.191729380516715
0.200798060715784
0.200669844291517
0.197033221735374
0.183238815180256
0.190966421390795
0.17942226018382
0.201130427970304
0.214074491202541
0.197268458290144
0.197070427564824
0.181318254536603
0.176217781142503
0.178888096212375
0.172815610851193
0.174187342519652
0.172200479200133
0.174961680786152
0.168940562569969
0.166968742184404
0.163373935007939
0.166773093113675
0.16572590752959
0.168838090986495
0.162403354017814
0.166999730655947
0.159962681216985
0.164714573200965
0.161116179301758
0.165096976086264
0.16023796070852
0.166785067880355
0.184811665932827
0.193316122908828
0.188668499883024
0.173348377635966
0.175156480971787
0.164907195020539
0.16082942607584
0.162650014199453
0.158745748028564
0.158661720884672
0.159796012096532
0.162254439612446
0.157393658652021
0.160095522220864
0.158006607506325
0.162616210751349
0.158515732243536
0.160581968594515
0.157326090087521
0.156561359177158
0.156768571900629
0.159078206102795
0.160519689783834
0.172637595119282
0.16191985832585
0.165566478689583
0.159817552813742
0.159702080240101
0.159940448930624
0.163436710484901
0.162654728114411
0.160501325336681
0.157222862651895
0.155553681717434
0.15785181174553
0.156249958218732
0.153083408404686
0.159456289139143
0.153667342652414
0.154253618025264
0.153165801690552
0.15303191414587
0.150487007488578
0.148475903402441
0.146034483204677
0.146975413367968
0.14426590077536
0.146511318038357
0.143284260560713
0.142710522392238
0.139536647757613
0.1404728109204
0.136800653796941
0.141339161415049
0.136607276202715
0.135413678336518
0.137875014401303
0.140035566162764
0.134548191370443
0.13191487757895
0.133450744057301
0.131958231249664
0.134232845234294
0.135007159176199
0.130837046637245
0.136362605235872
0.133240863924116
0.132976879453021
0.130912886841661
0.133933621458698
0.133451865749189
0.1352119583775
0.130716229471032
0.139315002324787
0.139170418282511
0.137020659757145
0.136878721286001
0.138609327124878
0.138846225377055
0.140359000133345
0.142977800211774
0.142326950353438
0.139443131317503
0.142467620855511
0.140202524042787
0.141697599777664
0.145067027926324
0.144960329073058
0.143095206211435
0.144751377026919
0.142514939487053
0.142781899055162
0.140315418140363
0.14171076333062
0.141540295723816
0.141020885168853
0.139084246079092
0.142698332661117
0.138729222459833
0.141653919015096
0.139593919147219
0.137810954139213
0.140423585497321
0.141695109909829
0.138928344437922
0.13855847050395
0.13725813068223
0.137204729976007
0.136393321302675
0.136535840899934
0.136225332959035
0.13610405209956
0.134219449936826
0.13484177725119
0.134203018468966
0.133774763861308
0.134701616740909
0.132183334550624
0.131145207208624
0.133102658356784
0.131694562268031
0.132805595692281
0.129352810857725
0.132156101442413
0.132386433779348
0.131183819894073
0.128549510443894
0.129475318991785
0.129468871241431
0.131220799321159
0.126787684559605
0.127001455923165
0.126570831224055
0.126537197684964
0.122358337092959
0.122691834874761
0.121542326791061
0.121992031325054
0.123337460376078
0.119889613662217
0.119047893179875
0.121023681854619
0.117174364954053
0.117503725606893
0.117784751437072
0.117479787130792
0.118828356369484
0.117596459186305
0.116497955818521
0.117539703526755
0.114741505519553
0.116651728389218
0.11623513634254
0.115988130867519
0.115320762235454
0.116643519797846
0.113708155238816
0.112143953910922
0.112241632957577
0.112147522967732
0.109265525376252
0.110563026685541
0.108506146288485
0.107699324527379
0.10502264954535
0.1096489186899
0.105399628320479
0.107846334143039
0.10818968911738
0.109627266328725
0.112010119888505
0.115372108460909
0.119533213653775
0.124078842173798
0.127818514758869
0.132646529718089
0.139613724992578
0.143506313996971
0.149040982447211
0.158340291838974
0.164463931422666
0.17063843751774
0.177289661672476
0.182641147776632
0.190047574961682
0.196636088285253
0.203435211946108
0.209704881632626
0.215287244088346
0.224168107203529
0.228449239435733
0.236560647712516
0.24101255510653
0.248224706869594
0.250726725854049
0.259390218834471
0.260547492481562
0.265494228261398
0.270787165161237
0.273190999989996
0.275820390050334
0.280126224666529
0.282008938588662
0.286211518124307
0.282764628012412
0.284819905306958
0.28581597024399
0.285990129303684
0.287196380691236
0.288527589051995
0.286732050014369
0.286842660956463
0.283140868297888
0.28752185181952
0.286606367038038
0.287283764108589
0.285473135336446
0.284406286830202
0.288269657782549
0.292135068680361
0.290987287625542
0.293401203881689
0.294913033653035
0.298651956732302
0.298608767575456
0.304432775509885
0.303723040444894
0.308729964875871
0.310213824743488
0.318469642722737
0.321826340612615
0.325133548508291
0.325691145718842
0.336099659579537
0.338549683398491
0.343987361547442
0.347672589403857
0.352355394327903
0.352554374796101
0.353196031963381
0.356911473279576
0.362964237587892
0.361432161211914
0.36240071743271
0.361067848305062
0.360438892415796
0.357792782101316
0.359804621140775
0.359511185691667
0.359411863153225
0.357815635244933
0.356597889144681
0.360088728090888
0.369238107343805
0.367850823542567
0.374668113219167
0.378489995492977
0.383335893709993
0.392210880289348
0.397838655436018
0.399564101755849
0.412384662731601
0.420409572238339
0.423958678211621
0.427320324846339
0.438394728079078
0.443576285289437
0.458813335710341
0.460291337554913
0.467351968515149
0.46945250747541
0.483629798472504
0.492280302010945
0.498205329191025
0.504309561456596
0.52108752139504
0.525212881924
0.535425190556054
0.541742020092202
0.558320552020629
0.559553739140647
0.570584529279241
0.575975624222395
0.588272249082657
0.585029892301361
0.590072808433328
0.591309424401953
0.609736191316009
0.599598392667231
0.602434498243615
0.603175211577286
0.600464655987375
0.597262303104865
0.600143897573314
0.590108203793014
0.585178023861232
0.585349142004369
0.582019705310578
0.58188959318796
0.576924095294648
0.571152152573301
0.578944865865631
0.574115870183868
0.573958305398212
0.571342259734819
0.56879899427222
0.577966721549517
0.583627484466952
0.588108680467628
0.580479472208279
0.594806626602081
0.60003146230108
0.601803341769157
0.611145062427037
0.611277310026859
0.609372203214218
0.618277994100825
0.637067461518334
0.627283875431219
0.632784769446273
0.629685649513388
0.639791142132129
0.628143196966401
0.652998338858119
0.641506948507314
0.643772976572661
0.635931871694115
0.635658325442102
0.638732807030691
0.623112882276569
0.628150813974943
0.629384448096944
0.627659384423332
0.627021459775301
0.62455936103101
0.626971486674723
0.613123467127913
0.617044028380778
0.604979606484387
0.601393482568221
0.593816742752216
0.590894709744532
0.575059967386695
0.576355629666111
0.565222504380555
0.553132233919933
0.541989210970728
0.533767352362933
0.514704460976637
0.502216067478405
0.481813061132328
0.464179504984178
0.444746829938468
0.431470991667641
0.409427924681372
0.387545877720254
0.374612763952512
0.360858680843195
0.347040380211085
0.331312107203865
0.322377982166297
0.31011585307092
0.304259530540714
0.293325536474674
0.295167869487539
0.279973172434509
0.279163008164493
0.273175034602085
0.275843362418905
0.265416884473598
0.270519910821578
0.259473192373013
0.259702595341325
0.252087423545064
0.251930390641871
0.24235024513304
0.244154917122044
0.231900255375855
0.230592610710658
0.220591328228701
0.214895657574086
0.213912901969087
0.201001398328261
0.194249217759841
0.186590062769432
0.178585537146686
0.169809379232082
0.161602409932433
0.155969931951541
0.147457903822191
0.140693163707592
0.134388894741664
0.130903586400195
0.123051657491088
0.114334777818774
0.108970607773447
0.105317071665202
0.0992835074983483
0.0960925688060599
0.0921071167605295
0.0902766689287881
0.0871300833649572
0.0817782940661051
0.0797219081311986
0.0775864782273229
0.0770113007800372
0.0765676783157857
0.0698496348438804
0.0697704484784357
0.0695698695786973
0.0706616198002879
0.0664707952573465
0.0726513823304181
0.0693105709663435
0.0706681633404356
0.0698252633194358
0.0706780272128169
0.0721219399466441
0.0722277766943881
0.0735532865390485
0.0752136112252128
0.0746629141633751
0.0737942314331187
0.0725686267693583
0.0733080882363131
0.0754282152682605
0.0743954788875233
0.0712430588367275
0.0725281096315163
0.0705709487669525
0.0738942969279988
0.0709555858999818
0.0700964805155707
0.072213468675199
0.0689791515391163
0.069749835145239
0.0696671698261157
0.0718161955314812
0.0716776323202774
0.075023704222243
0.0728754826351596
0.0749000851416448
0.0731774443547896
0.0736404706592393
0.07452153059643
0.0776907352305457
0.0761413775883628
0.0759250766504912
0.0790474195903141
0.0788657771219797
0.079390108862694
0.0820153366468185
0.0830455837654245
0.0813054820771908
0.0827070796022257
0.0828723453721059
0.082827996800203
0.0818587047637744
0.0807533508844303
0.0785837272277913
0.0885125325433199
0.0823655044717642
0.0830729865518065
0.0873462236955526
0.0842862344144733
0.0846059808884656
0.0885882625705827
0.0889764107837018
0.0907400436184986
0.0950465097165775
0.0932315379884728
0.09833527367343
0.0957437438220001
0.099669076367908
0.107467125329884
0.111187343467066
0.111859343590275
0.114606018485255
0.112212897217137
0.115580671532541
0.115904652139844
0.109397649509795
0.110659871990331
0.111048981824885
0.115972263265087
0.107037825004118
0.107394302977835
0.108811851061924
0.105340782826338
0.0991741531666277
0.100941083853839
0.0979874585661113
0.0990345034866111
0.0978392281878891
0.0954225192976259
0.0978980450736449
0.100314986866052
0.0973055557855938
0.0977268704893868
0.0957141286828655
0.100271952402379
0.0929459304912608
0.0984842345942891
0.0951185256276912
0.0951976966200887
0.0900713870285867
0.0935335229415558
0.0854607701758582
0.0907966054985576
0.0914053339844687
0.0861585118239805
0.083446302457869
0.0875383416821214
0.0811947199631058
0.0866341269005057
0.0803852485163121
0.0885025723887621
0.0850688273826247
0.0885469494143597
0.0775178640709753
0.0791758000288646
0.0759766958242991
0.0804201417393857
0.0770423034329365
0.0795495646393119
0.0760345846988019
0.0810367928833911
0.0770547595563142
0.0748548983965213
0.0744434189492298
0.0818443752888185
0.0710407237587424
0.0779928350317633
0.0640179381296281
0.0733553212560442
0.0739066287595622
0.0731245235226933
0.0713376063171247
0.0711994899722198
0.0645578235809849
0.0702011239705564
0.0681894089998897
0.0700724631700046
0.0660912570582298
0.0719254586762253
0.0626667810377315
0.0640268495291696
0.0643398326138078
0.0675689858867325
0.0616250229223463
0.0636924453250882
0.0614303821017251
0.0614606772662792
0.0642920899061655
0.0672533811905595
0.0671717480101501
0.0663337547658782
0.0634442897135309
0.0670585069283973
0.0605196803629076
0.0735397291866176
0.0680303486606454
0.0669060985763609
0.0736522748665407
0.0685234705163928
0.0696419684091551
0.0786579084383297
0.0724237429325894
0.0837502742121709
0.0737468529158557
0.078818819333353
0.0679252536784745
0.0805946040197592
0.0753360414698184
0.0829236647065582
0.0742780662535008
0.0915908621931705
0.076811498767819
0.0827314905376886
0.0886420345685371
0.0887915290359928
0.0869393194721805
0.0947755913860846
0.0933660684731193
0.105028256508568
0.106690782729136
0.109799624807678
0.109181327230021
0.127908509199931
0.12165149610004
0.127683737526171
0.121752427299144
0.130942650846002
0.126136217862343
0.140776507599815
0.132599566463002
0.139217627010195
0.14072185689389
0.147298281152489
0.138134988154007
0.137072688856197
0.123102234110176
0.133801256261722
0.133299304501405
0.138194648145369
0.134210491725385
0.139841086589009
0.120161944870598
0.130939317731609
0.128733883121393
0.126690956260411
0.125175440618914
0.128350939281743
0.115922578718092
0.129943848761468
0.12736623781736
0.129673485823778
0.122911004606545
0.122684763295069
0.119199694505575
0.117874480946359
0.112646186570379
0.122406451766377
0.109040607830947
0.115549615727214
0.0908228404005147
0.119087671419383
0.108299846814006
0.0974293500463799
0.096390248880698
0.111064279265907
0.120320333369421
0.121176951301054
0.100009406355557
0.103662950144962
0.104904599170924
0.112026627413192
0.0955802757962683
0.109652457758191
0.104230636107805
0.122047798764481
0.0970868182811952
0.108906375757277
0.107251679928439
0.116418916774762
0.118398581990333
0.107505809484972
0.104280600474597
0.1100054739389
0.111861409222494
0.118679873187941
0.113632525418153
0.0990220565046116
0.105999144391212
0.120542652622945
0.119655940334589
0.136125552846406
0.10883219022698
0.123971784939544
0.114597351587016
0.129530788311762
0.107031204304197
0.102889190886879
0.0742211911315495
0.142319205547381
0.109991285608225
0.159965419513412
0.143762942098069
0.142745649962747
0.112668167146618
0.13340612476533
0.13086722542038
0.14764639897944
0.163963793949291
0.157316610904699
0.140622777196512
0.181977612690062
0.170287540952303
0.159405208732373
0.142349331803807
0.181417079571812
0.14353220275706
0.17139270437535
0.172565365244568
0.202737045857339
0.157039849905103
0.15214037306662
0.159353477726122
0.167777962369658
0.162661549642049
0.17489682291217
0.170848465784456
0.163398934737347
0.164634185046467
0.154291400926791
0.104961650861348
0.169630073920396
0.122320973534739
0.147189597988848
0.15099664638125
0.152952758432599
0.156736189578851
0.163681489921706
0.112059053305018
0.167496978675365
0.120045052620842
0.197324912425063
0.128480849859877
0.179502561032137
0.141513793610558
0.183674969330745
0.0996542823173051
0.280423581630799
0.216959371738824
0.186392234729793
0.177305664531196
0.177555592078093
0.052043490799315
0.12063100425944
0.0909951411571796
0.185023150958641
0.185434117413535
0.0263199404539455
0.158987350786571
0.14798718774783
0.0915025127951465
0.166647219116011
0.0668616901609802
0.170181752878374
0.222307306859855
0.2122416569789
0.0809704160993972
0.221850203439057
0.141798391323644
0.208534821081441
0.0240115424545131
0.287300605820755
0.120016751476656
0.171578028753223
0.305029251908454
0.0942530547514578
0.115158613835936
