3596
4000.36533379555
650.420452594757
1
2
2
0.0750103094074627
0.0745452314071471
0.0737205567494142
0.076449977942454
0.0722303994080059
0.0742262086171518
0.0739906556593606
0.0735849364247091
0.0647754562916486
0.0743860329989466
0.0715627367485725
0.0684185314161133
0.0654115161757412
0.0697606451945136
0.068371368169084
0.0705909717305407
0.0685749935743176
0.070649928679611
0.0700564366445479
0.0740717612669046
0.0681275246083464
0.074541219055597
0.0712688496754806
0.0669970266638947
0.0721429445315208
0.0796277909506638
0.0670757002580077
0.0730442975869352
0.0816796907374198
0.0814628202158453
0.0693763498896716
0.0776309043605842
0.0785407134157352
0.0716082185803596
0.0634148551446887
0.0744619689035129
0.0693502535695689
0.0690921561469319
0.06473554946994
0.0818616794891498
0.0837064702680704
0.0734551624181049
0.0686142307081562
0.0773212136483831
0.0718473831576312
0.0758226844187573
0.0708089272033533
0.0792053309957738
0.0752743860186623
0.0701786682842717
0.0694539396023893
0.077973488432715
0.0835425273216579
0.0867052483927802
0.0847574805569151
0.0919112589736097
0.0724414490318266
0.0737583101301518
0.0699253548368432
0.0770763560076475
0.0938284210877992
0.0997233856723101
0.0767101716042075
0.070827494348532
0.0691507279966698
0.077599785242638
0.0675189835515933
0.0735732608150794
0.0719441787411569
0.0771968631336276
0.0735241551174515
0.0986824817692366
0.0899063171066946
0.0802074817418176
0.0828933957528423
0.0763479725061289
0.0719641006434072
0.0738705769180865
0.066959295611954
0.0897742197760607
0.0888432029971322
0.0815230198234843
0.0702716248479144
0.0679222580870151
0.0832469117509212
0.0940034177287271
0.0668043079291358
0.0969441545535331
0.112101791130942
0.0884824741200452
0.0670744227952314
0.0680899741897187
0.0659391157062775
0.0657852228044887
0.0711124700847379
0.0718919641204579
0.0666477368835906
0.0745465534060758
0.0635391874950694
0.0757605769492737
0.0833747245453425
0.11286836312344
0.113744601085235
0.0906382008273025
0.117063267888592
0.0916404378662761
0.0896308721055678
0.131731903763386
0.0807566097835191
0.0732924949566328
0.0695327154385343
0.0765710006525721
0.0765485832303284
0.0835170168644083
0.0637674072173602
0.104322945743156
0.105627786163271
0.0794671803546777
0.0696196825578339
0.0685958699628787
0.0677445837575061
0.114399218183987
0.115622278563983
0.0848798298089009
0.0910585426676073
0.0825460420701859
0.076996065731245
0.130917682619007
0.0956835701620376
0.0750740788641063
0.0690217878601395
0.0697968098602436
0.0622058813419326
0.0921445214048005
0.121871101329846
0.0858139645273555
0.0721981723433364
0.0816967565758283
0.120299045720229
0.137969497961012
0.0907465622417346
0.0802943107818034
0.0632740653137899
0.104409574446161
0.115705950929163
0.088916691049945
0.0803424865987002
0.105949588324146
0.0798647534853238
0.0704560334562226
0.0605146249671926
0.0787069108339204
0.0943604055965818
0.0890384394140975
0.0672104765516607
0.141607589335168
0.145066868888444
0.154216523376579
0.116655727192197
0.0774945274328591
0.0822995975950921
0.0751332263265623
0.0611500907816219
0.0688526591365902
0.0621021887842326
0.0684505209774805
0.0954012839788559
0.102261410495466
0.0714088067358242
0.0936605870802221
0.111704297874179
0.0899249941967898
0.0882535937555045
0.142428478907334
0.0851364519781734
0.0875964323225549
0.108087774281176
0.0884993806531463
0.0712157747884805
0.0926274041979903
0.0901840105017667
0.0816802528000524
0.0668848464860043
0.074719028498648
0.0822836956152471
0.0932154546437873
0.0759160911367205
0.0752755355423566
0.0708757409820871
0.0788703385472242
0.111553332928152
0.15218549374964
0.105476428696035
0.0864149273331624
0.0684393643049369
0.0624557286990626
0.106052643915689
0.110999307452824
0.0769642928494407
0.0757086409179926
0.0651687589618353
0.070530857713439
0.058133255077206
0.0626017036973709
0.0599379750670584
0.0837932470300976
0.117464907412951
0.0944241667307508
0.0637165631522304
0.0711671187709834
0.0739128925059838
0.0975801570875899
0.131128629519413
0.103792110440732
0.070943761101877
0.0758644347264151
0.0756105389647994
0.103463309260797
0.0863571532100904
0.072275360892253
0.066212562271685
0.0707488612244753
0.0607193108839093
0.0675104905099115
0.0651164024079409
0.0685036987438263
0.0659676078054419
0.074688876432077
0.0643812345607923
0.0784188287302668
0.0737585940715205
0.0732409271645483
0.072100887393459
0.0675576894540269
0.0559831631395503
0.099572280361275
0.0927848399702141
0.0780675225840029
0.0665279953408321
0.065301289513766
0.0600666658360028
0.0653557082218964
0.0608542575868765
0.0672320924479691
0.0590848661626973
0.0913839957524318
0.0999471577261281
0.0768347778067541
0.0588802943065358
0.065935736143583
0.0974196000505815
0.0950840484204488
0.069481092384273
0.0701543095510742
0.066357417954707
0.0623121553555233
0.0779736474250959
0.122068218927772
0.0784532585619886
0.0771159419046618
0.0882856330041933
0.0848706795489953
0.0703816386173119
0.0755669100075955
0.0835491714623297
0.149929283091653
0.104738503704522
0.116134676196532
0.124123252358921
0.100103112501413
0.0863879748239321
0.0752175292694508
0.0855716311198797
0.203958894918865
0.120132548079906
0.0781063703757107
0.0830337902823872
0.0928876851995706
0.0686095409895532
0.0908141408305553
0.0922559503566298
0.124515387888816
0.117621859835662
0.174448919909322
0.11588868396522
0.0881820802804137
0.115136425946032
0.103350131871121
0.0737123475351911
0.0704390676423499
0.0635796726119236
0.072661204273859
0.091098022913517
0.0907935409483113
0.0847497179819138
0.0804491580991342
0.089005056012565
0.106645838711254
0.0777676836545489
0.0709615886546511
0.0754236229549238
0.086747758575748
0.0642348088522331
0.0641694131485743
0.0731547545868223
0.0830168690802577
0.0684755115586078
0.106054156277945
0.131791493224972
0.0957142197502988
0.0867674222932424
0.104690761797619
0.0719030723276983
0.068827218841171
0.0631185446824938
0.0717152094229882
0.0631848947422446
0.0556816979527914
0.0706496246369577
0.10401942658759
0.0704057135128765
0.076454977585553
0.0649728591359291
0.070923449818957
0.0648697057314588
0.0715322219959559
0.0662271768022164
0.07818523782366
0.0635262012252626
0.0714879881515375
0.104598880951855
0.1016140069398
0.0769861274383929
0.138810646287917
0.0976479701116481
0.0803250612431903
0.0586783846840336
0.0753722951563489
0.0669350409504554
0.0670259578858125
0.0610505202473323
0.066523646247341
0.073353252908391
0.088976753984341
0.0680017997968479
0.0921329997169933
0.0977048684997163
0.179927793023905
0.144139371102903
0.102836004171367
0.0685919809040884
0.0685758104657989
0.122580916394453
0.114715706498158
0.117336739545512
0.105626870740943
0.0757668499611161
0.0811125323404584
0.0624952934026276
0.0685676689027064
0.059765698997885
0.0739316772449196
0.0618196416982893
0.0768819067969287
0.0705060049465276
0.0781027557640156
0.0605609319807288
0.101885776087996
0.113948903049414
0.0909129899940356
0.0753268839235759
0.0801810704118803
0.0678658703979511
0.134322513740854
0.115210164020569
0.165018602537788
0.113827325718042
0.16135533697704
0.123329031355773
0.102286867692665
0.0788635790727006
0.0827521277324995
0.0825665729110562
0.0933224037599379
0.0779079939427621
0.0886082180956016
0.075830629045499
0.0882773980476552
0.071804444203938
0.0851522908952542
0.0708301664630972
0.102721750149437
0.111101791284435
0.0944918935123368
0.0876490225886037
0.0931961469130321
0.117450773730296
0.201733505043724
0.13567082362089
0.104268258726214
0.104194426546991
0.0903575433638439
0.089519114024783
0.0919562487549756
0.0902013558814447
0.105689314266533
0.104894346558887
0.151127531985612
0.112893815936758
0.142936202625616
0.114578352174308
0.110776501999782
0.130667280464441
0.112307373298789
0.134159982555245
0.149038963255353
0.101788059780389
0.105969564016034
0.153081863124395
0.132290332973036
0.138177458821611
0.136190877701839
0.094376157355438
0.107203854998261
0.109454750854761
0.119188891206654
0.103612466268586
0.137619103926766
0.112506841264188
0.129782684985111
0.117603138217853
0.121629947867308
0.11407678578867
0.161573053455488
0.121985279159117
0.146325717704264
0.12814005884601
0.122912948654593
0.117100849175612
0.122146616580249
0.168947324600812
0.150838316283471
0.184483351659132
0.170349555126254
0.130568097517391
0.143413181120641
0.132171032456328
0.147707524564118
0.12915037092113
0.148506488753342
0.142412058506433
0.145110492162463
0.134965729209802
0.163548434285511
0.141105715570524
0.153311353903992
0.14392805601808
0.153411114576866
0.139001024503721
0.166827424461175
0.153134223742042
0.148105663380651
0.209267374416165
0.196111923001699
0.214598531004415
0.216365708535681
0.165664564132994
0.179762111549961
0.16164225476863
0.173689992560434
0.165749036524381
0.206307666727947
0.163192442422779
0.186652331530885
0.169148019474418
0.196246263007361
0.170720548902719
0.193481244663783
0.181215437600204
0.20376261352734
0.188978300692871
0.204834660126464
0.189330001365677
0.196991690558003
0.205083304521571
0.234818693774758
0.193596238727145
0.225212507961026
0.197207604290538
0.22095576024558
0.19395800614502
0.209733275911423
0.209376703431654
0.231383440729204
0.195190297700129
0.212173440184259
0.199381437012027
0.246285888160045
0.216694594518662
0.235854898129115
0.213995868143415
0.231960465688502
0.229038292262481
0.24782834808226
0.231604737870657
0.260563714143093
0.236107603507175
0.263108843537181
0.237203574804614
0.250720709049137
0.255041272446178
0.266909682384184
0.229813467934796
0.27205686325866
0.252235988296705
0.27003982854083
0.234383723381653
0.271161834032759
0.248120843472996
0.285314695594448
0.253827064778138
0.280554362435478
0.252569084662722
0.294828166769351
0.27799343726709
0.301440364751749
0.272016154499567
0.291134962000331
0.284671671813206
0.303954733462044
0.275543846231984
0.313280182584282
0.277490475275761
0.323544215772933
0.28953403266529
0.300279894412495
0.29255513846179
0.315099649729484
0.298322622028875
0.327488399175899
0.310288005229285
0.326744941890709
0.312283924205768
0.330634829724518
0.31142775492147
0.332311027955098
0.324329772560197
0.332973599435412
0.328124021631851
0.342668473793118
0.326216648580563
0.35828171895779
0.336607127814495
0.362250154307593
0.339308165984659
0.364275540025084
0.331963004466769
0.362258873042579
0.33206529240859
0.354917564884299
0.353245006892081
0.380920034396976
0.352606820026047
0.373786434596021
0.353271476608859
0.383483453914285
0.357543513453902
0.387245383937672
0.35548452485973
0.390821113566287
0.346699098222942
0.401996662966425
0.374937873181524
0.402883049813234
0.37498358557381
0.416107218164408
0.385081096610259
0.405137865079151
0.388121918282466
0.399770081870982
0.377471632875375
0.411889002876105
0.395250994868851
0.420668917994399
0.392709972822023
0.421804197037692
0.405269275853881
0.422331814098348
0.396903390548989
0.438982378154414
0.39886932022196
0.436908438721237
0.423345464875334
0.454086510376136
0.419497039183932
0.441313881231201
0.404839671063005
0.457859356011668
0.401044309013526
0.454128284319697
0.409899963477832
0.44450130850678
0.421197883653707
0.451497016599108
0.421596773680434
0.447418184405896
0.424605286893181
0.475094428308577
0.43926079206375
0.4647796001689
0.440233514252913
0.471231970400595
0.440707705292699
0.475558722247154
0.433083722882224
0.475994268808495
0.439585418924042
0.476214948406797
0.4445853963893
0.483550820230333
0.453157145967145
0.489385829313759
0.453653257551953
0.489955952445682
0.451737624950164
0.478116653870068
0.463870137154016
0.494953247062392
0.463745931244418
0.486240242246579
0.472825550746879
0.490044934054674
0.45732762168124
0.485629595466427
0.487646450174956
0.512104000025827
0.488848363483662
0.486407801925783
0.478237400195415
0.508226488672725
0.468337989046397
0.498019711223814
0.496050077313151
0.508087953706127
0.477442447437007
0.501574249785557
0.484775712264132
0.532810943904495
0.479561719676307
0.524828471757245
0.488086993081854
0.508065845358514
0.491497441812447
0.519297704580539
0.509560799597029
0.52225411471315
0.500951237179579
0.540901691831349
0.496600443920864
0.540557149332239
0.490278045619179
0.527886435084354
0.482362633074677
0.535195040962576
0.500648299292524
0.536367123920586
0.511689211785198
0.525680783392759
0.517631645565429
0.542090247606673
0.517618458964785
0.551620135507942
0.517213192879879
0.521082854267415
0.50477476884087
0.531824091316512
0.514750263379924
0.528183711960686
0.506445884916848
0.547409927114967
0.519861341118566
0.530070866286167
0.501724692996205
0.535601236311912
0.50804619488845
0.551164376413456
0.507725381305681
0.553866967916635
0.530060823172968
0.543578893600924
0.515438472828095
0.552374565372765
0.51647182333659
0.53559200226777
0.500264040688698
0.526966090726016
0.521742592567447
0.550917115852941
0.530341559752125
0.545030114483711
0.534975720517848
0.532842477960782
0.513327198127233
0.536925900546696
0.509722498511539
0.540265060787851
0.523007988051224
0.539042099448251
0.504432315011343
0.534512091728782
0.517116188108313
0.540555514413085
0.502460318588851
0.5426146124515
0.516107301924614
0.552294090721032
0.510898957659537
0.534980120917112
0.507624503801695
0.528715111839526
0.526328131402676
0.544370562290778
0.501033117626542
0.539985470502983
0.516891607686214
0.543490746209257
0.501923793432555
0.538929442759641
0.510057031400692
0.530430868196133
0.513182618435219
0.527864081134823
0.503587758264414
0.528158843446808
0.505431597896253
0.530946747315492
0.493482993036202
0.53463447807975
0.496154953668814
0.534115103059811
0.479587470515783
0.528180173617731
0.495671494552488
0.504871932467332
0.491930339904344
0.520333853029567
0.499588854301595
0.522366133656616
0.498197197984155
0.51415984610299
0.490933394599131
0.512423332059035
0.489511818760604
0.516472020595495
0.502367159768204
0.513608930521351
0.48167532056512
0.521848499121325
0.478834901994387
0.493917390313386
0.491840556692091
0.506446618010955
0.476111517864805
0.504342295238889
0.479545100266314
0.490079050295472
0.487259116476519
0.491510335696953
0.484599043989478
0.486656975934458
0.482854664783995
0.490651659658944
0.462932620834482
0.493548563499567
0.476632759773283
0.490018808606186
0.473305563850697
0.477791780049732
0.46420814070551
0.484907910054223
0.464812529945849
0.477366348993878
0.456193683166225
0.487684273603154
0.465138083733997
0.483444550615821
0.460180488778702
0.47123003452802
0.451845673422915
0.476060868939021
0.461939719278095
0.469213349398619
0.446317647226885
0.457345431075346
0.44827569822284
0.462614983216336
0.449591217392796
0.4635787064257
0.436385962162916
0.468964700239136
0.442539243691575
0.446390004915524
0.446517553125467
0.44379863882687
0.43081807916208
0.450744196864406
0.42574695226771
0.43368877917552
0.429290100535322
0.448583744323569
0.419017824229989
0.43037978247631
0.429034243499523
0.44208649705538
0.412841543479426
0.427460130479481
0.410576927548983
0.427449303526785
0.39763808796106
0.4275024712197
0.412634635603264
0.423114810010372
0.403965149356528
0.438183010006027
0.392447147223312
0.414305734678306
0.397194751563512
0.425384775015674
0.409274526454999
0.402661737528683
0.391970103954216
0.410369088042153
0.392224617950627
0.405099224066783
0.381806867004576
0.40093437558009
0.388117992385678
0.398939637312114
0.381275181268054
0.39635818037231
0.374438437294354
0.38997923266081
0.36944355225442
0.386799684645886
0.373651677944989
0.385845456491101
0.369965549741154
0.383473194567831
0.366289227777223
0.379094618223828
0.356439412078018
0.37733919253437
0.360095361356913
0.371131561603077
0.354619093670277
0.367441577898683
0.354272016610351
0.36057922624147
0.347178108429904
0.352566060938102
0.35290890059914
0.365908114019192
0.349728983931834
0.350362349882315
0.33452690561143
0.357239661057225
0.336583316752495
0.351019712515433
0.33242055568044
0.338689674339298
0.324925010391488
0.340127193032884
0.325290817713808
0.326550688918972
0.323845467762218
0.335445763389895
0.317432698061759
0.331040295865195
0.319774271758232
0.328947973282511
0.304338511888904
0.321875944975754
0.310791847354532
0.316892936018604
0.310652920397039
0.317755786208127
0.30495710116084
0.317877892558819
0.300054180791359
0.306251739780696
0.300775156990978
0.307646901267994
0.292196713841662
0.300396173835297
0.292868095102265
0.297965425175108
0.287262944192488
0.295736519267883
0.28019575831852
0.294245415968712
0.277335660221709
0.289764163770215
0.277064098315543
0.284763846184619
0.267325981599997
0.282077152893078
0.270891217033953
0.274781229915895
0.26489435445512
0.282257695218532
0.266831292492155
0.273131315552159
0.266497944706375
0.272483103351836
0.259329133977939
0.27195725788713
0.257323172512009
0.261210409994504
0.248667503594693
0.260505106594219
0.255236845355486
0.25400273850371
0.251895849177504
0.255324303832926
0.238801432102228
0.257270984645877
0.240867889901155
0.246892642970975
0.239568306266154
0.243317955629255
0.235460434114485
0.24484337153903
0.230905882665225
0.235823993285985
0.236729565205511
0.24024950758065
0.230262470243959
0.235555010059219
0.220612811060313
0.229149564363603
0.223418815685124
0.23067560938806
0.216790469245737
0.229797764362832
0.216895235723557
0.223672359410698
0.214364837194667
0.218470064816636
0.220970628719593
0.222162792507233
0.215588028160318
0.222171345589653
0.210049036313119
0.219187629894171
0.209413169465963
0.207630889469226
0.198764845358738
0.207780975571995
0.197368554638873
0.211008158285377
0.19719300200673
0.194135878455296
0.194115262579373
0.201200803501297
0.192952205278994
0.203278289702059
0.197244871611653
0.19926377600824
0.186986647603975
0.203026894887688
0.193811232819268
0.193409387473888
0.188072218723961
0.187836986113401
0.183421020213655
0.189389478541585
0.179147709132982
0.187427509715161
0.181273003862792
0.181235040667828
0.176862088322333
0.183646532104235
0.178496637378737
0.179048580472601
0.172404928627371
0.177505599525421
0.170475592644046
0.180209286970042
0.172492505053696
0.180452786621713
0.173002831466149
0.171906119744031
0.167065472301314
0.175700515729263
0.162262307602117
0.174061007087677
0.162407668490837
0.171029907847449
0.16177637969207
0.165134082622695
0.166597542246181
0.168909988064453
0.160466171085069
0.161650406299971
0.157598818681146
0.163013780827149
0.159060182387164
0.161596482540612
0.153100744497627
0.162239495574106
0.15044677590175
0.158264369077704
0.150420667649186
0.15634407268295
0.149425053871832
0.148843748736211
0.142657539262943
0.150012782972484
0.143397198946983
0.150108799626484
0.149177670007952
0.149723576143696
0.143865103364017
0.146354751011485
0.13779502907048
0.146347875509473
0.1397475901598
0.143537924736408
0.13402765209671
0.145181210137647
0.13855717009987
0.138209225128456
0.135036649228068
0.13865936968349
0.138802815576373
0.14410819755423
0.131574460742083
0.131784407055831
0.133137327749156
0.140255829100862
0.130018916900769
0.135144606040845
0.128559566429452
0.132253830109459
0.127136638215374
0.131037282077991
0.123870194963742
0.134223619508889
0.126752339810822
0.133246465203181
0.125370325254627
0.127469046192359
0.118224834327851
0.127998051355175
0.124064218001962
0.123255803783969
0.118143519428988
0.1208277911063
0.119840326684638
0.125898002327529
0.117631633904079
0.127243656518819
0.122163455103748
0.118843241860164
0.117645603600379
0.120927360927496
0.116670554929208
0.120595782232423
0.121147232329865
0.122838849951233
0.120263908493938
0.124127737277285
0.118648438854762
0.118045665848547
0.113283538844789
0.118103137722008
0.119659679326781
0.121237282380769
0.1159274992413
0.122112968199319
0.115958169729319
0.121907840661332
0.116611107746023
0.120308018541425
0.116050334256126
0.126780066784301
0.120190346690389
0.122844407194484
0.121325004008929
0.124557419787245
0.114597482406046
0.126123828810383
0.12043074075574
0.124536939854097
0.119799477397103
0.124013597889464
0.122653554238135
0.127684785505555
0.120686980763823
0.126930898702481
0.125952178513725
0.130765031129734
0.127623885839042
0.132833360143927
0.126202314670823
0.135210045081877
0.128907878675564
0.13203755133645
0.133234443787088
0.140103909498567
0.133298448063605
0.141061171484508
0.136541142918566
0.136891434543689
0.135534241593303
0.142466007652379
0.138217025685784
0.147681154234341
0.14147349116602
0.144882041301768
0.14206734169461
0.146029850816414
0.145289162016309
0.147607531037308
0.147542691889519
0.154904481664562
0.152654066794869
0.157480414505713
0.147835830001202
0.156760583964867
0.158065041696725
0.161540471934324
0.154550866505689
0.164401303692894
0.165509746154235
0.171404802376238
0.166650933757524
0.1746071722011
0.168769568190843
0.169350294346035
0.170463196491394
0.17995194807525
0.171688071379687
0.177644615172117
0.178123925523879
0.179041985603328
0.16924035351818
0.180445937194501
0.17553482764429
0.178105234502841
0.182277064609773
0.186450910803256
0.176030334708192
0.188448207020926
0.170441659172099
0.17613815563973
0.180276537450906
0.180369779254269
0.17614149480144
0.176545636047603
0.174266991341506
0.174508657999941
0.168610196757728
0.177411558076006
0.170697232340199
0.174295824438746
0.172475709888902
0.172541970753753
0.167203946158844
0.177647048224456
0.170808582958398
0.173273109331537
0.171136932508182
0.176980901119804
0.17135638802468
0.172153997554189
0.169331812173392
0.178101862212898
0.170656722793759
0.171391251865172
0.17365772829934
0.174150888469484
0.173956467153888
0.181234931612483
0.172153258036824
0.179656672442612
0.175615311714735
0.176703138183512
0.171371448582953
0.168928219315624
0.168419843247321
0.176848299214344
0.171666476364634
0.173264362291523
0.16706648062503
0.172143656329457
0.167718632253989
0.173475524273826
0.168911520259156
0.169845837701326
0.165605592324618
0.167305267042583
0.163708708576652
0.164976062296981
0.164060088503882
0.170473322858639
0.162643127147995
0.163255679992657
0.159559362168507
0.165510868002365
0.159215717366811
0.160427182937424
0.155975410372999
0.155021225558057
0.149966476908407
0.153891221647253
0.14943245466388
0.153538776041813
0.145611172333106
0.147041803833162
0.146432994077197
0.145865034731876
0.141614678928552
0.141741751766154
0.142115800165671
0.148025861834944
0.139745937188025
0.140947526642599
0.138575102982792
0.139610386371731
0.130369601701354
0.137154309228762
0.134017488319562
0.132059478058818
0.129665407567617
0.133018954468828
0.125018808594117
0.128737439244429
0.123634549686897
0.125907428306926
0.123174971805609
0.124495416339342
0.123821583490216
0.12154153624291
0.115362855649724
0.122573187601429
0.120278528792566
0.118476478061372
0.113962105183879
0.118228153660173
0.117124792048805
0.115680654950966
0.109598162489683
0.117479687080922
0.113288213920307
0.116119738858337
0.112331402883827
0.114327693139247
0.111679535496671
0.110693130825624
0.110444778022732
0.114353607043263
0.107257116246738
0.110409085682603
0.108116283608964
0.106954810309698
0.10715898913864
0.10996344289477
0.107308060882399
0.109049624314574
0.106465442617645
0.107585183724631
0.103599214641343
0.102941329700286
0.10285074897693
0.107002326478278
0.102348980241706
0.100553698956215
0.0994101798287159
0.102897914694848
0.104129435078838
0.100419221968605
0.0991576107775443
0.102958991739553
0.101294920518845
0.100255919118048
0.0991742551447953
0.10201990221892
0.0963917193356237
0.0976420639293758
0.0973226503244945
0.0996427628792795
0.0958461498583608
0.0985690866329438
0.0932043758812983
0.0959742094644788
0.0941769927500136
0.0961710331271161
0.0969862403942503
0.0952351159198226
0.0920743351817635
0.094493014832904
0.0918434682304594
0.08955291196187
0.0919673556259156
0.0971204724979633
0.0923817720947496
0.0962381034830574
0.0952632351582534
0.0919930203008708
0.0934217547878597
0.0932765977791908
0.0893627498704541
0.0909774664199272
0.0915692961249159
0.0950640023157183
0.0901147887028887
0.0945757352141657
0.0873002273431019
0.0862494840157327
0.0890247333048985
0.0922055404210814
0.0920220738018371
0.0917278767351294
0.0865788840189306
0.0901502430570749
0.0859680999349183
0.0886117933828997
0.0905088006289454
0.090008982218426
0.0843676422691342
0.0877944646583859
0.0845270416204735
0.0848033682648009
0.0877100080364978
0.0895790243388908
0.086183451078793
0.0857615942620319
0.0827469365415592
0.0894714487706525
0.0856564467049935
0.0837609845362031
0.0850092132295913
0.0878855841639879
0.0844959834300817
0.0840687075001053
0.0822475820331767
0.0872240083380269
0.081594253505256
0.0827664625196277
0.0861886176895914
0.0838045626377796
0.0823553009499688
0.0837023846197867
0.0819510750889207
0.0866733688475882
0.0843710982608945
0.0847362061029031
0.0836365170915538
0.0832337752860533
0.0815188100602963
0.0823802354667052
0.0777725912198125
0.0835280119946023
0.0842367645837523
0.0844447859520018
0.0824292643497076
0.0831678371091709
0.0836312679057937
0.0833153862597922
0.0811296182007232
0.0845650952551075
0.0802541440475576
0.0785877211612077
0.0783572463606634
0.0811061862054833
0.0828539739994801
0.0823351122226965
0.0788454345924206
0.0796874144193389
0.0781239263003543
0.0835726841898187
0.0796031678055006
0.0781800529344429
0.0796699095908581
0.0792237480067673
0.0763366316532551
0.0796747048331244
0.081566894711883
0.0782233793436749
0.0768245083311208
0.0796875579388836
0.077923263795833
0.0757326464365051
0.0760883725487358
0.0786505291835446
0.0745004984704252
0.0766859625787104
0.0754128083082657
0.0777727836873579
0.0771632454044798
0.0749453600126097
0.076432883862695
0.0755617240857118
0.0705352541243772
0.0764851980071935
0.0724937862451017
0.0740872560359121
0.0736642576196474
0.0761505124981514
0.0740419851495419
0.0766370698150836
0.0747701814331913
0.0745490671850233
0.0704814158366432
0.07475526415216
0.069807595152406
0.0718387327342581
0.0724616643245052
0.07391032965202
0.0721223619875675
0.069156263183148
0.0728594014001568
0.071655471295798
0.0702137695215211
0.0746727252871831
0.0739904784831845
0.0723437137659032
0.0707516931281246
0.0748216519488304
0.0719173557136399
0.0721907080682068
0.0699940173437018
0.0715143221634274
0.0710962340134161
0.0717804261663744
0.0672041144863745
0.0712618744852621
0.0665169700135688
0.069039571942601
0.0697952855944272
0.068386839645635
0.0684833298234163
0.0702064138369236
0.0682010209791661
0.0667871264860973
0.0640025133039288
0.0666289344079583
0.066597515305306
0.0675273259318932
0.0637636555513145
0.0680180508904515
0.0652122565824414
0.0651315471714682
0.0671950672891745
0.0646808001552216
0.0631838310286918
0.0650189728295105
0.0639854905154968
0.0663135474214778
0.0622728070957722
0.0619813628468951
0.0644282783751026
0.0636232704054621
0.0614525681265606
0.0628117958628365
0.0602915648165782
0.06485521490354
0.0614081618343573
0.0608309141786947
0.0596430643429673
0.062292289674851
0.0607714255877945
0.0603356818755908
0.0589150944014915
0.0604038016611636
0.0592168377601455
0.058092761872242
0.0578354982852139
0.0601496485313325
0.0579315570384729
0.0612160903582057
0.059660337837857
0.0583599037801767
0.0565263646944972
0.0592850744716076
0.0573091106844068
0.0582467145216881
0.0552750234888658
0.0580010844519113
0.0561243663917332
0.0591274282115933
0.0596481133522694
0.0596024085692308
0.0566116168704405
0.0586865661951818
0.0568490471934776
0.0563685258590542
0.0566755324781854
0.061728887145441
0.0590696243375509
0.0586381098903802
0.0571361927361096
0.0585955781081642
0.0538106439644323
0.0572501677975101
0.0559153632496615
0.0550859613437916
0.0538956680740149
0.0568456630872532
0.0567035241398371
0.0554104324207711
0.0543956296561743
0.0588999538312217
0.0530944482471582
0.0557451613369794
0.0527430593458976
0.053686669893699
0.0513078832255322
0.0494969835864819
0.0520736853012497
0.0553789253629958
0.0504720188679601
0.0532031288518163
0.0552119632297827
0.0533686230504722
0.051095463951577
0.0530276730236274
0.0520506225400896
0.0532471908987999
0.0501051713629719
0.0547752906725156
0.052496218452319
0.0516949820928071
0.0497285240193601
0.0514425389825807
0.0514741267826976
0.0535520645749013
0.0544058428009839
0.0518682409947413
0.0532541952509203
0.0524894043130218
0.0517279199788564
0.0520864069314196
0.0509561304336771
0.0493248440250306
0.0495549628316049
0.05314932489281
0.0526636977060854
0.050581425849266
0.0515878423205274
0.0521736405432696
0.0488171297528743
0.0511807067072097
0.0502466334363972
0.0521045745654768
0.0535100139386901
0.0506253056094536
0.0516276440341751
0.0512176339567385
0.0501476018689784
0.0513244991064852
0.0522463682644471
0.0514899291551836
0.0449338855219157
0.0504542646930695
0.0483729607479241
0.0504607679472883
0.0461768658928215
0.049451101978055
0.0503256816679937
0.0502608746313006
0.0485853498113265
0.0513012783874795
0.0476401156648358
0.0477456857690922
0.0490545667105662
0.0523602419014379
0.046025266842285
0.0474943433312991
0.0453006926267217
0.0488955322536007
0.0486052250989371
0.047866844331251
0.0453076317029665
0.0451609221024783
0.0471178371958798
0.0504029756723398
0.0480401652049576
0.0463813988904779
0.0466010309937546
0.0462269322066803
0.0476507034423497
0.0464370432405018
0.0431563505750794
0.0484410172786998
0.0479652051277028
0.0451504691247222
0.0477906086662986
0.0467397724021444
0.0457214970964886
0.0453928225501164
0.0465882385187546
0.0451837285211357
0.0455536265344132
0.0455663992307384
0.0446735698113971
0.0452671884815538
0.0467060988954494
0.0459806081415357
0.0451147571741484
0.0474627170801888
0.044074675182561
0.0462870951546114
0.0454482415149178
0.0466602614059392
0.0451154492039623
0.0454356189489359
0.046545250437631
0.0463178366068656
0.0447927621067579
0.0441921129574354
0.0448998970861137
0.0469427075675011
0.0447175820737971
0.0450211679770652
0.0460778785156193
0.0461634875855296
0.0432306393758813
0.0419854867264723
0.0445533270143942
0.0420770505301228
0.0420003830553792
0.0455800558103635
0.0428732103294628
0.0432508387377529
0.0449409203727167
0.0436372552336698
0.0422300555475756
0.0454287018647868
0.0465293696292706
0.0418436228977619
0.0401373211730982
0.0430157001104947
0.0427370659897238
0.0438369460812625
0.0395724403797519
0.0416541128922413
0.0418326501884288
0.0437297686178523
0.0420862727429537
0.0418641638762111
0.0415703113087509
0.0416822845420903
0.037745522229455
0.0391347248534979
0.0399472011199992
0.0403831473355905
0.0403780196729506
0.0417463868975983
0.0430404825399776
0.040213487647659
0.0420091377667863
0.0418159027470467
0.0409624062465596
0.0400988839179887
0.0382862285523441
0.042710568188869
0.0402190292449897
0.0400865456922604
0.0386979587055043
0.0401573616311812
0.039940919925015
0.0390263551161899
0.0401608530665515
0.0387264353392072
0.0386164369148815
0.0412757135022154
0.0387658967648342
0.0387419371447965
0.0372717724219872
0.0400207824929745
0.0403233798758366
0.0407382998119445
0.03884652105321
0.0394126224041592
0.0359427306715667
0.03935016045622
0.0379674203896285
0.0375536281784456
0.0352678143269136
0.0380692142774792
0.036426264089023
0.0380169353212619
0.036045523845154
0.0394553156613635
0.0354809384007195
0.0361207586447067
0.036308920495201
0.0375984347265172
0.0371700326820857
0.0365615068232238
0.0366053278350307
0.0345974119809898
0.0359828734152963
0.0357939536305193
0.0361371192557959
0.0365106163128207
0.034197546658146
0.0345839593009426
0.0338603255478815
0.0383549683154956
0.0343892974607252
0.0351926946406855
0.0368878485384604
0.0361330002486615
0.0330712732509662
0.0347231258145136
0.0349606923249639
0.0357787902966267
0.0347805986337523
0.0349714327318319
0.0363424907274323
0.0366008528511613
0.0332164890343353
0.0361080801629199
0.0320215811224116
0.0347099497988476
0.0330712054031236
0.0347937285669864
0.0358531140251072
0.0376984059186096
0.0360815432501213
0.03670647782745
0.0348576647012262
0.0379395001579669
0.0373776929880161
0.0394171149747694
0.0377561357238771
0.0386779523424958
0.0396009972890002
0.0419837399452951
0.0418015770058505
0.0410572470812205
0.0404232337317416
0.0437780973953562
0.0425428357282177
0.0435967549988664
0.0409519135622048
0.0428319779199212
0.0291153816023251
0.0293113544902161
0.0339723208157294
0.0423840875170611
0.0344024860074364
0.0327373051238296
0.0364542225772399
0.0407994545529809
0.0316439820963288
0.0371955350116413
0.0360418660554004
0.0344475092721149
0.0384968431433262
0.0333965599808048
0.0267736900115008
0.0411984860027927
0.0302653844415932
0.0415954069684414
0.0317654866498725
0.0361573327557223
0.0360715880113478
0.0438618813891717
0.0274595520809572
0.0403393522031533
0.0302921192592699
0.0376013635694243
0.0235371050815738
0.0334081371455746
0.0225656102059096
0.0395534208439292
0.0220316168681529
0.0391548335158054
0.0212282244047305
0.0481668907901232
0.0265903004295896
0.0527852157296354
0.0221939247118737
0.0414911194921391
0.0148339379363613
0.0429209742628857
0.0202951785263876
0.0518228610262853
0.0291027995302422
0.0561107185516444
0.0162209612260172
0.0413575225752152
0.0185005010422337
0.0590395444710575
0.0195722702051967
0.0464430081867986
0.0287675169047079
0.0580054886333541
0.034094727229634
0.0324796712299845
0.0376461496099934
0.036727189540911
0.0443605981924705
0.026198854209561
0.0532644779843976
0.0222033619021873
0.0460487579931927
0.0245547022552971
0.049095858741563
0.0226074132783698
0.0472304241715754
0.0266768477765427
0.0411010260891286
0.0311827536844399
0.0323988183754876
0.0363259556199124
0.0319003333991563
0.0330956089758231
0.0331321554627555
0.0323402326099392
0.0359403085480133
0.0293912413464681
0.0346961158427386
0.0287676531639417
0.0354753537047959
0.0289282325169921
0.0341099773562979
0.0299701894988623
0.0310889666790725
0.0285300470022859
0.0288555562990773
0.0277085893063872
0.0331962680093375
0.0283890338899992
0.0333184359391304
0.0292781391090064
0.0303721808993192
0.0286932401180437
0.0324181611414663
0.0276616123795871
0.0311115412709662
0.028723157994033
0.028187590850606
0.0272513358735483
0.0308303738200962
0.0290882424229613
0.0291776885577365
0.0273482175669878
0.0303397859371685
0.027220232693886
0.030470044761054
0.029486454188411
0.0313651429987472
0.0291773640274512
0.0295378410795558
0.0271624950105098
0.0301373995041897
0.0279261164317551
0.0289647426221434
0.0290374638795828
0.0298152961727985
0.0273309763662314
0.0291467965160614
0.0264782711759517
0.0304644210918711
0.0289802946680589
0.0312963364370589
0.0290837871890367
0.0302493192955575
0.0271044184105614
0.0284842107106319
0.0268217416894678
0.030267837208728
0.0264509011992985
0.0300190369833115
0.0292117428932206
0.0297268885339057
0.0281564854511554
0.0268117661669808
0.0271412757288107
0.0280888077302176
0.0279475408860608
0.0284003720449495
0.0285328312124223
0.0273327785119582
0.0255535395984075
0.0286053839133817
0.0284606497380201
0.027945752383215
0.0294132003312803
0.0271895064930453
0.027136598859153
0.0286261679888469
0.0285468765972022
0.0283759992849656
0.0271809129125394
0.025793275931488
0.0282516156955956
0.0287847556277685
0.0264706617794521
0.0285216994603462
0.0272688187855179
0.0268852340213164
0.0291983522194024
0.0277580033994851
0.0269890510461848
0.0309196345069246
0.0265580036115202
0.0282884753173175
0.0271155342032498
0.0273773002364535
0.0285028645301105
0.0284442641018278
0.0296722515733004
0.027621242651101
0.025866878933321
0.0294385540189342
0.0269731220885304
0.0284814933660914
0.0297244024759095
0.025722345521619
0.0274351074404163
0.0298673766715982
0.0278204022154079
0.0302492362030442
0.028997148388143
0.0281960719690985
0.0285167390236278
0.0270734966374547
0.0272713090241288
0.0288180608101095
0.0276897133166514
0.0263410963960786
0.0287226501472077
0.0291226261378241
0.0267672971954856
0.0272744649149279
0.0264539955964363
0.0288621742462903
0.0298877030145119
0.0289409484433994
0.027276113741354
0.0280409926416854
0.0269450890171527
0.0262527697759947
0.028992830198445
0.0306243081638938
0.0283276531739418
0.0273644881336385
0.0290052764938945
0.0278344574495506
0.0277823751898402
0.0270613796596534
0.025077577573601
0.0262470180584682
0.0266669191192438
0.0279326911504959
0.0290982357381383
0.0267191934790638
0.0247385141666154
0.0288178132402146
0.0289464477494427
0.0278684618316377
0.0268874297237337
0.0290334625704633
0.0273498486639212
0.0272315353665207
0.0281861317149005
0.0290756404627585
0.0294073398715494
0.0292164970341583
0.0316250812053735
0.0288688728421724
0.0266015303389476
0.0273231849537632
0.0283643970002034
0.0304845747566281
0.0285822623585795
0.0307449387935142
0.0274437226646862
0.0293524441282769
0.0269875669779931
0.0284912161207648
0.028684082871751
0.0293644112483948
0.0299883406926557
0.0269726847923714
0.0277260399960799
0.0257268594679456
0.0271490952197084
0.0268483324038116
0.0278889731433971
0.0283216922550896
0.026552812680533
0.0274681273485554
0.0263064414424616
0.0281198565939376
0.0283759827218522
0.0266293036789072
0.0273701557197852
0.0283917347504086
0.0268927230974817
0.0262206299919581
0.0260769872977224
0.0254588672516726
0.0286405924241228
0.0258634544812791
0.0290208360474474
0.0279268206208316
0.0273285210525138
0.0277647894562485
0.0264847147304332
0.0251549755144186
0.0251469876284901
0.0259897583175774
0.0262169830816687
0.0273379527789632
0.0274516245557015
0.0273346437350599
0.0285834166869811
0.0255800555908265
0.0266506613388212
0.0270351398962283
0.0262750844432544
0.026574873957986
0.0261411228363493
0.0265518528562156
0.0245131304601719
0.0260909363003089
0.0266837894349993
0.0235683789258867
0.02718861994195
0.0256125767012253
0.0253885582788063
0.0261020881164741
0.0270607093402542
0.026023847065311
0.0244727086226673
0.0255462278293314
0.0246881140712456
0.026664607183976
0.0260783287326009
0.0260733072971283
0.0264205430610973
0.0272647922411445
0.0280282214827146
0.028106944243314
0.0254517598163015
0.0269247459384797
0.0257242589690934
0.0267031958724409
0.0255107293469659
0.0267477462314819
0.0255743466300726
0.0261894723368392
0.024828079780607
0.0247212181348707
0.025151669653588
0.0252241303673573
0.0260273954846244
0.0239899694889847
0.0247493239334847
0.026366959302388
0.0271675426915876
0.0258629367348733
0.0246257087969836
0.0240248242748153
0.0231582856314707
0.0265818441882942
0.024573978959367
0.0241363953069705
0.026163159611005
0.0304586752082222
0.0280843296629943
0.0248727569407692
0.0271192016475175
0.0241407389121294
0.0280697832595788
0.0246967636027885
0.0236463547194381
0.024013903364134
0.0269189280137144
0.0255929940115544
0.0254632424239687
0.024112833849619
0.0269568277194736
0.0250787666966422
0.0236992474845141
0.0226838860654937
0.0251673421867724
0.025605965616522
0.0250280592421176
0.0251058700676079
0.0241237725159141
0.0242802946746025
0.025022806928131
0.0232890056688429
0.0263748880690075
0.0293107842626154
0.0247483942556575
0.0263383896117874
0.0235737753573178
0.024514001364099
0.0254682195356554
0.0249301674788763
0.0249230283825272
0.0242783974610827
0.0234640971903687
0.0247967995750772
0.022548942628268
0.0236950816449854
0.0250545872084623
0.0233837399189678
0.0250975967022121
0.0251518125106615
0.0227045707264547
0.0261166662371403
0.0241914806091481
0.0221646321351717
0.0233236700494709
0.0237710492017946
0.0208379891642799
0.0284178991204124
0.0266843298600222
0.03363816208444
0.0264971577766205
0.020815591672429
0.0230576976502895
0.0219638378363151
0.0248633964349584
0.0230602138598914
0.0241570788104851
0.0234435097564496
0.0211415972914924
0.0231908637869765
0.0231096366877785
0.0219155653961439
0.0235629155281614
0.0230505646836732
0.02206129097758
0.021653265351935
0.0242045246923434
0.0213885792010186
0.0230275751572085
0.0207451272417788
0.0226940505018087
0.0210726221537275
0.0217883209828221
0.0181649840444605
0.0249132361651961
0.026861612008923
0.0402661123968087
0.0252285550739173
0.0242272442492907
0.0264288768439072
0.0292939971445589
0.0214469261083574
0.0242943397011549
0.0219696298575175
0.0215539050800483
0.0234474990078841
0.0233876101149537
0.0219826463368875
0.0251890674746657
0.0220949670125284
0.0234476512742416
0.022445177583618
0.0225954058829922
0.0196972701629315
0.0236465651335219
0.0222241843820669
0.0223433767372881
0.0195955908160743
0.0219660834830325
0.0213219792493879
0.0238476820215639
0.0223956815141132
0.0330851647078494
0.0290411153271677
0.0221300849347312
0.0221358641223626
0.0206266753609568
0.0207651160982578
0.0220400928614065
0.0232811994252393
0.021495222245421
0.0208125248119179
0.0215640333616648
0.0197996790189414
0.021820049123442
0.0252734365216886
0.0225632609682237
0.0220284430111621
0.0223123721849415
0.0192693913250286
0.0213581036535169
0.0209070720988993
0.0209886951325019
0.0215319145260927
0.0200489802795929
0.0278174855765859
0.0218776053707854
0.0253416153690956
0.0287359716886335
0.0498130112159015
0.0236163722722121
0.0241239865868262
0.0225601034189776
0.020637303451511
0.0206631468994874
0.0193467874769587
0.0192025787766795
0.0203669866717029
0.0198283375605047
0.0228686612198657
0.0227307309419837
0.0239183656459376
0.0212165413313851
0.0187081288738795
0.0188120434665152
0.0206550935719119
0.0225351250491107
0.0193736192703514
0.0205410502697387
0.0300852135095265
0.0418694441559497
0.0319971258354693
0.0187080788551087
0.0250459327907524
0.0241311692588452
0.0437122156765909
0.0359242652584328
0.0143788588726223
0.0266421293255273
0.0160878283153604
0.0245341170583313
0.0163840494511871
0.0228496601015876
0.0191208188839699
0.0351913367834469
0.0203679136725529
0.0310464103662249
0.0193870585432381
0.019508199043613
0.0187063356455726
0.0232663604717542
0.0181600726683581
0.0191313965257172
0.0186394683750564
0.0197506078325624
0.0194034026222856
0.0209918197357576
0.0194540391448675
0.0226069540088748
0.0244170999845126
0.0352178384203072
0.0167544549191317
0.0241295016021868
0.018611276818292
0.0238271143815746
0.0293103647302075
0.047467960260593
0.0184548782591582
0.024465927353973
0.0196208532015949
0.0227519734878407
0.0237952442083614
0.0211805739169322
0.0199393882566856
0.0201580197963698
0.0194177102746842
0.0204479154428746
0.0213953120665551
0.0198299932826153
0.0201272627327033
0.0190432390736447
0.0188123831455241
0.0193215687530469
0.0224208285819281
0.0198386055929893
0.0227045401093246
0.0284691653856053
0.0393510799480859
0.0580311200919375
0.0336281411144751
0.0428191484107303
0.0243250235249722
0.0281791662422865
0.0182093576949411
0.0257143994729092
0.0190333082267037
0.0280653836408256
0.0168343857513331
0.0252261059029964
0.0201396810897077
0.0241095447532885
0.0171236678163698
0.0221441146703969
0.0148634218437257
0.0208697243563478
0.0146676080537459
0.0230436777868327
0.0148783565520691
0.0212547704414836
0.0202148511665539
0.0334789365829207
0.0316878853944299
0.0225041880931905
0.0358851557224247
0.046500331333007
0.0623577392282336
0.0190859904410293
0.0353793050917397
0.0170620643116548
0.020537672280619
0.0192456897844129
0.0247189166483818
0.0275188250623161
0.0261799307522434
0.0186631038287385
0.023244035879285
0.0232590769630644
0.0214729064260541
0.0234213165119908
0.0392590451477064
0.0633886079990544
0.0387319872851314
0.019485542188583
0.0274758675083017
0.0284564959598849
0.0570396036727956
0.0254972169569692
0.023776662415458
0.0285314266662387
0.0167845894670211
0.0236201131669532
0.0164810459747946
0.0246840024368009
0.0253763101511278
0.0264886428494644
0.0159575141608665
0.0219413679870907
0.0184235447787831
0.0252583431189688
0.0281618006093784
0.0345975635075793
0.033538610533187
0.0239235563222435
0.0241033734177333
0.029781916727528
0.017891994103102
0.026490996911535
0.0154051324324365
0.0264833947354594
0.0330522631080452
0.0468288111431805
0.0318216992599172
0.0451683803953552
0.0355900723285545
0.0226186113694677
0.0274885565637971
0.0444860345533542
0.0213111486588756
0.0364587232512327
0.0250590001772124
0.0786226363933372
0.0369597730630162
0.0549658344489026
0.0249949757956275
0.0261807827136783
0.0178863948700308
0.0213375374382406
0.0289714515974739
0.0344963906747297
0.0357504704770786
0.0142894197904376
0.0330531585449149
0.0271742685207729
0.0493793898555419
0.0249728758694438
0.0336491605304927
0.0165967207570219
0.0306762757454929
0.0306582447843055
0.0392512058462539
0.0253934050791412
0.0698676548215405
0.0748092258578368
0.0439096510197535
0.0383352558605361
0.0281624298330432
0.0650718564141303
0.0365679330644804
0.0199718235999301
0.0316233458018768
0.0145282357322637
0.0299722764344432
0.0327358971126956
0.0625685349589
0.0397532363664912
0.0205101822785957
0.0334071917303645
0.0310421437887562
0.0508778187557154
0.0439309607416203
0.0195898368833576
0.0273867439742709
0.0210722494206989
0.0458613360076531
0.0557552601555666
0.0766710069297294
0.0320072407089936
0.0821228479412465
0.0431565789579472
0.0560532806061855
0.0354954063097131
0.0415680425075985
0.0476200218038742
0.0625092298119439
0.0265126437740041
0.0349527406939992
0.0431687129412457
0.0660971270841713
0.0310956101151686
0.0331911016076887
0.0337165529605932
0.0391392637510389
0.0871597911168152
0.120320982422439
0.0638149512407803
0.0413756221813579
0.0448443678968514
0.0621793457396026
0.0424855339818363
0.0252056457862528
0.033565196612946
0.0272037838914989
0.0281214249981268
0.0360616170483584
0.0423886235743446
0.0398399214993816
0.0271826695601837
0.0356179271921514
0.0319360919390004
0.083145720538925
0.100187504872613
0.0834381204537622
0.0630656431039841
0.0730907514269402
0.0730477895495865
0.0383630889445753
0.0422536266513581
0.0305797028596515
0.0489989854398565
0.0377357017645321
0.0336739742517626
0.0486274623393076
0.0584346922846393
0.0716298954864669
0.0542031999613582
0.0728160987294034
0.041162163928548
0.0548034380803309
0.0916504437410291
0.150550410743832
0.10517984149423
0.0369662127174496
0.0917336139950517
0.0636497619260469
0.140767996424296
0.0591363904838669
0.0463353089741954
0.046902963566901
0.0514371532185951
0.0505151825070854
0.0698687480201021
0.063984055971834
0.0757516578052275
0.0554523320841075
0.0731615239676239
0.0804066060881155
0.20413347259373
0.123834669844018
0.0922286073833265
0.0680755203101657
0.101017568241525
0.0830733218750607
0.073800250443678
0.0545837915290569
0.082821685303528
0.0749750904472122
0.135500917969729
0.0765843039564175
0.0755588572687225
0.0918622097672468
0.0989379312422053
0.104364815624684
0.106399358612638
0.142852870802496
0.07615882549117
0.0928056413629797
0.0734557888869889
0.0871464443230584
0.0924195797788104
0.118944179621601
0.116473361900004
0.0889028598085277
0.0969769437534918
0.0872337323502495
0.0922311959819778
0.0914062324633543
0.0982706353187488
0.109910431183143
0.15920903323174
0.228410640463555
0.205866695630758
0.151290032132825
0.0920072324209539
0.112011771954414
0.112914267500614
0.142861789704335
0.154836019939067
0.13558112925583
0.13618392664062
0.0895744480843338
0.101674967985054
0.0954394684964233
0.098236150344083
0.101350803245406
0.0935017427955522
0.109224771580627
0.111771091811904
0.140563375308594
0.125119653545589
0.19071684125511
0.106387845326484
0.0981990779872273
0.0933358499209626
0.0964158925683377
0.0882693653503708
0.0981797192188573
0.106664263663767
0.117893772902053
0.0916900187869216
0.0836085431345544
0.107318795238269
0.118340606570055
0.134231020022047
0.09561488256803
0.0935495968085289
0.0938666389858327
0.0860646975928614
0.102944443743622
0.110820754099732
0.148997756990556
0.101687552207505
0.0816022609338278
0.0928747421289367
0.0812886712708694
0.0836181703567522
0.0869695330938126
0.0970104025726089
0.0884352999152007
0.0903230426936057
0.0900183112509342
0.0901963605406197
0.0765287732817079
0.0867847405661527
0.082658621624163
0.0911143972623031
0.0807023405198363
0.0866118842890191
0.0805300992290605
0.0833648724952148
0.0793923446698528
0.0882365268344404
0.0841816552251054
0.0951705949244709
0.0852599060691527
0.086099702392547
0.0809044324860902
0.0861886570155343
0.083596224739779
0.0882990164359617
0.0758232456622646
0.0838331831867151
0.0778319052631848
0.0814939577101081
0.0755933573550273
0.0823774797629441
0.0791130175165291
0.083090227581427
0.0775286796694331
0.0827490931530553
0.0774575471788801
0.0881819049255001
0.109952399521791
0.128846274565724
0.118441280812175
0.077647171520577
0.0827851474194328
0.076455401066408
0.0766361339168497
0.0943113661733235
0.120829824060609
0.1154167497005
0.074316418538875
0.0726352118778161
0.0789293507654508
0.0970662992850052
0.0833620024723924
0.0741791364797146
0.0669020065882363
0.0976665870094572
0.0968317106198935
0.220461025038305
0.1789136888823
0.18945993941922
0.0873892179828753
0.0833119609414697
0.0982116682425556
0.109200470233569
0.0750428189510752
0.0640141020672045
0.0817012776371372
0.108951377977634
0.0951357782987395
0.0663613386217616
0.0625820627829255
0.0744127997728218
0.111352587771735
0.111184137017672
0.105903196851879
0.113306115903955
0.120764916204517
0.125036666574564
0.154455133217581
0.167676755727023
0.103538348847947
0.0711359483656578
0.0658448266613045
0.077395039802384
0.0961332916191629
0.124172949525606
0.0971756778596468
0.0803886892157317
0.0669692413590183
0.0584263108296867
0.0784326658182065
0.0956600923435796
0.0857186784399828
0.101587983484856
0.0975400864511513
0.0824066442110154
0.0778670462918025
0.128154831804632
0.121439158767033
0.148591750443457
0.069344735090591
0.0795342535501727
0.114395388825354
0.121650950352705
0.0908102294594328
0.0807927496805766
0.0566959314366006
0.0800998168541064
0.0762588101443834
0.0774393120916537
0.0866051204931044
0.112299114403841
0.126679082661417
0.174232174252419
0.182729870837392
0.125533464374958
0.073887245159615
0.0586338130683832
0.0576965367126952
0.0719506817942238
0.0523751064752022
0.0741278025394228
0.0783819348578138
0.0779249213749213
0.0700915543052632
0.110610207929553
0.0741863266136391
0.0561167471139963
0.0555210193242898
0.0611862306170013
0.0696248202893502
0.122063287331044
0.119537234251714
0.0908783014029381
0.0853983397251104
0.096196270587523
0.0729435115920626
0.0646415220358455
0.0628130587049915
0.0606681949291753
0.0721290690922022
0.0860837672904086
0.0750537280517787
0.0723849035778526
0.0682556139067492
0.0822311219064267
0.113505288720115
0.102229553510221
0.0948260046386577
0.117916229847085
0.149572842720574
0.144670376297442
0.110602343473956
0.0883089295788991
0.0893479944987645
0.0926466543637583
0.0877089332417391
0.0957413740707844
0.123350096563618
0.128533739285656
0.103638935228029
0.0974184762514365
0.10464207615023
0.0968920992257023
0.123173913976156
0.14307424578089
0.170446604024793
0.176476676870729
0.176918992064231
0.14714328481173
0.119023072668863
0.110036685016343
0.120217051089485
0.117055470783234
0.106753991787328
0.107720252797714
0.130269213532901
0.141026769300706
0.117238486696876
0.113242249121773
0.115381548423113
0.115358228328041
0.114162148125152
0.116016134908014
0.113332177172415
0.116829957588592
0.112400649578753
0.121296798994063
0.152146320544125
0.199192224937833
0.146927115346915
0.123172669452623
0.1353420372897
0.132134809333363
0.127030422904491
0.134844530672831
0.156734195181611
0.140670505397339
0.132983929469149
0.132143107412323
0.128019216005284
0.130857606270031
0.162312026641505
0.152413333267926
0.142129522672257
0.129165380949906
0.142875571741625
0.190775982522157
0.188893130776032
0.16892740233604
0.160446081941819
0.156204227208925
0.139247289385054
0.140933627356118
0.133207015536732
0.144323699895376
0.139358512980472
0.143406280610965
0.136909689308522
0.140469578645116
0.138835217055208
0.134963194573657
0.153038401314695
0.173129837475152
0.145195662608293
0.138774904481832
0.138685737483859
0.135681693981955
0.146322698398503
0.167758209028703
0.162877113238286
0.149936222164134
0.148486491390886
0.165976917102183
0.172683873432832
0.151102310389512
0.134794080486213
0.14064698066608
0.137947101943323
0.138211913131433
0.133653124966549
0.162290687734326
0.17506713306611
0.153965811763565
0.134679729210122
0.139232624153976
0.133050281012123
0.138879329544496
0.135307336439754
0.147044217569529
0.136400975688963
0.149473178004369
0.148393625524789
0.142193726079494
0.144813925724753
0.161945422710962
0.175481783970567
0.161584461072411
0.1440587753743
0.143295152196119
0.136276926874536
0.146784086117914
0.146948201314655
0.140683337383291
0.13007233834529
0.139718571521076
0.127608437089666
0.1560132466051
0.166863813110539
0.149012554618353
0.147164615263811
0.134622653173356
0.127147258426108
0.130619736531161
0.126327886133317
0.123812369158167
0.126627985361344
0.130207266225016
0.119969443489229
0.122189735674059
0.119528158206197
0.119912938545583
0.122300376697104
0.120130452107229
0.118326642354789
0.122793988643829
0.115993231656453
0.119664400365467
0.115818621264512
0.118248980127127
0.114823928285397
0.119709446638319
0.143129789617761
0.149454118451476
0.145135858029544
0.127958048151939
0.130551018749651
0.121393859567784
0.11699730969789
0.11731350017715
0.115155012272503
0.116154548836482
0.115099712542884
0.116942248112177
0.114466155418006
0.116674620363221
0.113834175995561
0.116364981338348
0.112756559887717
0.115732986024937
0.115961401561681
0.113454062294726
0.11329889246362
0.117128762006299
0.116891823933304
0.129899635759652
0.116518924314296
0.121651108302366
0.11383444164161
0.114813746492425
0.115481567789654
0.121644922505725
0.119851517890445
0.114481534972844
0.114243574077845
0.108827850243004
0.112820727787863
0.11490216305796
0.110153322129268
0.111393533076331
0.111416939701056
0.111886410670429
0.108687211818223
0.109479020369029
0.105549415689811
0.106118333016222
0.105266515770954
0.104231318833759
0.10039477164826
0.105548533083861
0.101503162388194
0.100082193194869
0.0996457845201049
0.102446920351376
0.0995526136126134
0.0999865325693872
0.0964640082987541
0.0974035238733755
0.101960050997287
0.100568169989812
0.0951602068845081
0.0951339471625249
0.0933993549318881
0.0949598784598711
0.0948731929712389
0.0929108868612485
0.0941673373320401
0.0972098554098556
0.0929636844245257
0.0937095531431734
0.0934562860182778
0.0953336738314759
0.0943780589257268
0.0957794398568003
0.0924779504646485
0.0976652619783048
0.0971892258235461
0.099284490955032
0.100077472989779
0.101172322878105
0.100439623823264
0.099212797015633
0.100491626511923
0.102117912378315
0.0985706714557286
0.101076067827626
0.0992726682494427
0.100424673595209
0.105546503493698
0.101505018137163
0.101157879746457
0.103662980415178
0.101771117835857
0.100155319344393
0.100992754583887
0.102421791972412
0.0999667906356431
0.102986946937087
0.100516854430076
0.100319722305107
0.098002419119662
0.100094125234261
0.0988755892838565
0.0995411469676695
0.0999058850897987
0.0998546189318909
0.0981662417722472
0.0996726662834985
0.0991771321873602
0.0986852374792746
0.0976754838338215
0.0987000400532096
0.0967030270358902
0.0982947274576196
0.0954043338539768
0.0964957721861637
0.0951640607924602
0.0952150926191664
0.0955853873192096
0.0933016212523215
0.0941907081166053
0.095006950689281
0.0936667177107391
0.0948952301537466
0.0936000298692518
0.0952557490530184
0.0934971767937337
0.0928964635204449
0.0905690042534397
0.0932153693180717
0.0918079433316761
0.0925135423332924
0.0901465866827958
0.091111792773766
0.0891419928950334
0.0889665077549858
0.087220272352645
0.0883037545140447
0.0872353387854109
0.0878108006335649
0.0876746001620835
0.0867464668629144
0.0854286226647237
0.0843379172481635
0.0840987813495205
0.0844562694180838
0.0830594251876548
0.0835315000631763
0.0833283091764417
0.0840843007916875
0.0834693034881414
0.0864246125646151
0.0835646297797241
0.0844423269067004
0.0833154211916924
0.0832652415955353
0.0829671588618591
0.0826657254772739
0.0793854750720018
0.0820882608556761
0.0795530555404209
0.0803080023900881
0.077959641679622
0.0775430870883214
0.0760692241633034
0.0768969442609401
0.0745032412613068
0.077661004339138
0.0747546117295752
0.0775683096464651
0.0761373367559166
0.078876427371711
0.078708243617405
0.0806908441475815
0.0842909167694353
0.0866531074882151
0.0903348111742455
0.0951753545139332
0.0976067131453451
0.102149461238333
0.105004030929914
0.111706562556881
0.115550090176084
0.120834372717053
0.12730620956674
0.129565914676438
0.134382886794893
0.14068743755422
0.14664795899524
0.152689237982669
0.155536186077744
0.163084411540286
0.166785091069903
0.17434700559252
0.179615597824858
0.183597752318129
0.186068937498201
0.192720485581842
0.195302720564338
0.200951335500094
0.204434851556985
0.206649297798838
0.208680027569345
0.213438033621908
0.213488735322443
0.218554527347257
0.218964741711601
0.218831802122773
0.219587122011855
0.217242336620304
0.217537919194236
0.219498912236261
0.217426270188365
0.216782507852997
0.213340567558284
0.217210105899854
0.212679421782655
0.214767196883638
0.212858332269098
0.214869401941239
0.214531588135217
0.213818392040951
0.215301468941675
0.216880262828754
0.21588316646914
0.219797867630696
0.220026505277292
0.220176771963423
0.222402351308397
0.224896595172398
0.226444118843414
0.229983954367355
0.234764691621695
0.236379394575605
0.238675788259493
0.244372497368544
0.248854313504183
0.250375712461475
0.25083893083418
0.255665980682212
0.257600716964018
0.260412650987431
0.259484047057342
0.263855680578928
0.260330477763215
0.26276094092897
0.265011608040405
0.265390848852219
0.261740286137804
0.264173145996454
0.265408083311251
0.264516566574576
0.26253567907288
0.263557734953883
0.265532345769097
0.269150477339023
0.270502528942388
0.27598517656653
0.276987910555936
0.281214554256653
0.2867177306746
0.292937316737105
0.293535690858627
0.299842515664981
0.302414499657709
0.307189431602435
0.314218942892161
0.318691398743344
0.321627747626332
0.328009760780681
0.327657999537421
0.340338837558475
0.342247225444571
0.348943912769293
0.359619966061098
0.364101333695831
0.370662083235711
0.379322846963479
0.389119703740501
0.397186563953337
0.398745193824903
0.408748599577177
0.411289064800359
0.421529852350163
0.422272450175911
0.428663239546319
0.425931196901459
0.430384699488715
0.433044262527321
0.432074957904937
0.436786114114486
0.435445494391628
0.428752531410634
0.434572319418128
0.429208798619439
0.427848090149101
0.424839630036472
0.424296409110943
0.420847071090797
0.419845231970424
0.414713143676885
0.417801743765475
0.41996905549119
0.416254550589755
0.415700775641842
0.419485778165477
0.419373559333387
0.41823226864229
0.421895664146957
0.426065537635291
0.427876480887446
0.434066733645172
0.438057556083166
0.445944385692142
0.44787298451374
0.44867381681339
0.45155483634076
0.456545630241639
0.461250203837882
0.470472974634303
0.467985112348077
0.471048825755856
0.470298805700976
0.477157341743012
0.477537324027592
0.487249277765843
0.478316074748301
0.485319182430516
0.481852879958796
0.485008265599927
0.481725373287185
0.477820603167116
0.473795938223536
0.479523658995218
0.476157846117657
0.478888591401707
0.476632295127176
0.482229872389642
0.477601383921466
0.473653727864262
0.473077664975183
0.464488993360073
0.460644518918637
0.453755661026253
0.444219470593617
0.436990624902845
0.435847693323869
0.426925730088981
0.416762110624233
0.41010701900345
0.393024470326905
0.389836517369938
0.368056153548345
0.359597986302792
0.346928047370444
0.336595694254192
0.318186667698859
0.305076955840216
0.292422250389937
0.28111888693638
0.270612122134023
0.261364995587962
0.251250826025201
0.244675585278251
0.234756521078763
0.230991963248464
0.231662482589494
0.227340743813139
0.221667238794332
0.212567440507364
0.218831140289409
0.206938921972383
0.208953400695417
0.197309543690842
0.204898086341669
0.192053576536177
0.193931418584467
0.184776611272681
0.182507706349144
0.175095341669013
0.170641833337332
0.161484655753102
0.157372791158706
0.155841957089318
0.149094144507795
0.139769752200424
0.130922396929863
0.127941830034305
0.123081584433115
0.114920372702981
0.110631857939839
0.101677895372913
0.097701317753617
0.0933514596871922
0.0914483778855774
0.0835267156094842
0.0764753454094399
0.0750204755028508
0.0736487975398597
0.0679192409088571
0.0660462934952587
0.0613479795927037
0.060870392518116
0.0562357485584952
0.0566844965550929
0.0515526380364817
0.0537082186125797
0.05157220030807
0.0530949718568537
0.04674490190076
0.048834292605513
0.0486744954116457
0.0451197284356459
0.0463116782233947
0.0485731191073268
0.0468432250400964
0.0476191023304814
0.0463528176023764
0.0475112073582296
0.0510186626983576
0.0485707627461437
0.0474053275671881
0.0492862800529448
0.0497116954263114
0.0512915395237229
0.0496936161296622
0.0501860496890455
0.0514732406795194
0.0520538827645525
0.0491410487193264
0.0519543243527926
0.0515234362484061
0.0511784181535071
0.0537272363063593
0.0492434836119321
0.0523947241032218
0.0483764587864133
0.0498356913894468
0.0510366892560776
0.0522928104557667
0.0522012661843132
0.0522049570916938
0.0518961296095159
0.0530877547841088
0.0533506406570017
0.0536511040317062
0.0527319585736935
0.0524657024780874
0.0569291656381455
0.054420937108283
0.0586621808146042
0.0562526930790927
0.056087720741588
0.0562630880139819
0.0571081898949082
0.0572972474847173
0.0620851504945128
0.0597184061428045
0.0590783668516116
0.0557414771257751
0.0568957596771171
0.0591038766740183
0.0599022717056923
0.0574295514118208
0.0581733064261166
0.058876609288179
0.0577377530563282
0.056626748444664
0.0605838815337161
0.0584032756759686
0.0587351721677942
0.0625832361975299
0.0669792609689324
0.0628507718957209
0.0651222077252906
0.0676977138995605
0.070314332298159
0.076236687868173
0.0775220064655238
0.0766851114924344
0.0771301753847336
0.0765323389366814
0.0766678018310308
0.0782077934753959
0.0753325605231008
0.0757986012420271
0.0767816477556856
0.0722512698776507
0.0714800073112242
0.0708900596597416
0.0760839924010059
0.0656725531915875
0.0651981172243174
0.065783363558148
0.0668731929431147
0.0611478207818406
0.0655675642679393
0.0667095183557737
0.0681671283612334
0.0703642783885594
0.0670403385190729
0.0634643141310542
0.068127760751145
0.0656618360834263
0.0701222372814245
0.0638683759381001
0.0630520400158159
0.0598179375409777
0.0655505046405514
0.0564827974263271
0.0650703783421321
0.0633327000199347
0.0611546418915564
0.0580047002678279
0.0605315943773284
0.0597303274066634
0.058390887482169
0.0525494087463762
0.0620729079131282
0.058767209130149
0.0628353209138293
0.057020766625508
0.0563879648889631
0.0543330718166365
0.0519390401278845
0.0551120199491369
0.0589283058819766
0.0497976340420809
0.0566475305466341
0.0501352350335792
0.0570936459675134
0.0522432242385223
0.0526199884920166
0.0418663125160658
0.0524686459046925
0.0447723799533507
0.0557571742485234
0.0506205487638637
0.0461587399847861
0.0522212909545547
0.0474430621892686
0.0422922151632128
0.0488465708921708
0.0526979220338293
0.0490062491265618
0.0471365814206472
0.0492700002855188
0.0402534653140406
0.0445797839602884
0.0428200623777897
0.0428195551054825
0.0387896731308597
0.0455326347587438
0.0444020156569366
0.0396271182551996
0.0441231813633753
0.0450494203338416
0.0376054573784333
0.0473489792622844
0.0486851653108851
0.0570751129092288
0.0385259311366132
0.0452412927835833
0.0424463320394173
0.0452248992727622
0.0461132131784012
0.0436813954469656
0.0438008884631456
0.0486636785854613
0.0414022397362725
0.059619917652159
0.0510363808725439
0.0533149697209592
0.0413512065155552
0.061064310314523
0.0547966347613742
0.0571497157380931
0.0533766898926446
0.0676231607976701
0.0460676593763097
0.0523147120789176
0.0623203163998829
0.0651375929595942
0.0548469261796465
0.0643826286364836
0.0604844292397168
0.062754606753745
0.0697179628254715
0.0755513055058323
0.0730083909164248
0.0760112811647935
0.0764216338937044
0.0913261461366203
0.0827772812776923
0.081822385787198
0.0726328064213872
0.100989616105512
0.0944636540700251
0.0998677206963904
0.0972925706040552
0.0952916781166723
0.0905457042924544
0.0983528164521674
0.0898557400888532
0.0950362522590915
0.0900224579356433
0.0942800921452221
0.0860867904598409
0.0943517715704287
0.0830574341486728
0.091512447148936
0.0833749190076677
0.0872527991753221
0.0843530849281522
0.0960771024512973
0.0748399579942583
0.0915201660522025
0.0750468959245245
0.0858069144643296
0.0802008805867137
0.0805548521615211
0.0803972456796841
0.0824826158488577
0.0837314397987637
0.0894590464640452
0.0724157854806774
0.0786785286693387
0.0656184684586743
0.0817545001812629
0.0664239007706114
0.0844770245213148
0.0784058284303717
0.0780247481699647
0.0824267253184645
0.0858332853897028
0.0661864526075397
0.0805654856679404
0.0772999140869499
0.0719436888291118
0.0607114076127153
0.07234446214549
0.0601212737994391
0.0921748590385776
0.075875577523036
0.0726164837257193
0.0676483978753968
0.0666617891362697
0.080163416754209
0.0691552952964916
0.0616254676872799
0.0841001663584924
0.0814600145565265
0.0854178370506758
0.083249041769722
0.0705152864487622
0.0822175857718424
0.0853656472464319
0.0732225393244819
0.0962954654408624
0.0733557986717823
0.0874256943054549
0.054966381607743
0.0858516510194072
0.0755787059040877
0.0824489389155623
0.0674377677360016
0.0911104871025382
0.0602468276534551
0.104221718224729
0.0633138966053497
0.0885325664076692
0.0904204993467697
0.112128977714823
0.106115944564464
0.102339232529958
0.0811869437359001
0.101200955481152
0.0975081911376175
0.123642606170515
0.0988682157898085
0.0940098091719551
0.0996377096920148
0.148641285659419
0.111741735405571
0.12531926482514
0.106384152445678
0.135871029099532
0.116730567791633
0.120108307733226
0.121752469565362
0.117670239271822
0.109971588195784
0.112898618889525
0.113458164167862
0.111716767426961
0.0937843988579083
0.110887505516205
0.0748030407638845
0.111829237859993
0.0534395053186463
0.0761615621500533
0.0939424228329486
0.121035984130096
0.124035885405883
0.134576916983878
0.0889976500283444
0.142924064333113
0.0559602006433786
0.133904924913511
0.0968893057748934
0.12132851851191
0.117367316403504
0.148019544114317
-0.00843655107123566
0.138826347912916
0.104739207171717
0.129340692442874
0.0644762538612741
0.102564585297021
0.0580259108669767
0.122808796961566
0.053403724386692
0.0435341461336867
0.140930024846169
0.119906576952278
0.187441900199645
0.0732733874266936
0.0357278743911301
0.144119470548061
0.043291979902756
0.115389002921013
0.0917487337219548
0.123902461408382
0.0431823990964041
0.136583676803341
0.0642711275562342
0.164917848761578
0.0191116048484263
0.23042039334869
0.000287959475414713
0.243025706837981
0.260937843297337
0.192769232944991
0.127347915717328
