3596
4000.36533379555
650.420452594757
1
2
2
0.0738421554608597
0.0765199762393501
0.0780725292268892
0.0756281366024188
0.0736727108182566
0.0742321122129282
0.0703823481123557
0.0750088284325868
0.0715073037073417
0.0755236038749437
0.0743055567213897
0.0737738335978984
0.0704761332154395
0.0697022532380806
0.0702660456797145
0.0765479785693024
0.071586939908606
0.0675424523182318
0.0702208790563061
0.0790191897976907
0.0729939821227763
0.0790854042591045
0.0705484244686858
0.069875414121602
0.078997086942746
0.085392551929673
0.0782147121422335
0.0774356272161534
0.0788400625611594
0.078146478174627
0.0699593462386406
0.0755901743884779
0.0742203483502386
0.0735953047108658
0.0714385227295095
0.0715540164606907
0.0701384615996435
0.0704605048564802
0.0625460147786067
0.0773754659114071
0.0827215588979126
0.0751179107600742
0.0746610698167986
0.0759022457045069
0.0739412362666838
0.0786371764184874
0.0739290336956762
0.0791364050058606
0.0693371262717353
0.0708142245194582
0.075327078357443
0.079243413174454
0.0857885372734687
0.0887929953992645
0.0879744375182685
0.0966042627071769
0.0751107700235667
0.0739461551633795
0.0717467378349656
0.0752125802537214
0.0960247692317339
0.0951859405130503
0.0724759964485103
0.0781415769518104
0.0784953070483685
0.0782404527991849
0.0631204679986132
0.0728327541193163
0.0717498519430909
0.0792961839163426
0.0767271196734063
0.101419812254508
0.0950233892146107
0.0824977445121651
0.0868706145451402
0.0770145360105999
0.0741938587146943
0.0716276562061742
0.068167540301399
0.0947396804596234
0.0870065127781478
0.0802279385684982
0.0707315477553711
0.0688085288678815
0.0880184480679314
0.0974229038111043
0.0669504008903434
0.0887208713680966
0.108329308889399
0.0879359044731579
0.0675820123973842
0.0760513101119983
0.0743562141220043
0.068521101123608
0.0723353215089159
0.0716656407854699
0.0645095631144015
0.0713070113744304
0.0667480648784706
0.0783815883028254
0.090279694592557
0.114517319925125
0.121285208344325
0.0932082591608121
0.122729021015502
0.0948139835973639
0.0893631445070355
0.138522099974887
0.0876565397413311
0.0780148290612714
0.0702117174790681
0.0755824640626366
0.0727267107858486
0.0848646548325518
0.0723603754707797
0.103672596868606
0.101997491200111
0.0764312171623917
0.0688763526346818
0.0690085591267884
0.0723207165629924
0.117547521730987
0.11243636668098
0.0870738057796241
0.0972978729932232
0.0801543684521219
0.0792151574896099
0.135516200610517
0.0977492751312785
0.0714997859066928
0.070685689472238
0.0702922422604903
0.0650283300910155
0.0896568768510392
0.114924914481168
0.0826135337699278
0.0760898725504339
0.0833231999714619
0.123005626068349
0.138743708678813
0.0879237261604073
0.0822224054894457
0.0667009895842025
0.0925793653651669
0.118730143639979
0.0881748580009247
0.0823589297446417
0.112063804976818
0.0799385049748654
0.0668640093741218
0.0695649208366149
0.0803474714572045
0.0924539082669795
0.0945240610866561
0.0690189673850445
0.146892763234682
0.150030971218973
0.139185738372028
0.12321833287068
0.0783600442419422
0.0826275925132816
0.0775666782329889
0.0705790796556499
0.0742536911950631
0.0636034076887533
0.0739001845912754
0.100316438975354
0.104247423713397
0.0715558382678327
0.0983339900834734
0.120329298511842
0.102089902393208
0.0870159437674015
0.134801245321149
0.084454691394346
0.0851756601848988
0.111540257333659
0.0852996399502362
0.067514436190886
0.0948775251637799
0.0946949746048739
0.0761287544507709
0.0636535313167557
0.0738245164448712
0.0861168212687206
0.0949538672175705
0.0759726476714296
0.0732368048119844
0.0703772601462516
0.0825129793125595
0.114223560771991
0.142992847734508
0.109121082961542
0.0835557179036096
0.0745066168395272
0.0696606197521237
0.10757208778514
0.112482922871603
0.0731598106611743
0.0751313353462191
0.0632673902235077
0.06715345049393
0.0621931661513509
0.067750622971162
0.0620677257455629
0.078932184695416
0.116656535048075
0.0954096842342042
0.067037392316743
0.0722292430306608
0.0781148857197528
0.0949013646898881
0.131908444628424
0.107571319223311
0.0737037610784515
0.0754528037066582
0.0764943072982693
0.10390186879075
0.0768080399017185
0.0681531460805255
0.068630014056415
0.0730503799632228
0.0672885548181639
0.0693622758626472
0.0618197732322811
0.0700881387392597
0.0694711983174703
0.0758377040082321
0.0669867247030174
0.0750344565963122
0.0742231302241679
0.0682043688645025
0.0641088734002146
0.0680571170723476
0.0621898223648442
0.101949471093495
0.0979048256221845
0.079776852418697
0.0639660848753935
0.0656097005301193
0.0621212979331622
0.0696594737960583
0.0645758210386629
0.0704293276428452
0.0638898326876851
0.0917495673683398
0.105197008533213
0.0813363764402831
0.0663723765373506
0.0691007698721474
0.093414800391705
0.0992584417693942
0.0721378634265835
0.0714548668172463
0.0687806940763419
0.0699522287950633
0.0795567081389452
0.116535937981622
0.0829392697394393
0.0763669924883641
0.0854514322270963
0.0852447435031585
0.0722666063143081
0.0787437310814885
0.0920733805437158
0.152225764732096
0.108106548250878
0.12083902775972
0.143693109050506
0.105883835649074
0.0831601807074191
0.0850487332223936
0.0740492512743439
0.197956470507804
0.12811637506878
0.0795131641532973
0.0791609406497199
0.0931647247611047
0.074004088802299
0.091746343132878
0.0910873261580536
0.124148284653832
0.120891235667866
0.168332491498947
0.117046055984094
0.0863064518491834
0.114421075767297
0.103087713853314
0.0768349806338503
0.0751504196259831
0.0687681784050713
0.0807247860286283
0.0843360137942227
0.0934833018896576
0.0893702942597905
0.0786257723489336
0.0868716944652198
0.113926283971477
0.0856097567830064
0.0730130892556806
0.0827529828613767
0.0897409418433146
0.0677910177041175
0.0723726880557257
0.0723581848600212
0.0812921447242665
0.0694014720797846
0.106332636751221
0.133662084640296
0.0918967742584462
0.0944305825860693
0.110788989946005
0.0718257678906833
0.0694451854212098
0.0657181807911799
0.0728191720323154
0.062931131659697
0.0636351846742811
0.0704299277903377
0.10286805184356
0.0736362099952561
0.0752370888122944
0.0652406456615797
0.065730863868783
0.0648166404985504
0.073022538202711
0.0674075826166246
0.0693963347051072
0.0662158316498951
0.0759335529726197
0.098513819164082
0.103584814541901
0.077041066287755
0.137296493675802
0.100964637197555
0.0803318841520496
0.0697902782819147
0.0766935464780985
0.0699308806450246
0.0715277159680227
0.0671341992449129
0.0703141138463462
0.0816798723595553
0.0953201413311165
0.0726895663862737
0.0911648786058682
0.0963399751459977
0.188664981672724
0.142490333127326
0.102671420335085
0.0758263259058196
0.0757705681312692
0.123227338604867
0.122529768376282
0.117899260827084
0.105564227962585
0.0776221226987163
0.0849899237329988
0.0708918671991903
0.0720214675240893
0.0636144636507658
0.0775303999729552
0.0622200100665185
0.0795695046742616
0.0743079921594761
0.0829566023195994
0.0677963020110048
0.102175964354198
0.115955838094639
0.0927633163944962
0.0796614429188015
0.0791955219204994
0.0768669802088139
0.141097886502643
0.12400169834785
0.169243745599366
0.125250161355639
0.166598806447413
0.134967695585106
0.116087566452523
0.0800266561249375
0.0831332229035354
0.086520441811421
0.0981763541411335
0.0866138530169192
0.0955175868756207
0.0808978148754481
0.0942195565023708
0.0781399931310485
0.0924038519412212
0.0795093914526755
0.113180527432053
0.115268049788743
0.104938405206651
0.0947680592782111
0.103252449000797
0.129989063648983
0.201481854048115
0.1412187685125
0.110398222088061
0.112248065478922
0.109755010253763
0.100091899869812
0.100077589958725
0.0990018440946911
0.113487894576696
0.113851414070609
0.159828473257454
0.117965520087658
0.149365100437386
0.117069581377054
0.118549689759411
0.132152703695168
0.127702854138668
0.151949383154271
0.161080873796708
0.118144414569135
0.116911619954251
0.155901704978249
0.140587699172439
0.140466543049773
0.147896605278853
0.113677221555495
0.11821246969057
0.127463654301606
0.133669494264207
0.121155000239894
0.154174454108742
0.129356365397418
0.132821775828861
0.136188855857824
0.138961781057007
0.13511788259171
0.168827455076916
0.140646862382942
0.158999397877206
0.135874412623806
0.141846736527478
0.138030647470462
0.146661307540494
0.178177320449562
0.180323885864354
0.189365505151241
0.18108899443323
0.141978902741506
0.158891628950933
0.153787168017362
0.162742376695461
0.145307997795643
0.176138795753561
0.160143511116376
0.165516717862164
0.159217107840528
0.175747778191251
0.158538062630801
0.17335006410013
0.164420902337885
0.183488580418662
0.161844706994741
0.179131579982971
0.162904050011095
0.176545681649971
0.227887291256547
0.23915385036871
0.22375536183203
0.238441623058652
0.190589466908958
0.205877662966924
0.187642552410059
0.202992694697308
0.192838569764978
0.216735901176766
0.187152966464187
0.206125765168843
0.204251036681232
0.214182105727087
0.201847199471151
0.227902838021803
0.201108270747959
0.231277957377302
0.229751915393356
0.235720448816287
0.220218582226587
0.222544073549605
0.231866950572581
0.260390089553976
0.225033551254666
0.262110767091538
0.242585382331239
0.250446996509564
0.215667744937978
0.244546308269579
0.243757271757624
0.246237759684996
0.226578929535461
0.249800105649916
0.250887667771488
0.275171951904616
0.245001798980079
0.262412024180759
0.247785238785089
0.275027574744607
0.25322066857681
0.285951265546493
0.276227481344516
0.284589696750585
0.278558605818083
0.305591051024544
0.273415658609382
0.289280792112419
0.308059793413391
0.306006566910747
0.278409904753087
0.304892153583705
0.29444265764797
0.323726293159699
0.284381392348013
0.315259841703272
0.300507282901197
0.3234087337913
0.287286327477025
0.335215005328173
0.295129372444127
0.343103849006476
0.318205315709892
0.360902341462244
0.327950011426136
0.341248199742251
0.323722830228419
0.349493792688853
0.331103984196948
0.349816318210736
0.318259223720669
0.372564651832955
0.355917564166079
0.3577092765761
0.33563509240224
0.362352263624192
0.354369814059821
0.375489300160582
0.351215147208111
0.375135731058179
0.365142373608027
0.396611788094342
0.349314992585567
0.391737311002114
0.364148908993927
0.399689286998553
0.382464507020417
0.383528976776538
0.379452291359855
0.406444949041613
0.386943738533665
0.40796166134343
0.400606468942939
0.421327048552716
0.38515038111244
0.42055342947579
0.40865063042588
0.424092724909902
0.394655235779653
0.442131398096047
0.413437470708319
0.412779585864354
0.412406744315282
0.422692846716448
0.408363409562008
0.440219569515187
0.402160453086507
0.435540191477156
0.413688455712137
0.465258265548389
0.438643295788634
0.468635007705911
0.429476215189671
0.468883629464047
0.43103706026527
0.487739223551245
0.426044981888044
0.470920473787478
0.444395127434633
0.500104662163379
0.443940708931138
0.495706252577526
0.463973035826938
0.494888092522697
0.475565889304219
0.501197937504003
0.453936547268917
0.490878595972521
0.476269998121065
0.507320692688205
0.477643936694663
0.506483422208549
0.474700686038044
0.511765570598223
0.477009517567084
0.523609927191092
0.512176921594283
0.528604869113236
0.495625451620533
0.504621314876274
0.500842325160242
0.523489558763983
0.481880675724839
0.520505958987465
0.490531107274903
0.535895651356692
0.512087737235697
0.536391888527692
0.508212086811701
0.535862902676385
0.51357787497776
0.5481082036679
0.539156774921526
0.523399950032628
0.530643975003819
0.559992180339672
0.531584239763422
0.560819649628822
0.500324034135351
0.553320190038095
0.532254558076291
0.581114646825664
0.532478116099733
0.561830213935742
0.525183983650419
0.559389956040185
0.53360389643447
0.552956600986652
0.550380847374642
0.574815035968094
0.536252597380772
0.573791129378294
0.569723617337544
0.615692341157731
0.568004219116564
0.583674246226857
0.553859451931075
0.610622223422491
0.540679247704478
0.593117705579155
0.552907088321607
0.576718211103631
0.535030820683547
0.602756551383634
0.569422593322122
0.615315402186546
0.573709287329758
0.61162805558295
0.549221511612077
0.624073315838614
0.576871727542804
0.60383603896873
0.60276795375541
0.61566620701886
0.577580162182855
0.607446527888652
0.591688433939245
0.597539463483209
0.589139290246527
0.606730945476756
0.596166069778858
0.616492254351073
0.601115557892352
0.640891198484387
0.572644670945327
0.626039926921557
0.589687534533671
0.61744508121047
0.598338308485821
0.6453069457902
0.603694592442461
0.612455516454697
0.584553704672411
0.618791171052264
0.597719541997287
0.61950224138985
0.620176680669772
0.619014901461127
0.607313598032592
0.628449027090925
0.607416863905919
0.624221220873618
0.61505603801263
0.642914232426798
0.620290211239887
0.621726374825188
0.598585621817498
0.625898515098696
0.605957958522004
0.646221456155324
0.594034448318756
0.62275328830825
0.589926438178289
0.635061079032373
0.609675186252171
0.635876028823325
0.603009709658671
0.62872318908385
0.607734469826401
0.665044815242342
0.612470412605515
0.623414988352025
0.590540170509323
0.654626335131068
0.612216644598024
0.625131651489001
0.592749764969961
0.624817547021294
0.620040561458296
0.63587626068343
0.602234625759148
0.650997896500214
0.606229197815297
0.629824582724519
0.60491148290774
0.627265774751577
0.598094694744995
0.626102432063512
0.60056883882191
0.652594975635932
0.591408205416868
0.647132932290142
0.598165484407537
0.641290190534713
0.602914583945846
0.635950652902008
0.604604952464878
0.637284443048036
0.605189009796206
0.630861083574732
0.599947136880442
0.606205585869424
0.592591724438212
0.625974922966238
0.578165321426592
0.622758298829122
0.604345276867089
0.613760664982892
0.583740725586556
0.618744583457141
0.601380807125488
0.614527476216785
0.601866876429792
0.620909166425618
0.600828585627957
0.604262548751808
0.592771522477964
0.598742306533255
0.593726878097549
0.606420570272938
0.572674369075847
0.617235033593609
0.577866642766133
0.603804136412528
0.592374158620446
0.609777035225809
0.587231827653897
0.603339198938929
0.581399757027646
0.60176539053872
0.572223361927083
0.606756887234551
0.571286774934016
0.598962285059104
0.592137923539153
0.601359865259664
0.574414634547511
0.587371178407299
0.575281788555782
0.59862793388946
0.563944440073317
0.57097712361254
0.562985356118122
0.590203183470889
0.570957524265485
0.572327667898193
0.545809092116836
0.579897838939661
0.548565713090447
0.568817443070279
0.539456229234437
0.570885328362064
0.533716227366783
0.567875938894664
0.555663765552034
0.581137660685715
0.555762260050218
0.56611024053062
0.546781822154741
0.558150527726458
0.528280716447946
0.559533122515557
0.544950019936021
0.548419667136789
0.535496672618523
0.562081917445133
0.507872863910153
0.561320091249771
0.540705248842499
0.54156167045426
0.522785197397229
0.530787700684489
0.512899014427236
0.549002098918884
0.522690118534973
0.526847197374815
0.517416499811375
0.534944384297911
0.510382533650847
0.527224704431118
0.505614701280951
0.525463154268569
0.491326999440912
0.513288065117506
0.504175161988976
0.510547185338574
0.498687648866634
0.520515405198118
0.486696594565358
0.513290384154589
0.489991532760947
0.506302863555486
0.48854459148253
0.497282914782143
0.486823181885557
0.494077529679964
0.47586735369079
0.499630726782821
0.479297197613678
0.506482251382064
0.474875567763799
0.485054368666854
0.451284973996297
0.476835034861305
0.471072603578963
0.474740834465854
0.466858258043554
0.471659830602894
0.465256847658162
0.485864965932561
0.454905792208529
0.464193308535721
0.449446645791926
0.455471767474141
0.449103014118001
0.450949990041348
0.43457716382507
0.457811009082769
0.426129636610601
0.438925477503888
0.436498236051331
0.452699733238161
0.436465129563498
0.441563206251126
0.429439393640522
0.441276353348342
0.420884971832786
0.425513912346959
0.423722489431576
0.425241420497675
0.416877233639165
0.421473840583775
0.401296294660237
0.420132941897726
0.409142802412172
0.414567052654443
0.40742668185354
0.418937883987347
0.399734890362643
0.414331141843161
0.399565699389496
0.400533536521891
0.386546228969644
0.400228507520541
0.389537433979317
0.392977876919978
0.370470301531919
0.393666684536357
0.372408206274905
0.380500619013121
0.376353608272965
0.389860993489587
0.374477483186582
0.372838131132632
0.370067206251191
0.383819148521243
0.365389947742312
0.374725015768932
0.365959384751297
0.374639685733906
0.341460792856273
0.357731255450222
0.352812848306037
0.369199584599563
0.347829469065772
0.358585783695967
0.344078023538189
0.346381059175553
0.334084788543345
0.351689289048986
0.331030222855844
0.344798944551725
0.328576747432279
0.33952747187251
0.323215257141317
0.332854689094829
0.322731361878106
0.334088065473635
0.322144846314097
0.329724544382651
0.319826508033155
0.334237284210839
0.312227076036783
0.321145151741725
0.314377471681547
0.317649453048712
0.304714767163375
0.310443004143685
0.306781385253122
0.309295368699737
0.291485640276871
0.305721152330392
0.291452032994914
0.295575952318412
0.286629597079185
0.290834193041187
0.286880076416524
0.297334929967904
0.284693842153872
0.294395383052042
0.284062431313177
0.287044472504193
0.277161312551458
0.294016450134495
0.274024804191589
0.27999215627963
0.266828162254028
0.281744701344532
0.266647498243079
0.278674263303486
0.269996472302176
0.276393425507246
0.259730217051738
0.264701714159237
0.254904748961655
0.2605509382513
0.258061123388221
0.26598887095251
0.255541247178
0.258484795990383
0.250881368196869
0.259191423020875
0.248910191146431
0.250253233186072
0.240557822605734
0.252251273481574
0.242236352244327
0.247928031425919
0.23389325019869
0.240540660211153
0.238363689349653
0.243926551199439
0.232537241192698
0.239656744151915
0.236655842687479
0.2374218024077
0.222772160861168
0.240049908657629
0.224002469793448
0.231512813765314
0.219452846730528
0.22488954025099
0.21755445452722
0.227239737832327
0.21897667676331
0.227279979463094
0.209893445654229
0.224363140557651
0.211162425692822
0.21182300873986
0.213032286780557
0.214195565150479
0.204648963214913
0.207843488750348
0.201437611426152
0.212214322856075
0.203086379261709
0.211185571112412
0.197428437810034
0.20629657491399
0.19814805971018
0.203949724642339
0.192977291392738
0.206092748570887
0.190022357099236
0.197036884162906
0.191289649994555
0.194075219156094
0.191485865399778
0.199036449442228
0.184119594363758
0.189323582586913
0.186211751712985
0.193256100103221
0.182711294797743
0.182162814095167
0.17909415891405
0.187988662341872
0.181373750703781
0.18432319266166
0.176339707620405
0.186552103645498
0.177202471018282
0.178757654181395
0.170287356526998
0.180250693244629
0.170960256229194
0.176431322407943
0.172325783641267
0.174544072354174
0.167066734059505
0.1716454238566
0.166773626192507
0.168146853827234
0.162489264004229
0.171944914282944
0.163515447912843
0.166052890835807
0.164143915274315
0.16973933769556
0.156062107516215
0.161147229078318
0.160324461251438
0.16438259812607
0.155847753504243
0.159285262922581
0.156074480089567
0.160562100912678
0.149973533695205
0.160026380652626
0.154113041967084
0.158842450231959
0.147295280139889
0.150225220358507
0.143665153833696
0.147886873714812
0.145669476530787
0.153468205496295
0.148039824541241
0.148316416577924
0.144983622035927
0.145879189361243
0.138694026496316
0.148870797581448
0.144502823337376
0.149479802072051
0.140499408892962
0.145326049333956
0.13765448524227
0.146642817574206
0.145828870782465
0.141517190157723
0.137494847227293
0.146125767265616
0.139058001849834
0.144350556976602
0.13357192567188
0.141712806614209
0.138202075341903
0.141752314641422
0.136880560201277
0.140322059967998
0.133717874839593
0.141535255634674
0.135620419652273
0.137076801689472
0.137403989643107
0.140810419993835
0.136327178887861
0.145642579292707
0.134008261114156
0.142642183733638
0.135882610085435
0.141607222146614
0.14051634948518
0.147306729398077
0.136965126044761
0.146213481059061
0.137071662570035
0.145768597759408
0.142467699300845
0.148254028257842
0.13857294589642
0.145829745012628
0.146439040314155
0.147891707004066
0.145388278042624
0.151691885442654
0.145758211885812
0.153593657728557
0.150785522570643
0.153803157505491
0.150631564915948
0.163027364290139
0.156038601738225
0.160230215909674
0.156982455172114
0.160542908450597
0.15871551391279
0.165199197154383
0.161593409660132
0.164952844962536
0.160733635842824
0.170095113518899
0.164954180108745
0.17190114836389
0.167933206435233
0.169363996618293
0.172099936435413
0.175451518531825
0.171322862636969
0.176253598217662
0.173091747320037
0.187742073923237
0.184363632384666
0.188719803252682
0.182817183592033
0.187783071470946
0.188450450061371
0.194717386776732
0.194460211659013
0.201992065339679
0.195924896636396
0.203618112305405
0.201257987697692
0.205923335111435
0.202069556097866
0.208057377409537
0.205649374094539
0.214085485681503
0.205322504371216
0.21425455178274
0.213147593306137
0.217571768063033
0.214396717669329
0.214243682699388
0.210840029420604
0.222006649592826
0.219454682073198
0.223741048097984
0.212707760858396
0.224638428443864
0.208855735443623
0.218072413740736
0.209385113586455
0.212647919992195
0.215781413998333
0.221626601953065
0.21033168394889
0.209331330469434
0.209154605372383
0.214108929989171
0.208661177144698
0.21401816369547
0.206488002964619
0.215752027121518
0.203884126936067
0.210850268691804
0.208565646684842
0.214812959299842
0.202945175017291
0.206460707262962
0.207539850512166
0.212567607051803
0.209779714602706
0.213464332230298
0.204855139503074
0.207303495988408
0.208600976686726
0.208750466068785
0.205113562050907
0.211516724864888
0.206957876010501
0.213858236534464
0.206307098200703
0.208071525255167
0.206364362793118
0.212749320904838
0.200699428128928
0.208094289660006
0.208365420520577
0.206500857840768
0.200411980111124
0.208603441770179
0.200890924285764
0.20464067892723
0.198892612219013
0.202756624636666
0.193917351056144
0.196763060822853
0.200194002287037
0.201039407001393
0.194676694897933
0.197439458381868
0.191084769734789
0.197120486946635
0.191819367760632
0.19154128745699
0.186053169456095
0.189616708131058
0.186013957036268
0.187554079925543
0.178681427735927
0.18244241973952
0.173892859124066
0.17523818901911
0.174019389524507
0.178346275583779
0.171891781957014
0.172463855212661
0.168201974960431
0.168872511973071
0.167917175945476
0.170397787925178
0.163145046864327
0.162640413593887
0.160530124804855
0.163777351042409
0.15687881329801
0.158424685295297
0.15302829468186
0.160652184942475
0.150167492687495
0.150898161611784
0.149928604684903
0.151453979660475
0.143154264734642
0.144809584744058
0.144381920782613
0.146396700552581
0.141177047980951
0.145195726803401
0.140254443654022
0.142926795414316
0.140942282773032
0.141703653122951
0.136965237368392
0.137505023908424
0.13838350393986
0.139405857271901
0.131915139499754
0.135819253820479
0.128794627581058
0.135645895329287
0.132539685375753
0.131707456218709
0.127529794675059
0.12908518955889
0.127474514908283
0.133351460444301
0.123268590636231
0.12477410441434
0.127888415872557
0.126067174179521
0.123496657350865
0.127697670712795
0.122464414752494
0.122762291958065
0.12339363965726
0.124303504977909
0.122524815257122
0.124814354340512
0.116072982467657
0.122018258743518
0.120713202700218
0.118598196030614
0.119427904043445
0.118091192293652
0.115867695163733
0.118224675153529
0.115168486005986
0.117820563296566
0.115663161371678
0.113784041952235
0.116580024252168
0.117683900200073
0.113304428054191
0.115455325066254
0.109580535640692
0.11367659816919
0.109186593680925
0.113535575206234
0.108569223034965
0.10903844385342
0.105897317026908
0.106372995194425
0.110950096624675
0.112248524542684
0.10685002488578
0.110196842832134
0.107206043387656
0.107928889252914
0.107611344588749
0.110112185550579
0.107013953163791
0.108559763093873
0.107208464128883
0.104605047409182
0.107301378731931
0.106243667898762
0.103211066511122
0.111211735753879
0.10766561561752
0.107936713801311
0.102097525052093
0.10578054952342
0.102199286564961
0.102656563236273
0.100929706484539
0.103091100726606
0.104059245586113
0.104493651393832
0.0996853527740598
0.100785565892135
0.0998585259533702
0.103594016279638
0.101208737709937
0.103692886312828
0.102439776738706
0.103407525544296
0.100882783777771
0.100142208263396
0.0970281350637899
0.101391716109827
0.099151693661173
0.100024027359616
0.0979516484131938
0.102347112860573
0.0982036827053353
0.0947601071735547
0.0970029695990214
0.100661532363458
0.0962665943540985
0.0961791088916014
0.0937227363420087
0.0984740177822826
0.0945534112762511
0.095021007357282
0.0967072770865535
0.0964270976513998
0.0927543332598524
0.0945908586600637
0.0971450968345233
0.101073483190667
0.0962959149622974
0.0978743201464192
0.0975230663790917
0.0967277761214296
0.0921844952941343
0.0916652807939682
0.0934527160817124
0.0955183685093836
0.0938669828729344
0.0988687717406145
0.0937829295113707
0.0945449673888511
0.0968778922641056
0.0939511814534615
0.0945819344793432
0.0995268828402831
0.0928009639590333
0.0921465218723805
0.090775507807995
0.0917679293164234
0.092526811989924
0.0956422222651876
0.0904111445553139
0.0890566771188294
0.0881926092532769
0.0933713912278799
0.0917948355993886
0.0924601466932689
0.0912297074063187
0.0914030601098112
0.0864370507394601
0.0901469455168223
0.0916032658706867
0.089725339046652
0.0862750366334562
0.0896589003248204
0.0861002206270351
0.0894181819534446
0.0907304921081815
0.0894166579532555
0.0874105896424787
0.087564232417708
0.0864220351351506
0.0878773715929032
0.087830943812974
0.0878267105592962
0.0871028807285704
0.092075743599618
0.0854342584543472
0.0848983021026099
0.084146145282248
0.0831281213845466
0.0828300347137312
0.0867736957458745
0.0847703258794223
0.0864989983933376
0.086739924846112
0.085563778270863
0.0839293507994078
0.0867144754101165
0.0832220815271852
0.0865254055409655
0.0832636601704731
0.0826544010402205
0.0845129711085513
0.0832977584157349
0.0808646807557071
0.084057344646572
0.0828223994139729
0.0823907894065684
0.0831136509181333
0.0822342909631355
0.0799866378313494
0.0841023382216062
0.0806422674526131
0.0790258679146629
0.079407482031818
0.0803306662390532
0.0774937095610309
0.0809811426786734
0.0792208318420092
0.0801296042923305
0.0757398797186417
0.078361781333271
0.0799883953176992
0.0770658323429431
0.0758294541958252
0.0784673038368123
0.0781571961286009
0.0769463421525643
0.0750476790907846
0.0796947903807851
0.0759005429974032
0.074486856289641
0.072530109303926
0.0774042482375631
0.0752144363436577
0.0760541643064094
0.0743068908881869
0.0758269541898932
0.0724435645731221
0.0739210491823148
0.0727301568138796
0.0753710372343543
0.073486797756654
0.0693494078912223
0.070995037751335
0.0732218217641174
0.0722044007019619
0.0702790478167836
0.0675212817724586
0.0720633110111168
0.0684908746051536
0.072499934257314
0.0679097183347153
0.0704840555242753
0.068505554639459
0.0688653461367156
0.0658703844702443
0.0674049004813915
0.0677277466928214
0.0678516730150788
0.0673897662809222
0.0707621379190168
0.0662583367063664
0.0692265551309252
0.0687256469426367
0.0665620280609234
0.06550077666026
0.0688121615008064
0.0641461286194768
0.0660121117117654
0.0647051829040785
0.0660072424811211
0.0634988807145365
0.0654298727293559
0.0646396135993403
0.0663786832970958
0.0628268868696064
0.0667149086498713
0.0638004096478518
0.0661204396296043
0.0633452504489494
0.0648274907218761
0.0645806997027807
0.0646863738504282
0.0641226367477824
0.0631485536997689
0.059927583914726
0.0659179575007509
0.0632895494096183
0.0627448229367348
0.0614849155061806
0.0642619219996772
0.0607424284601265
0.0629568557547336
0.0654338115796781
0.0639312788362864
0.0607328835896383
0.0615814219151891
0.0569269948644119
0.0575140115041661
0.0601701198185428
0.0592616505221401
0.0606169882532498
0.0629760603133885
0.0586655898676998
0.0589982384609122
0.0603200252011075
0.0642149702395454
0.0591176620361971
0.0577014003676337
0.0598373606706251
0.06092055235418
0.0578996125904231
0.0603456976198905
0.0567033873446701
0.0558070736485419
0.0557466557844546
0.0605472627810536
0.0584301269490633
0.0601605494568015
0.0586274524413702
0.0581133597978894
0.0589957969775597
0.0583181051315445
0.0583645314377048
0.059716211346714
0.0565641293524051
0.0566514343928014
0.0568930304250437
0.0587777792393116
0.0577265629413473
0.0577730931767343
0.0575173727008917
0.0581836896985368
0.0556601836881585
0.0586656334492716
0.0585905235486603
0.0564729336999221
0.0565674822018918
0.0575477831896958
0.0578103556195793
0.0584003670540593
0.0573105813316979
0.0557737152962297
0.0573566952302101
0.0559964923527407
0.0551071677689862
0.0572276603069194
0.0547533222278822
0.0546750413280682
0.0543380809425342
0.0559909424286573
0.0539385614532185
0.0528195503700677
0.053139343383527
0.0546031765116253
0.0511692348327338
0.0536577584610786
0.054843902618262
0.0552546750108119
0.0539503308657088
0.0555544947695201
0.0522072976326973
0.054324774541594
0.0527305929330531
0.0540727133198445
0.0519960839982965
0.0555967921756707
0.0539927804969052
0.0513152724943357
0.0513527618170486
0.0507252070437911
0.0526439052768829
0.0529062623131723
0.0532669038242688
0.0521094372205621
0.0502790750568242
0.0537506921424725
0.0516500925524805
0.0529587853083415
0.0529561588841855
0.0524694311834442
0.0512343170525552
0.052109147297123
0.0507683634743531
0.0514470425655001
0.0500560921605919
0.0521620444498237
0.0521475059591669
0.051304934341759
0.0487947316535805
0.0517695353214009
0.0500712737948069
0.0527665804585506
0.0498603958470377
0.0513423789906964
0.0500921081311585
0.0534040434646791
0.0524580414327337
0.0511867653496807
0.0501910149084203
0.0518386279821317
0.049607979179454
0.0492910969275509
0.0504279144367198
0.0505352496658644
0.049343856600325
0.0498286690405613
0.0485412036815388
0.0506382853549041
0.0498221410217178
0.0485989222800791
0.0486217091448248
0.048504959895993
0.0493393539625155
0.0500657174409661
0.0462049045498929
0.0480489797169672
0.0525592358322218
0.0483293631664125
0.0472260998020446
0.0489606743656724
0.0501328104268017
0.0497863516985098
0.0461006222298303
0.0477691458478092
0.0472980435774588
0.0477861895503701
0.0439351225785751
0.0470321355531131
0.0469977612121615
0.0468800467497052
0.0464592640646958
0.0460686506922591
0.0475921190920483
0.0488781091754873
0.0452490495108768
0.0442361814231936
0.0433276998017335
0.043694652926178
0.0444439598815467
0.0465278470856286
0.0456538900324404
0.0438405059160049
0.0438915883418119
0.0447817243575195
0.0440171866078004
0.0426743347651536
0.0426112254226219
0.0456919653619445
0.0441933110729917
0.0443576893812326
0.0432070463156801
0.0453022666041786
0.0424203034200762
0.0422135006765261
0.0430140598128375
0.0434539782273754
0.0437901962674485
0.0448962561774827
0.0423092073333739
0.0420255326172288
0.0428325339749541
0.0432058240109773
0.0420651650705505
0.0428929525455231
0.0406074607395367
0.0439146170973563
0.0394703115059256
0.0411917793952557
0.0408819081671828
0.0394749883476082
0.0372554625123277
0.0422539415812085
0.0389406795699218
0.0419935648836621
0.0400843125347645
0.0424074252693519
0.0409211946778636
0.0421385432599048
0.0406964638652774
0.0413336482459045
0.0419071968150782
0.0414573465784184
0.038374153032267
0.0385618934100597
0.0412569150363103
0.040005136335188
0.0395827956368815
0.0376975336123141
0.0370657517804264
0.0394414294427521
0.0380585544099667
0.0373905691969677
0.0379291798399831
0.0379114415400699
0.0387317463513764
0.038785545365767
0.0368970815772127
0.0363576418238693
0.0370694728927274
0.0377511265163034
0.0360306502698682
0.0381448516595033
0.0350218135355979
0.0375140395933084
0.036948349994573
0.0399626827492701
0.037019778376873
0.0378263100272601
0.0359703087521434
0.0365527768712461
0.0402115962154594
0.0385366754432291
0.0377151773036467
0.0402501036228983
0.0379453492653864
0.0400107665661995
0.039814245542028
0.0419492738192318
0.0398918253254904
0.0429780014081287
0.0402768519866258
0.0442617943475902
0.0432823863107146
0.0454353292661113
0.0443909620783581
0.0464557715100459
0.0431005220766089
0.0476850386479668
0.0437710020752922
0.0434871616225845
0.0346581997999418
0.0331152299687038
0.0404310275598556
0.0445471968081988
0.0378707507100817
0.0366016933403665
0.038343934397459
0.0450031534417332
0.036070665686238
0.0381344449957774
0.0382731104829814
0.0352613090644469
0.0409090130722614
0.0356033828113514
0.0291916038152203
0.0418288028895079
0.0360223745131273
0.0452098387024115
0.0335041161829701
0.036912549429745
0.0371021360209423
0.0454563519251622
0.0306240430889791
0.0421950654842724
0.0323487269975671
0.0436005480745142
0.0273749640964077
0.0378190357695636
0.0272711009409772
0.0396392096318413
0.027199146625617
0.0413006851956849
0.025279271391823
0.0487063687365452
0.0296190271654247
0.0519840087497887
0.028793179635298
0.047060340577534
0.0208900249726938
0.0405958085837293
0.0246916361702185
0.0544129430555698
0.0314927029312225
0.0569404494891501
0.0189433516862709
0.0448196468717813
0.0283851977787196
0.0588206319047615
0.0222672264779133
0.0439047802946349
0.0306555657149958
0.0558740319076867
0.0366848232626926
0.0407998551340448
0.0380031567139606
0.0410017510800626
0.0462893827837098
0.0281872708059761
0.0506267110779364
0.0260452955708263
0.053092904749562
0.0261037642500725
0.0502262689899602
0.0271449351651414
0.0454765713680194
0.0312037668285403
0.0443257001882414
0.0359266429432115
0.0347926220904443
0.0378598836641769
0.0329238893254968
0.0372886957925102
0.0353318143882149
0.0344890530790049
0.0397278832505705
0.0316215500183237
0.0381374442601703
0.0319851710853104
0.0380789782052958
0.0316540975842151
0.0348729424283312
0.0316212660838469
0.0321539358688679
0.0318749197623974
0.0320723949088767
0.0302990123906202
0.0352841897944662
0.0326665397499845
0.034519388596624
0.0319500448513718
0.0340368578666084
0.0311855953035791
0.0317466088427624
0.0279117696581241
0.0323556548493953
0.030709599623971
0.031847108646793
0.0300541069284701
0.0315265312703815
0.030219409150052
0.0323165889079006
0.0285709678017703
0.031337327032291
0.0308338939572368
0.0333480657076382
0.0318717777640548
0.0354967624510239
0.0323086034606282
0.0329401969963503
0.0306450439623587
0.0339189771816896
0.0310043528953345
0.0319916850593498
0.0306517881713274
0.0297463547727447
0.0318750008378644
0.0319158534790143
0.031527879404824
0.0331777536362709
0.0332205491760518
0.0328257748605121
0.0307345273056564
0.0322061991038603
0.0317704944869713
0.0321392256600938
0.0288751661738565
0.0313910849812538
0.0295266116740426
0.0311302160656781
0.0304284251866687
0.0318657950899269
0.0300451682968885
0.030454207051029
0.0292937074148404
0.0299670961738282
0.0286245440373536
0.031350139455703
0.0310225945559574
0.0292720124093772
0.028543506878648
0.0334161724309261
0.0291250260165164
0.0323530437385764
0.0299572261104991
0.0308388215567013
0.0310468216431884
0.0310589882922066
0.0315243631071806
0.032321504024538
0.0297014022612447
0.0302979868612782
0.0302045820755548
0.0309138292612071
0.0297128757051369
0.0294146885570697
0.0292130610048511
0.0278687024090769
0.032335860285708
0.0311415966747027
0.0298743638661184
0.032386234953032
0.0283722181046652
0.0287779229764338
0.0293618498225298
0.0326105929558756
0.0305597925785397
0.0316609158090506
0.0315665815123996
0.0324725111071934
0.0294062301491338
0.0319238504156283
0.0298278325149228
0.0331870928355861
0.0304198902804743
0.0306087959963973
0.0301149984255447
0.0314330235890499
0.0318372040885262
0.0333571609197313
0.0330222234947107
0.0315407670234483
0.0303573686619818
0.0311530967624119
0.0293539393586959
0.0310281651978689
0.031641521358077
0.0316419366116448
0.0290821122615663
0.0306514292561871
0.028342130940475
0.0310925115344494
0.0309337757955766
0.0315156340699637
0.0310128228037345
0.033369560013341
0.0290994842485011
0.0308238417560386
0.0302733327756492
0.0310258032753738
0.0300841686750212
0.0328919024646148
0.0296890172053156
0.031269047488612
0.0323398154810423
0.0301019810049587
0.0299478247021611
0.029294642890485
0.0294870225597088
0.0306570616005976
0.0295853452751699
0.0304579137511266
0.0320891106330389
0.030246602821464
0.0315660332787605
0.0319163616377117
0.0324273445699736
0.0316463484711683
0.0317251679259721
0.0318347170369905
0.0311100321652657
0.0320046771875017
0.0319410118852385
0.0310515603520368
0.0329331097973906
0.0330576856956049
0.0324928047104127
0.0334554130311529
0.0310264207475684
0.0285190902902333
0.0318363948193263
0.0322933881903316
0.0302925531198722
0.0323181166265485
0.0313099779671853
0.0304828667465457
0.0312213163517462
0.0319272180231887
0.0311543370143565
0.0308004650030589
0.0315131494437738
0.0309863436928684
0.0302565364619494
0.0296446992019199
0.0294142981642476
0.029934935108534
0.0305697627513165
0.0305438981490199
0.0318686089342239
0.0297940278733693
0.0311974177050249
0.0300871976521533
0.0326981370115535
0.0304379661488534
0.0316573474791888
0.0314743758102247
0.0296737787908161
0.028835649871443
0.0307422773976467
0.0301768372295529
0.0321642049296167
0.0289481811518254
0.0317539523867275
0.0296808503235778
0.0283280407156544
0.0296304044113007
0.029707699980159
0.0279683784881492
0.0309144606906773
0.0308329376487132
0.0285900113312101
0.0299443533779684
0.0298264004350015
0.0313523730866698
0.0293538760893647
0.0293234598537596
0.0294310138614374
0.0305502886403143
0.0304926089500395
0.027654254586786
0.0286376981012495
0.0280320478494596
0.0296353333541125
0.0299197769983109
0.0296260438642097
0.0274011180496275
0.0282228155580725
0.0280407841466361
0.0282850570465519
0.028692354686212
0.0296808052215616
0.0286746718460808
0.0286472403904779
0.0299800001427879
0.028251079459554
0.0280299422154291
0.0293173355694747
0.0279176101242123
0.0281323701361005
0.0302066298152286
0.0334005360928339
0.0304414632571263
0.0280662136771659
0.027885231906418
0.0284200928894013
0.0293104019120261
0.0293194905735068
0.0286928541621343
0.0291342332189308
0.0304043205342201
0.027231022240744
0.028682108120125
0.0297285891250385
0.0291476923478292
0.0270317307055646
0.028597670567464
0.0277170880059132
0.0275777424375162
0.0285052323616227
0.0293711217725104
0.028493538710716
0.0283296115829543
0.0278897848525798
0.0294506237291364
0.0275618127614382
0.0273527372342909
0.0281251212886841
0.0323655606193142
0.0304505634608389
0.029345941190673
0.0290232930055559
0.0289791598825275
0.0297215503125666
0.0286631795380472
0.0267694350019195
0.0275193000820212
0.0285442336074854
0.0274510499472713
0.0292507537616926
0.0262601482163712
0.0291823137212888
0.0295093423552052
0.0285825941144793
0.0271164289685406
0.0278228345641587
0.0277189675732639
0.0277670791108896
0.0292246763701139
0.0275310550973281
0.0282229491920305
0.0284369080840895
0.0260712810773124
0.028449495881516
0.0340209613055474
0.0281964592784939
0.0277797722904616
0.0257775932165674
0.026140120420371
0.0267935490666825
0.0279544766904582
0.0285618378615745
0.0258306593974133
0.0266168146850361
0.0275893320139288
0.0262568383900593
0.0280809443615837
0.0283799000952414
0.025524369596977
0.0248294228845689
0.0292468277407309
0.0264774282052724
0.0270714877976828
0.0271486115291282
0.02741432177806
0.0252109730430539
0.0266193259009811
0.0247384755816883
0.029471279142904
0.0289569925193755
0.0351949385075034
0.0298680313290203
0.0249090379995095
0.0269916721919474
0.0238730650371064
0.0260182209447772
0.0253344689108588
0.0257866046541923
0.0264455323446295
0.0259407099623182
0.0264600966776774
0.0247659719186007
0.0253619573633545
0.025243536337935
0.0243966932590694
0.0264246648140531
0.0244123905391141
0.025694007510433
0.0235084134290401
0.0258616408561937
0.0236298015279328
0.0235065436337665
0.0235550651509074
0.0265724584135353
0.0210065856723071
0.028536309921601
0.0312433365699913
0.0424238240628209
0.0263434918504359
0.0254451703835026
0.0269379597153903
0.0314266146705592
0.0243587547471898
0.0256457965928162
0.0238795270945773
0.0264837919745126
0.0245691506050088
0.0259815888465989
0.0274985747846025
0.0237508725071308
0.0228605072383936
0.026102075439351
0.0235484054510466
0.0251162250044066
0.0222288752130142
0.0248036428291261
0.0260448530245277
0.0252349503014803
0.0233230679593298
0.0253307110620551
0.0243625314316087
0.0246273514882899
0.024377584929023
0.038275951858413
0.031953504346143
0.026626367017281
0.0241556578928055
0.0231053973895758
0.0233568033410042
0.0226800399316602
0.0258716095255938
0.0249706064651708
0.0236212824898088
0.0244910352622981
0.0226849654661779
0.0244601362203336
0.02822148341415
0.024360297825023
0.022678141730579
0.0250201265485176
0.0210293629242685
0.0230549596450925
0.0242186489940782
0.0227193707082767
0.0231331334592585
0.0233700572826556
0.0309068789034326
0.0249735050478044
0.0258130735268349
0.0300921751104801
0.0543072405362668
0.0263564649932879
0.0267339861557442
0.0241891669585808
0.0234321530732667
0.0233063436165674
0.0236801370884454
0.0221777980961524
0.0233716249691174
0.022534829143599
0.0254606386906758
0.0235647801604967
0.0270118338264086
0.0230634109030838
0.0230780862448491
0.023091744793337
0.0225264798661218
0.0238729016106175
0.0226791603349179
0.023096130031194
0.0319324186990365
0.0426586475517242
0.033449195381708
0.0206518121587971
0.0285290856875531
0.0256459971780132
0.0470812405872113
0.0396080560138061
0.0178848304001425
0.027944468888252
0.0185056052882432
0.0269163106700832
0.0193284782184808
0.0260602354527235
0.0224129913178902
0.0384244678247478
0.0218055810926722
0.0328173449777879
0.0219688842419792
0.0259413093412597
0.021132169137406
0.0239044009818515
0.0215124932033632
0.0228815565151939
0.0225752567108623
0.0226040415205985
0.0212175910358421
0.0215524752175654
0.0218647804632897
0.0238109584520978
0.0246640541523788
0.0378330225983235
0.0192257488483518
0.0254945632163069
0.019744662147387
0.0261775497625188
0.0312725068572178
0.053892423793825
0.0189557836195556
0.0279715725698082
0.0216051424077813
0.024384413702018
0.026873633479126
0.0226916639392106
0.0219635135459219
0.0227414108225555
0.019572026025844
0.0241743734275455
0.0234485312561904
0.0205966600593878
0.0231859883586176
0.0214646909413087
0.0223166355046737
0.0210963275407522
0.0231657318729839
0.022237613778675
0.0255974814911283
0.0305439663420842
0.0407125516663435
0.0640488010375228
0.0358511217394996
0.0438599884019013
0.0256858979540769
0.0309403752096712
0.0230873421959663
0.0282349786665302
0.0195300687061966
0.0307306830166748
0.0191140396835294
0.0277584350216103
0.0213875063714664
0.0259302687974043
0.0195197731417712
0.0254676217863831
0.0178634948198374
0.0250675515524167
0.0175390525636206
0.025264615496669
0.0180705529754803
0.0243704570238767
0.0214181332584065
0.0367868903707561
0.0338502326331757
0.0257827394074297
0.0368292993843213
0.0466297119828884
0.0649712154331417
0.0229825198286941
0.0380550387324675
0.0198310981429547
0.0226212654666182
0.0198190102875155
0.0260096258035198
0.0312708612788601
0.0275131826774887
0.0222829598240899
0.0239497977079728
0.0230713209643347
0.0256330522166073
0.0260824311442939
0.0413091552265512
0.0663820756520924
0.0395874744264835
0.02119768398221
0.0317764894054633
0.030565283471697
0.0604941976419107
0.0287842012713925
0.0259081730961531
0.0317583156836471
0.0188821720538771
0.023254488583747
0.0165811931222137
0.0271136344746026
0.0284047387166998
0.0289340058127873
0.019149343099936
0.0254555564011649
0.0199917768480191
0.0283398877489127
0.032758965475465
0.0384094087762798
0.037472460216331
0.0261368739439032
0.0257331710932498
0.0322876158800999
0.0220573482560149
0.0291448703572355
0.0179004517921827
0.0297057216231724
0.0339169078587691
0.0482280366568093
0.0361520816378399
0.046905927101185
0.0369495759681494
0.025609641756705
0.0288411300908479
0.0467809403718187
0.0240736127629642
0.0389591839082224
0.0270301702007472
0.0830797905880587
0.0397483885548916
0.0579152464974467
0.0255293321361969
0.028899070986771
0.021993261675606
0.0266035444988132
0.0307912343923999
0.0374750061791417
0.0371186177835682
0.0166540420549244
0.0367018249849072
0.0297574441784277
0.0507900092363686
0.0272212037919789
0.036555271087155
0.0201796089876672
0.0338055756837539
0.0315271181838763
0.0409311459781942
0.0251360995435964
0.0729818524113564
0.0783452381796111
0.0451762847140092
0.0415404359929168
0.0306755294891246
0.0682430039818254
0.0408611954412739
0.023608655394483
0.0338721171757767
0.0181005121775253
0.0338950071321403
0.0337281645444274
0.0661048187299156
0.0422067686297649
0.0236463751491738
0.0379159687999074
0.0334755467937475
0.0531674409836459
0.0460213933481626
0.0217557196864006
0.0291010211906758
0.0260930075520193
0.0491084485369122
0.0574217438651509
0.0817669852376567
0.0354947524145047
0.08770148968472
0.0463798287089304
0.0570628192663575
0.0366671614915981
0.0453375093631285
0.0499671253093347
0.0645598770767317
0.0280400762911835
0.0404915074625518
0.0462689238470512
0.0697144237966198
0.0321129022396503
0.0347779835476767
0.0374683819852847
0.0439226484465817
0.0904952353386392
0.123242867487155
0.0650559114299387
0.0452874177051964
0.0468055831977256
0.0629648057747525
0.0459714868722548
0.0290741153374262
0.0356897751620173
0.0295930426851601
0.0300417320579581
0.0359230228036068
0.0448341812299735
0.0425504848764058
0.0271333362167473
0.0405944865757331
0.0363567203479821
0.0884985641353689
0.100948810267836
0.0874011648522027
0.0652939347971083
0.0756434970569569
0.0785527328946278
0.042079167927418
0.0457673681601765
0.0350335145685524
0.0535152095721815
0.0431624394548356
0.0374800340975757
0.0490340191933255
0.0572020398043041
0.0737987415780346
0.0554995958076227
0.0758688800672893
0.0458557765916078
0.0610948130184686
0.0905604763871025
0.154892949347685
0.108470203339426
0.0439048450757428
0.0971336919076876
0.0602634450782254
0.144848504254276
0.0668241297110697
0.0535328568872711
0.0513878850460379
0.0556284928907965
0.0531300909240182
0.0727403160271458
0.0690255944682291
0.0802075636384907
0.0589105157043248
0.0791107471793586
0.0876100624266784
0.209244185833566
0.13136915828954
0.0966719826373909
0.0715465580737753
0.107255473482666
0.0879524181920906
0.0770458621733602
0.0599673571244235
0.0899277605365735
0.0776890280848458
0.138979528806723
0.0810231893896555
0.0833917286867943
0.0966075337062994
0.103373945404744
0.112205631240647
0.11386264254876
0.149064108818273
0.08316176936605
0.0992203307202969
0.0799795042411754
0.0959579006386098
0.0975449713682655
0.121954538830824
0.120764695354009
0.0952224508277722
0.102451856014833
0.0961307103908257
0.104213838407877
0.101112169932274
0.107356735736741
0.115741554109435
0.16097014523232
0.228819318778279
0.201559274339207
0.164207107776786
0.099997041678474
0.115578386514995
0.116761790092233
0.152793749701643
0.164331833404521
0.149182371295027
0.148656573232018
0.10108803564387
0.113045276258062
0.106704618896423
0.107315835891474
0.107699651079738
0.10200473881957
0.116710862110109
0.121698764873519
0.152382239264738
0.129058406801652
0.200441886080033
0.109218291284382
0.104934104252767
0.0996974433033231
0.106046802647495
0.0977407183376862
0.104185386373149
0.108448515414104
0.125458156255798
0.101479168382838
0.0929005956404818
0.115476812044116
0.123684287613407
0.138727321071633
0.101182419526177
0.103019132971579
0.0981735842938662
0.086447254545415
0.109655135827115
0.112702155545575
0.154149131021807
0.109687224032108
0.093341036646843
0.0984998921305761
0.0865150084414491
0.0926806036811082
0.0876442062450514
0.0972036751156705
0.0955313717029951
0.0948361043930881
0.0931128551694016
0.0974094075826375
0.0852640751247633
0.0938225930246269
0.0886949671646479
0.0941432623663316
0.0866641242750443
0.090557891905086
0.0835378892426121
0.0908278532860981
0.0861739247530632
0.092523801112619
0.0875278105006298
0.0969468527167205
0.0902984754822795
0.0908391745660583
0.0853849629113003
0.0904611136867396
0.0844113163816271
0.0926139766040075
0.0808548414567214
0.0876837766720092
0.0831224848392838
0.0873371452299002
0.0796056826712379
0.0859644647517166
0.082313991990054
0.0894202323093097
0.0809532024537773
0.0861471267881376
0.0820719041725831
0.0930776896860658
0.112547879083626
0.126394427460711
0.121491804922126
0.080436658938401
0.0859587799581577
0.0794777454025628
0.0796294213513234
0.0931631571479479
0.12017061036441
0.121130193443685
0.0807052847920006
0.0796854011387139
0.0815395130757809
0.0990833406661247
0.0893116167956812
0.0791754382301104
0.0699553989325782
0.100707399393158
0.0984506709058722
0.229714014529068
0.175975597969738
0.188964382438057
0.0932622422890903
0.0920904379730413
0.103500196724933
0.116278191189369
0.0781003254397551
0.0686405256701595
0.0888600250010421
0.112369838348422
0.101168168597419
0.0726403826288481
0.0681576880922775
0.0766683116302615
0.111579193885041
0.11427637975118
0.106523994945298
0.116222285307065
0.133691581773145
0.12705572521835
0.158563478690193
0.179531970052464
0.105002996643919
0.0774790902549904
0.0712528448591366
0.0812472371244615
0.0966541900177418
0.125143027450545
0.10302842373078
0.0836158941447681
0.073146696429435
0.0640214918041477
0.0854685252406739
0.0965808973858657
0.0902243920653678
0.10465900198417
0.10499431890581
0.0888930478805583
0.0798371745082173
0.132698827546583
0.129795008738492
0.155611819778514
0.0730627871147411
0.0853774460900454
0.118884806129549
0.130376914775347
0.0983316013327538
0.08485985381234
0.0636659585958489
0.0850816848192665
0.0817122494637478
0.0824366946129248
0.0911213608813259
0.117202731347342
0.130999306067554
0.173591219232999
0.188981541224082
0.131296704021154
0.0802095929066274
0.0658822838170771
0.0627983379779583
0.0772277768164185
0.0587049009795893
0.0808379879272969
0.0821389305677369
0.0892577538716297
0.0787522607762013
0.115268275787975
0.0798858922394743
0.0635772223871958
0.0618736256100185
0.0682584918513149
0.0772250193000075
0.127312562196515
0.123673522932834
0.101174206752745
0.0938414760034589
0.106718975724735
0.0827068862312984
0.0726004066196894
0.0712191759750331
0.0717088391455995
0.0806850068210989
0.0948508532707907
0.0841250985025565
0.0826557829543014
0.078681460640549
0.0923906036373725
0.123837919663535
0.114593139260325
0.107916546203359
0.125701930144918
0.162328089457193
0.154689321874052
0.128431848130558
0.103332931981561
0.104054502975732
0.109212478719343
0.10376741042189
0.115508166959306
0.138774593195087
0.144893733572655
0.120425749113965
0.113862043428134
0.121382557095421
0.117540163554986
0.142570012366225
0.156094677242275
0.186733064555126
0.192395189563469
0.191700859053691
0.164526662812247
0.14000025179513
0.130369818934379
0.138431955619306
0.139987061370479
0.127767836885319
0.129773916856421
0.148203491438717
0.164171593441836
0.141765905382819
0.133795497059353
0.135063703253392
0.131435373765526
0.134512842320552
0.135724635950001
0.133448939940577
0.136011331361782
0.135786978916883
0.143538824222959
0.168435244738233
0.209640082631669
0.173621133748228
0.145694680329328
0.157602930395987
0.152315097435961
0.148665670777463
0.155961026149599
0.172206638122685
0.162989058086431
0.15734668455454
0.158395218063833
0.154946289197157
0.152711101770148
0.181953633054151
0.179240696077475
0.168630410814741
0.155336631707904
0.170983679284159
0.20677887535247
0.218933141822252
0.192729423871005
0.186838392698212
0.180270874648542
0.163695464708901
0.166608934210071
0.161401823445878
0.169081157062069
0.167635188380598
0.170626625769889
0.163199454531952
0.163478531325475
0.165950551196056
0.163498020964714
0.176408548986928
0.193047187653185
0.171852995791328
0.161129271207148
0.1630977169252
0.157723607524339
0.168098976124082
0.192112942091348
0.186974958560086
0.172690083837029
0.171956496904326
0.190924548016683
0.19536021656386
0.174450147686384
0.158775946348617
0.16234976694486
0.160509913747132
0.162539932503805
0.158334603966666
0.182962299184911
0.19261073146657
0.177984248242686
0.163580731817476
0.161964122763347
0.159796218546852
0.167519349009288
0.160092457563769
0.168309119718016
0.163619685073633
0.176836546767472
0.169183232974225
0.168565986953649
0.171363535989231
0.187652813773592
0.197175648505194
0.188884975075712
0.172043381345983
0.170876723227559
0.16368188670385
0.174822729509251
0.174792428395914
0.170551545236728
0.159732919971047
0.164364380679849
0.156102531078427
0.182149061918489
0.194383999985967
0.178999151831641
0.176374819841927
0.163730296437958
0.154685205916216
0.157984028093543
0.155882939037877
0.15603402745928
0.154157637223011
0.158121327239945
0.151267477548744
0.149519973583847
0.144799155396504
0.149629839236176
0.149374886149835
0.148010362537072
0.145944079646902
0.146384544644109
0.143421445420835
0.145489975140944
0.14367542812472
0.149830988815664
0.141270299660404
0.145836657419914
0.165488178821551
0.175387875263272
0.171645017565881
0.156670848412904
0.157194046042106
0.14920130290668
0.144976680502921
0.143553088382816
0.140508805118113
0.140839408996286
0.140571054154193
0.141393471425491
0.139018177502399
0.141966088556939
0.137700480501019
0.143559233810935
0.137349934647803
0.137816778677304
0.139180192287032
0.137246862098955
0.13487787747357
0.138478836235095
0.1393729140293
0.150756446317199
0.139369194980823
0.143085554783499
0.135829714529694
0.13642985621008
0.13748269653357
0.14090036494436
0.140337998021608
0.135653397049135
0.134604450962215
0.132216756846896
0.133064742885606
0.133941911340887
0.131943125246014
0.131689813471357
0.129535963796159
0.130613647386491
0.129288436076239
0.129300625824235
0.128999617605471
0.127183237204963
0.124665287628683
0.125047515366871
0.122885869103755
0.12500500016926
0.121633135136661
0.120741683108249
0.118976567899187
0.119343972639258
0.115644290680388
0.121118045149361
0.115836361228776
0.115030242341152
0.117583105191269
0.118908191805522
0.113743027934746
0.113087126505949
0.109573720675919
0.111905631678954
0.112894805936714
0.11213614947548
0.111042768599892
0.113857943405604
0.11011302493212
0.109705020983181
0.109612009094702
0.114119832891779
0.111616660216648
0.112246553497812
0.110990620505834
0.1154112657043
0.115910385926412
0.116390838002288
0.116437243350759
0.117329325194007
0.114866498143931
0.115779272089163
0.118007467185737
0.118190813806646
0.116709238430666
0.117214783536847
0.116222826233219
0.117913638962275
0.122059018806818
0.119769811835246
0.119029723264832
0.12087455441548
0.118021357805675
0.119616064246054
0.118835466181557
0.119837564044604
0.116788791004498
0.1169999270301
0.116038897772023
0.115831665462207
0.115906328245517
0.116368657339293
0.116384431143079
0.118121053587262
0.11755733037201
0.119675539133689
0.117190194282781
0.116871268228071
0.117130883719797
0.114885470759223
0.113447616829949
0.113427516022007
0.113689662222579
0.115104758549476
0.112968268541625
0.113817680768383
0.112434541625723
0.112617708010437
0.11288291815285
0.112327192210425
0.112209789102742
0.110732163922487
0.110887401325989
0.111570738677228
0.106481275073833
0.112002031398073
0.107761286141542
0.108505606371937
0.10633082638448
0.105968197206823
0.105286382312012
0.107479365359602
0.104840053852003
0.104645374164799
0.103392034504763
0.10248735507891
0.0983961154699261
0.101503166744046
0.100600750537405
0.101435407903531
0.10062477332656
0.102414072209015
0.098428485574366
0.101408585853196
0.0996423758218493
0.0983177138943396
0.0979550218885851
0.0982013631154044
0.0985048728610399
0.0995198597624703
0.098558604792394
0.0988582130851591
0.0978916813742482
0.0986615009637876
0.0985623912293955
0.0983564379581531
0.0971351479074832
0.0956474083915496
0.0936106856139707
0.0930353205298901
0.0931647766956514
0.0927379800691944
0.0907921291113143
0.0897935609718388
0.0885520926229603
0.0887170716581167
0.0855353461869511
0.0888018517968059
0.0870751448368903
0.088196938809099
0.0880533200674518
0.089335751988932
0.0907036780691839
0.0935118777431803
0.0950669457608089
0.0999713759539809
0.100993927847414
0.104659106964783
0.108733188712422
0.113648595125365
0.118365291191218
0.127362071043136
0.129389104212383
0.135640552051704
0.143761662289917
0.148859989381319
0.152050313165937
0.16377106154251
0.166684165956136
0.175633268641166
0.182737611209708
0.190732204492666
0.199045695301217
0.208835784730976
0.212959798899586
0.22419845821833
0.2299289397735
0.239261782542606
0.244389618247921
0.250596614145766
0.256162914555435
0.260553868599991
0.265851692248465
0.270992699544626
0.273753059212434
0.279557288267139
0.279731022950663
0.279905597727754
0.281344254029478
0.281093798375535
0.27992138260196
0.280410503623183
0.273948775890197
0.272813258437731
0.269303957045643
0.272358902612288
0.265722803609689
0.267402733212543
0.26177526304926
0.262173102124562
0.260365292587771
0.260274739464156
0.257526227122971
0.259856128310832
0.259040253406803
0.259217114506632
0.261193810409288
0.264500828087469
0.264475599664344
0.269653390859583
0.267895907909831
0.27096608833226
0.277574061110424
0.279517798511777
0.282082253111878
0.289401900804384
0.288805147994077
0.29430399385427
0.295096660250796
0.301056894002129
0.301974216541208
0.305746472859188
0.307592509843099
0.313772624306655
0.311010376928445
0.310031119750481
0.312089986799122
0.315557393086714
0.31296116917529
0.318110711884224
0.317008328005094
0.319188115808565
0.315175409844024
0.317907972540561
0.320194122820368
0.323336356133636
0.325624116645586
0.333215990382737
0.331225868129415
0.336683058946171
0.340174402781792
0.343568359965259
0.349490163842857
0.351198360790036
0.351613278925085
0.359148194384439
0.361838215298539
0.368286335703761
0.372605467295792
0.379825904930769
0.388265862679552
0.396762226385549
0.402319423951544
0.410982813968005
0.423773146662921
0.428286513781681
0.436978111480214
0.450114705530111
0.456590020782522
0.468787854474194
0.477405499244417
0.49280878644778
0.49979921996051
0.50861624614066
0.511810596316311
0.516529784503769
0.517706323990477
0.521550023982743
0.525804719553655
0.52251565281594
0.517011972907998
0.515670412139162
0.516768357730829
0.509790013109937
0.505918039722189
0.505545781678811
0.499816253779132
0.499179117514539
0.498352209623566
0.494528385234233
0.493256890459995
0.495060282050326
0.497353659412387
0.496563847256616
0.496410765165987
0.507911430666771
0.51385641414753
0.513672210731748
0.525881791649087
0.5316977479797
0.527718603947084
0.545461853613748
0.539056514844698
0.559441179332909
0.557876647795432
0.55838087997218
0.575392853069933
0.570469766148713
0.578640952482386
0.587615468862148
0.587006001580503
0.597178495655959
0.607005445257647
0.61623213357816
0.617710112757615
0.62902131311542
0.631429689590984
0.640174971865575
0.639583672698999
0.636289734098361
0.636408209354148
0.628833857156426
0.635422326141886
0.647336380228655
0.647559760148014
0.647953614642006
0.653268619836033
0.654468657101441
0.652159525757294
0.649438439500945
0.651855378363913
0.64414121113855
0.639248939835904
0.633233290224812
0.630034610609193
0.620161474076439
0.60871591937564
0.595030078633982
0.591496876230357
0.574251947595958
0.55611506540468
0.546828023795545
0.523061772666478
0.515385529036345
0.491583530743627
0.475296565469434
0.455393417534421
0.4431979062392
0.423149363119074
0.410245486449936
0.394133395250737
0.383333361560118
0.373289509293589
0.359905147770323
0.35264671541657
0.341578298740284
0.339869545935621
0.334527126176502
0.326534622220074
0.315411222709204
0.322783297094269
0.307089077917415
0.306727070423246
0.295303779087827
0.29060582893572
0.276079430163295
0.273665845867432
0.264155609698427
0.256869519280225
0.243100439924383
0.235345874185206
0.228527425031282
0.214572941784722
0.210911270905814
0.197823357160984
0.188534787949353
0.175547860588673
0.167515839224632
0.156291856949883
0.151438323925723
0.142166015996607
0.1312582012277
0.125909480657041
0.117163710680978
0.113101260534897
0.10421332736245
0.101659988113978
0.0964422640113507
0.0910978865646366
0.0833558976730766
0.0828611430597948
0.0762296312212987
0.0755923770994036
0.0719613558132475
0.072908653202653
0.0678090474002715
0.0665725166292177
0.0648019733552117
0.0652098879106683
0.0602249024891074
0.0604585176607428
0.0606600896670895
0.0598117840756856
0.0556889804052029
0.061418614944679
0.0581098547051435
0.0610411120849876
0.0588520346160772
0.0584698599086139
0.0612317293065692
0.0588882315594778
0.0560433071618907
0.0635508231172977
0.0655237654778028
0.0657191114381358
0.0652768562562525
0.0646454274087454
0.0667382891253757
0.0698586734913454
0.0650165110835753
0.0693357879244989
0.0679625907923509
0.0714255540448467
0.0711388608809062
0.07167329853835
0.0715141829242401
0.0711052893543522
0.071075300580281
0.0708222849702182
0.0747592719702779
0.0733413861843429
0.071886609182694
0.074099544180591
0.0753657036985315
0.0746856484351501
0.0750309958138901
0.075377919366899
0.0750718644183834
0.0747649920636805
0.0735304781459376
0.0788373120506376
0.0742144391320128
0.0784074260306088
0.0769591899178171
0.0780578119240073
0.0768112535423801
0.0761146853852865
0.0776653964595955
0.0774883394084449
0.0716399880985496
0.0724898943593434
0.0746457884610397
0.0745064284439785
0.0730517539881276
0.0746944317831525
0.0758354287667363
0.0746940162063193
0.0719389483921404
0.0759834595859011
0.0770946293038934
0.0725209891914034
0.0785374063498831
0.0792016939001034
0.0787936184461583
0.0788348655086682
0.0822133534954373
0.0850640505143854
0.0857332825113399
0.0891152073253253
0.0898074768662236
0.0884814688745453
0.0942875310325016
0.0916726958844239
0.089659248817713
0.0867540184185264
0.0856903501532004
0.0921175375797299
0.0874286948162457
0.0855584285511089
0.0817521743996986
0.0827643455578916
0.0801840269590033
0.0719612390305307
0.0756692483693611
0.0806650330206264
0.0718574317144714
0.0742233802244773
0.0776478025168182
0.0810966877634142
0.0771990984132021
0.0806960836166294
0.0725689637930779
0.0759291575159588
0.0750680719791804
0.0825983571978939
0.0788893773800256
0.0792234964400323
0.0726345761200752
0.0753929372036019
0.0701244342056337
0.0765938152195898
0.0745007696483168
0.0716262365068199
0.0715411078496671
0.0771559498943571
0.0775725572669347
0.0751853329331455
0.0672603033569251
0.0772665370780932
0.0730059339549334
0.0766182083534328
0.072359416611701
0.0740172822993183
0.0671018836044418
0.0756010874392365
0.0716912482543479
0.074945031453302
0.0717919906394412
0.0761966099449938
0.0729354055393493
0.0735784597603124
0.0659357686266359
0.071313537799926
0.0631382473413294
0.0701024388800099
0.0625081623496024
0.0704235323739922
0.0685403526132405
0.066748330017543
0.0612437280790418
0.0596705959578236
0.062027304338523
0.0700859687532285
0.0636351032492095
0.0666390590505309
0.0571959680456795
0.0603683422470649
0.0564980914547819
0.0603475238511054
0.0532257543230435
0.0556973201985688
0.0519172947395337
0.0559568903238724
0.0578484565856272
0.0535333735826746
0.0543009956845944
0.0611068932639274
0.0508287936781982
0.0570495646549871
0.0604356146100123
0.0629010932264929
0.0514396711881381
0.0572117580721368
0.0594225630821277
0.0601288689886079
0.0527056589334968
0.0597641983262994
0.0608320182586551
0.0677327041778759
0.0593000947077346
0.0661940520617815
0.0680477031801766
0.0701172275800282
0.0658187507757119
0.0740982940152969
0.064147150693245
0.0741697549302175
0.0663799895783168
0.0683945542841898
0.0591380415564228
0.0784254395481117
0.0733911324063368
0.0755284277158207
0.0746923601241424
0.0870955560471146
0.079614141000277
0.0839835991903791
0.0825395397090102
0.0943093140586661
0.0811948483404767
0.0954605371422596
0.100265181482914
0.107095732422617
0.0994870822354352
0.104090668913654
0.104662116281027
0.119852864842477
0.110662875206923
0.111904524075336
0.117272249924559
0.107569108432791
0.10389299228947
0.12502595288318
0.107036076847024
0.113551627170675
0.117144064532959
0.109077075088409
0.105321430464475
0.115576075367778
0.113382864511211
0.115458269290582
0.110437132204562
0.114557664140269
0.104594074346666
0.115987706750208
0.0922001450329727
0.116747445676293
0.12225689678708
0.124823170450958
0.109933970806454
0.112901204506867
0.0998954723873748
0.103922138797245
0.104450964489724
0.100960781375198
0.100221795932422
0.108811544198082
0.0923011376536784
0.105329048437267
0.0959029469489224
0.108516390480126
0.0874154180186826
0.0932748274787093
0.0935868092875074
0.107400041501173
0.0954264742607003
0.0991099352448513
0.0959106627787595
0.0984186021345339
0.0890717871925462
0.0935974187019395
0.0924535634766219
0.111570983055115
0.0851332468377552
0.103888322019271
0.085101039323866
0.0940737038653449
0.0810628596287727
0.0885789070464665
0.0932065867644908
0.101329873290768
0.0927627191902615
0.102996259181561
0.095438049116837
0.0854270867974487
0.0905322555488877
0.117664640158479
0.0949508360942835
0.107544041773216
0.0832944666268487
0.109556950102537
0.0872427322710857
0.115734577580658
0.0982160170424826
0.118369082003317
0.106433735468793
0.114367583271083
0.0890454211764304
0.13885889968963
0.0854469345583055
0.109085897479727
0.119783502887367
0.134429241941061
0.116895379630554
0.129611710693427
0.104476634362334
0.129492595835374
0.125594878054907
0.122287603029084
0.110822789556125
0.151912398534129
0.123032431802104
0.142665722734639
0.140213119500203
0.155080706913672
0.155830753622475
0.167490306314043
0.12953666600633
0.166871801750312
0.160653686558922
0.173680944163012
0.17218543292903
0.150056950243119
0.109927474430466
0.114574565068886
0.109607853882954
0.131167797381467
0.12149145680237
0.133257701936983
0.08237356877321
0.122625127618434
0.134075886476457
0.116611621368007
0.138282574674424
0.16951534777174
0.0836484092723638
0.128890334241601
0.0674225846196938
0.187946820450319
0.149827198774487
0.137702627561117
0.0726909180310741
0.178465955983249
0.0540112722925119
0.153140119352625
0.133928365243863
0.146251473809264
0.104740645373678
0.131526164062048
0.0615637987161979
0.155025648333855
0.154437740208379
0.107244180730009
0.114475523448742
0.0250149912548816
0.138650323143248
0.103707428495233
0.0497149007649367
0.152627718608001
0.0536480512167241
0.169664560233324
0.134115379255955
0.225973592100096
0.123991546547291
0.153967561501269
-0.00191603456075118
0.219120462455916
0.0530207746483465
0.26829800080975
0.155867299619535
0.160753884226439
0.114116971929779
0.0949358843354125
0.140215863388004
