3596
4000.36533379555
650.420452594757
1
2
2
0.117761171709088
0.119191585800801
0.12475492985927
0.11714670247946
0.122773672646499
0.117653754136556
0.112055765728905
0.11429858916898
0.113151674596515
0.118577311244491
0.114627545924539
0.111677532390091
0.108991516165087
0.112166478919008
0.117317458497777
0.112594499790864
0.106796259797412
0.112655261588003
0.113946155319927
0.115394392410409
0.11647497010067
0.11530107935246
0.115895040556435
0.111063391669448
0.115069016594713
0.123493633174024
0.123166954232658
0.114895781358731
0.120103619750256
0.122151107148944
0.112248741801473
0.121348451254223
0.116318043506904
0.113351319304064
0.11149696392159
0.111511782324334
0.114349110672711
0.113635165764468
0.109128271076353
0.125678912489652
0.127737811202156
0.112968221532646
0.113791565078809
0.112593444902812
0.114375585905566
0.117694557706999
0.111737445181982
0.115403190934479
0.117914262434835
0.121332103869849
0.118462052103257
0.113803725933286
0.120057517598542
0.121785852208734
0.122143291415018
0.132446996550191
0.113151850169206
0.108384606120185
0.114098039663329
0.121523749051792
0.136427997779453
0.133646665289841
0.114030589574609
0.116621701870421
0.110594068046922
0.118833507415835
0.108332340616642
0.108447815785015
0.107074864998771
0.1190353430688
0.117675364482805
0.134511469993672
0.124421386929438
0.11300848948384
0.120948586663748
0.113245574066949
0.103393146118836
0.109082215489971
0.108793902125502
0.132737775348974
0.13021184417955
0.120108530371414
0.109408443287678
0.103096310099721
0.118813404976913
0.129561677131194
0.108379478472999
0.128481273153702
0.141234455519472
0.115918593987406
0.108400018287901
0.107067282595732
0.100141134318689
0.1058248765849
0.107994592644866
0.107793027505939
0.102500619325416
0.107379294073025
0.101702350029724
0.110336061133235
0.13051589897242
0.15387381966273
0.152273071835721
0.125259393966673
0.159931996558731
0.123653670082486
0.122639000269303
0.165572072015924
0.11983865155078
0.109981061363516
0.100263541911439
0.111820001619309
0.106303101655883
0.116910340594638
0.10739088952024
0.137731232241546
0.135121533267435
0.10793224134822
0.102625311633581
0.103263210302189
0.107812972383755
0.159212331198157
0.143798231231144
0.111932636889895
0.12217520004882
0.105820844043812
0.117193054359126
0.169329320271195
0.128940062115571
0.101560302627043
0.102292812122542
0.103820766425679
0.103823330444926
0.125899811846663
0.152368935523758
0.112223499005697
0.112154792257873
0.121410424006823
0.163679723339793
0.167185501203957
0.111112508787744
0.111357733457561
0.101414221102804
0.136320447002325
0.157063365225053
0.117116664154456
0.108433940169148
0.132785297799887
0.110145443210134
0.0980941064789376
0.0963327798785936
0.10720794151311
0.128928547397597
0.126400746577329
0.114010771849127
0.176527179665859
0.174367590221032
0.162292081450133
0.149417134848737
0.110554297433282
0.120276690614203
0.10676858691007
0.10261380792511
0.10863778588301
0.0999724641258628
0.108343275087246
0.135617719981905
0.131277518622642
0.100717514952623
0.131035867918597
0.148270146529875
0.130497364070158
0.131081766820799
0.178525454548241
0.114125976002492
0.115081643018995
0.141802197629261
0.110388570657619
0.101600637950121
0.129468627874766
0.123988508486903
0.100363493286174
0.0966294953447177
0.107663349617121
0.113912729992819
0.127868260760106
0.114254530738396
0.106924071308345
0.100516809531627
0.11138900377269
0.144035176076639
0.169513456011065
0.140659296140104
0.118023266565392
0.105346279689523
0.0960055842244115
0.154602793928787
0.144883256138502
0.0979519126171625
0.0958835159125563
0.0950985477865772
0.102219298811196
0.0952044661386627
0.10136834155589
0.0925441852845658
0.113984945227641
0.147618877387715
0.122957297908051
0.101025505601559
0.102521171039908
0.116650753432086
0.135115007903232
0.161807553853902
0.136430242111107
0.104734307023877
0.107707665240074
0.114024915224975
0.136490053518747
0.103921159790851
0.0990339614968318
0.0945045927982154
0.101316620670494
0.0976083405130862
0.101381879871065
0.0981382905926232
0.10881091019716
0.102566113815493
0.102598392494904
0.100174547329249
0.1061473032563
0.113530397786716
0.107078138082726
0.0965805271527236
0.0979130726182118
0.0933114407224377
0.135302051165869
0.128836793045981
0.11371426472026
0.0997497591355699
0.0966074902489782
0.0966222195586335
0.102242351951463
0.100178472124095
0.105825124510165
0.101970531525046
0.125887225117482
0.131947053309597
0.113632698998712
0.0986795628616662
0.105317644792029
0.123414484869359
0.128024641455694
0.104703777911662
0.104361008211406
0.0947704554765452
0.10262294258139
0.113826701037111
0.148262039975776
0.115739269224667
0.1159995447733
0.126257024179545
0.119963709023954
0.108560534211594
0.124381404384099
0.140398769154109
0.189997002981708
0.140429882039891
0.158106475828261
0.160597491600927
0.128847054390799
0.112852536942832
0.117140672416458
0.133123599229956
0.248752109033417
0.14848965482806
0.110050893430366
0.115503730609674
0.125118489246194
0.108079320390882
0.12600581711739
0.131145043308146
0.161187473121427
0.164345760613189
0.210452816707777
0.155148968690607
0.135569482916313
0.152764341700751
0.134558527336914
0.109501934265365
0.115511799448672
0.106741139835421
0.120975626483326
0.131133286311248
0.14331229688735
0.129500149727209
0.118225105725678
0.12510453256719
0.150055292807655
0.120712266157852
0.117156438383639
0.125277535087487
0.130643193507117
0.106880192375282
0.108256334843334
0.121203126006131
0.131349287071334
0.118046631879144
0.154002094152897
0.16646071900646
0.130306067771986
0.133295717621947
0.148451524646508
0.112592743105078
0.113311703673014
0.10828479310031
0.114410376098031
0.107346119232956
0.110016692804913
0.131742596530777
0.15503868068435
0.118960270021276
0.127605150994859
0.112824278858539
0.109496701421626
0.116485408124448
0.120400290925705
0.111590255244946
0.128701592441675
0.115936401406314
0.130593329062935
0.160080785890155
0.158630698487002
0.13599982206711
0.200443265636915
0.155366924910344
0.133579541698103
0.121671496336904
0.127383434680126
0.123895483865011
0.13012822364463
0.122708395628117
0.12913160820156
0.139104760566448
0.156054767619411
0.124935480730121
0.150921008002241
0.166859186285449
0.250528716724512
0.18889515509107
0.161547825803487
0.138728364077372
0.148360885024037
0.195257384779365
0.184780239601365
0.193735889679576
0.170015842127968
0.144876496599182
0.147133600844784
0.141054572426837
0.145254226792764
0.13586099754314
0.15605058672283
0.148956708240173
0.160362257171629
0.151830630027772
0.165880598015595
0.160633476734239
0.200839624756857
0.194948742830983
0.176269774535249
0.16599586810612
0.178611279058298
0.178581956838769
0.233418966971774
0.219640388805979
0.262242204752278
0.225153447434721
0.283062508267064
0.222177148110036
0.206607198002013
0.179810425109557
0.189243302380204
0.19246842262357
0.21462092080824
0.205290771344981
0.20325918512373
0.194069165127649
0.207164167796462
0.192930330629367
0.21519656820975
0.204260828450797
0.245032046641583
0.236282654488297
0.226654253006061
0.216399007822788
0.239962064391045
0.259423525130944
0.338480117002755
0.274597678875373
0.249933841894094
0.24444832189423
0.236294315749198
0.233456589370771
0.236537998918776
0.240895408909033
0.273010945150351
0.268708705838681
0.309551145083141
0.287363381089768
0.312192465041609
0.271774717797467
0.281107528223675
0.298312725617809
0.301831149289243
0.309346060436754
0.327160798418105
0.271659592699782
0.303402939120276
0.345791807468605
0.325349157598703
0.321930930317709
0.333349058848507
0.294943091261368
0.308113312861272
0.30674955455357
0.319041999510211
0.310483629075961
0.341788625311322
0.326502811682216
0.338788724368503
0.334265864253204
0.347987914586017
0.330679630323755
0.384742403174716
0.346578981586894
0.370806689913609
0.347396080692714
0.349728402713067
0.336931221227461
0.367558136510127
0.395911502768693
0.429612058199431
0.420056449349772
0.416670931197303
0.369291436689657
0.385543156221777
0.3867319736954
0.403300129091387
0.388431335875955
0.414725623634437
0.407700200981614
0.422114249433722
0.398422824576533
0.438095212749256
0.412092388034309
0.447351657494652
0.413950634699469
0.440726633154952
0.422248676638001
0.454870542942411
0.431785791001608
0.462975319837182
0.485375386660658
0.547342789450735
0.508948937494116
0.514117976710886
0.451475388836114
0.473702412681985
0.484333652252472
0.503200083697909
0.465043280578472
0.533177555636272
0.497899227820244
0.503581215691559
0.489525457882126
0.533652333802474
0.502243871143713
0.542842427249109
0.526441858270997
0.560694576874917
0.530480239906376
0.551296065445189
0.517556285130212
0.571518730642533
0.588159646306013
0.571842419885701
0.55668198261329
0.608868030303974
0.569997390259873
0.586222289766245
0.567969668919104
0.607300330858865
0.58164476247761
0.611662449760732
0.584215866510815
0.60602474995387
0.597591493931734
0.657587774087803
0.582691956264436
0.629556276460511
0.608640109738975
0.633473057955675
0.615565071636608
0.683875081911864
0.646649438711974
0.682457102867262
0.635968703725108
0.695103683647152
0.656584913061948
0.655838023032502
0.663440379501948
0.714107717161099
0.664762673479674
0.715383104178258
0.665287909743251
0.718321731121885
0.672339170837096
0.735105519520757
0.686336618002546
0.724855754425121
0.682309876366159
0.75610489234389
0.723118750462315
0.767214663952802
0.756121586046955
0.780185022340821
0.721346042995964
0.766944501760702
0.737366697689826
0.75680780577469
0.770699816590963
0.811740018239291
0.756472254066211
0.84001719947363
0.777187429844954
0.834208543906879
0.741592784538993
0.811068523261268
0.753898677287412
0.847937060813443
0.744756583028262
0.848408585819354
0.813114920486477
0.878776435699784
0.792165974486477
0.863686638006558
0.785997037937584
0.945115054724864
0.864800716542766
0.926096899154934
0.850795409691801
0.913745974327424
0.873036210963522
0.907975182352827
0.871575821915492
0.928427714745324
0.850256361388015
0.884805610149958
0.915150886992853
0.923007043933348
0.903646839874446
0.983983908019401
0.925358482276005
0.963856069803307
0.930633721401035
0.986367624425873
0.898769713829912
0.905557294986281
0.889279811831256
0.974162809065767
0.950122218229665
1.00976878818138
0.971076051924655
1.07604628207606
0.918251894624571
1.01025001552083
0.96650905276953
0.995943930722584
0.99853384233276
1.0361145991289
0.96772822644643
1.12921180094283
0.996030274415239
1.12019197457401
1.00054614874191
1.08674447636141
1.03689750035696
1.0595784942672
1.01776708568544
1.12311701601367
1.03770006407022
1.13449542193929
1.02557756326677
1.18761424214125
1.06723597025633
1.0477991629708
1.01793557171943
1.09996657442074
1.02088615854947
1.16866744578087
1.06852879016628
1.0867265955577
0.972283992952965
1.15218736017196
1.07363591722973
1.20412817561861
1.07701285270378
1.31227942326808
1.11175225547454
1.18565585832538
1.02302054654122
1.22089327653028
1.10110296538871
1.27538444056156
1.14207151925706
1.29534676330715
1.09611563266509
1.26252039342024
1.19948518518015
1.21819872670581
1.15081600220254
1.29178453258665
1.16335004430264
1.30953261385807
1.16202116600601
1.28114214385275
1.14580053779658
1.21051870329737
1.19402906689641
1.17021993078852
1.20631006697891
1.28372244292784
1.12701770949311
1.18710291883959
1.1710953327114
1.35250660401977
1.22386152743791
1.37672585114399
1.2017522815288
1.30300837713307
1.19557327206014
1.26385859410318
1.20962640621645
1.29033816793195
1.29140233392083
1.38018551557649
1.33685929886293
1.35434651474188
1.28025452385418
1.27730016689821
1.31366335100459
1.23573951635971
1.27824061256999
1.33784023879247
1.36781973763531
1.45873481521989
1.25996772845391
1.54013417266332
1.32064878009342
1.3965818421366
1.30197566354235
1.40357390673173
1.24119598594338
1.42305841152422
1.17231023138273
1.45486613347638
1.33120587500463
1.39795240153112
1.34524855264523
1.35726107008286
1.38992592378137
1.55567475212932
1.29656856145719
1.36523317071436
1.25760829777878
1.28334792189307
1.2643752189998
1.43589761624071
1.31162397260089
1.33906305660532
1.3549441501204
1.45236367441213
1.3664481713676
1.55669032341079
1.38487235811906
1.4661009309294
1.34440830456627
1.30339483441204
1.39893555016077
1.57054956672591
1.31179146014362
1.34372204294484
1.4417040322476
1.45193497026127
1.30593039707001
1.5383298738652
1.40548817587324
1.47591522465139
1.49149418600032
1.49523085935478
1.34638085873163
1.40562484050603
1.41189328800932
1.45345331846287
1.4670747963947
1.41349128291097
1.33331230617755
1.49488082489811
1.33725666658711
1.51485310579374
1.46464866345934
1.55355096452188
1.59048598468665
1.50542665447712
1.30116674139663
1.5177820957794
1.43337710045175
1.54732907114075
1.43755122935092
1.4242604374426
1.3834937621024
1.49893523148545
1.40751282493153
1.45717962771256
1.48367012718259
1.4992761746648
1.34067932887786
1.4560277517326
1.28380273532902
1.4098337958781
1.36439439048946
1.56613173883867
1.47060185360026
1.43913343268855
1.47480998843687
1.41820074322826
1.35481129406491
1.50810642097701
1.40994294328714
1.56771897693949
1.3779830169709
1.41827377341024
1.35914809987898
1.39423233706641
1.33337957185314
1.38457450946655
1.55650667090128
1.57592261926819
1.3490302842558
1.50126928182236
1.46004688582985
1.5283268992981
1.42073274603166
1.63836843961709
1.48724927924143
1.41175415414572
1.28713412707655
1.47143027770423
1.35302230148981
1.66549928673971
1.4173822711779
1.4122567927587
1.46456220412574
1.46025033054814
1.47223203055979
1.61632226477871
1.29240247673763
1.42518775680918
1.33697408466015
1.40450692699313
1.54270277062175
1.48647282334887
1.39860549824572
1.41803839896904
1.3287486478055
1.43219921588547
1.35040843079321
1.52368433461966
1.40068776816581
1.6788892636377
1.39844569742821
1.41585630438376
1.36132143814009
1.4119243159366
1.4582851778171
1.5959482334748
1.54007555687914
1.47125792018405
1.40284896417025
1.54487182785723
1.3480931699148
1.46169124981194
1.31024984105359
1.45289869082752
1.36729754266896
1.37032177681661
1.37220416310994
1.39315774750566
1.42819841460738
1.53869980120341
1.32010338390278
1.51274295866337
1.40077045858944
1.49840805077202
1.30785791651294
1.48099926768769
1.26277449068693
1.44530477485251
1.30201234480993
1.37511740932722
1.35082113829472
1.44998209509578
1.4358749862898
1.39815553287696
1.36541537076804
1.34198991314089
1.34575537409182
1.35232415076658
1.33919470805895
1.47803335433032
1.33477439518002
1.42759387345992
1.32467920099648
1.4804039892579
1.35251919764452
1.35995182753748
1.26359529758613
1.38076230158788
1.41576529016566
1.45350499335631
1.3580052386442
1.40144352966618
1.26566959905756
1.34075580619411
1.36368760135141
1.36387123483417
1.42331738757068
1.28929353243964
1.29455956099315
1.26555219906824
1.25247422416995
1.30707099717767
1.31812492807753
1.28494152257661
1.21180795428826
1.28021885960132
1.30287981100398
1.31584136995203
1.31682223017644
1.31631271119547
1.30705960922245
1.23576027886383
1.26704628908445
1.22931975156465
1.24001640118622
1.33351626717146
1.29057082440467
1.2971304886904
1.21958449913049
1.29111417549074
1.29651264571992
1.29791935981753
1.17295565607259
1.20438141229259
1.21533350938208
1.24136348452171
1.19991671329545
1.28297700824212
1.18856449172655
1.15492530258739
1.19178024608448
1.2072160659681
1.17755133112364
1.20567730551188
1.19798674943212
1.20297882946676
1.17235433237972
1.19471775774936
1.1644525231231
1.20759584437662
1.16051819916164
1.27193096466439
1.12147152195828
1.16526330037112
1.10711882812199
1.14057432852492
1.10510666518029
1.16405682931853
1.10252032343135
1.10897303449991
1.07670343009592
1.14988457640629
1.11112427017972
1.13730918587685
1.06528321864765
1.13057845126075
1.05042902664098
1.09006507923304
1.04424474615311
1.07616491223512
1.01778353947224
1.0378228457321
1.03784462941539
1.0525863261178
1.03674150104178
1.04469422053891
1.02239611334086
1.05302711151705
1.00387533816685
1.02714357311888
1.02767820995584
1.03706556376569
1.01097759858408
1.03795563383747
0.987756320021756
0.985526521542648
0.97482405998795
1.02601250968558
0.947537544497348
1.01481017621306
0.957687124644836
0.976360534666466
0.92804766428566
0.975886919418585
0.950825238255279
0.975465778025152
0.921406770245967
0.954587217393021
0.895741769146295
0.93735235205568
0.928879372614707
0.975688720152184
0.914322193252655
0.903618790933948
0.911469827669006
0.910651810266812
0.896000191398455
0.915336693241182
0.863146124912426
0.883028700271658
0.869429111254138
0.880415200889435
0.839958586630822
0.873987126696688
0.841014010513579
0.865309832267642
0.837087316505794
0.863183203583327
0.846799444678688
0.851569982243564
0.814816351829549
0.82842640675528
0.830651847160412
0.82260286109519
0.795618010024235
0.81791203470852
0.808060970227206
0.82391867919534
0.810654482983503
0.815819158109653
0.766855125363683
0.799281786612799
0.776740180527658
0.769151209561442
0.768673587332556
0.781701495118403
0.756536169603588
0.779549225349116
0.755171390384486
0.778786520776446
0.736433221311747
0.755683632080663
0.746089200907654
0.750572783743128
0.722905573941111
0.745023925523327
0.715093204098545
0.72922326767966
0.7269761061092
0.727729716420525
0.706622216856031
0.707642926793699
0.700119867131259
0.702255032833472
0.701907616100482
0.693442244526562
0.68360247347477
0.693503050122702
0.683626839577772
0.697897394207385
0.665835594133944
0.675616183058046
0.660481405110283
0.661882945840357
0.656797582823502
0.67858956641135
0.649937816456834
0.656670599590774
0.633903436329891
0.650112946869643
0.63658451084405
0.636073730327763
0.637832009679136
0.651567342507557
0.625348834303112
0.633112904291717
0.623924366925806
0.641275775880887
0.614830715907943
0.620604196461078
0.600482320131788
0.614243895999276
0.592848594306374
0.602264763736416
0.583022439719846
0.607116404735279
0.588083696527953
0.600212755545871
0.578926993340436
0.583875798101894
0.570006854764836
0.579248751147812
0.565524608007324
0.580441105370698
0.567913671122449
0.578137547013062
0.558614984422686
0.565444745612041
0.557725103168561
0.56661448955922
0.551610936654193
0.558087736166703
0.545106520175888
0.551713782971285
0.54023019128017
0.55148174775194
0.540894908939625
0.542927759358066
0.526941667232874
0.538332149815236
0.53064121952353
0.529621874840743
0.517936799060713
0.52394093682528
0.509142736490874
0.521231394472406
0.497053093142183
0.511579093357061
0.507512385346617
0.505784798419884
0.499187619043098
0.508768386562168
0.486747718038948
0.501514062600289
0.48502309765521
0.497114021599048
0.495036542878698
0.489530408214722
0.483588961851775
0.491706797616521
0.48117292264882
0.484749736328176
0.481410974128458
0.476982127935125
0.465308550092528
0.487398280556951
0.482898533788519
0.476797376862023
0.463525305331065
0.470768489046953
0.463761582202386
0.478964369888965
0.465324666080746
0.46416337373678
0.459965731584038
0.469395082432238
0.465725135915636
0.476476214861862
0.463747617390695
0.471183823179112
0.46057994531248
0.469106308947067
0.46327906520048
0.474134255821924
0.450078174695722
0.47045529563496
0.466477027998378
0.46314486125143
0.46188154739554
0.480249923302566
0.469536953547249
0.472324946579995
0.46595895279374
0.471013965800213
0.469359764222217
0.486448972612659
0.473387234333781
0.481263649214779
0.476980439967885
0.488308109219885
0.481389709682202
0.491266301249178
0.485202389334466
0.492669836764868
0.473135242292561
0.495147984882105
0.488429022476168
0.499249034324011
0.487580768701767
0.491077426429734
0.492703230803882
0.506611439491091
0.498645791504201
0.519768415096594
0.50860965479689
0.511167287087165
0.508672290714661
0.518657713000922
0.512853233292901
0.528726697593523
0.5191218829416
0.53185223624369
0.527249629416543
0.52420056199231
0.532382292627742
0.553427075666458
0.543884234497378
0.553525435806891
0.550418343192105
0.565266345547055
0.56692735353419
0.580734806761113
0.571614105845574
0.583683687313712
0.577491440280004
0.593166912567569
0.59430591446188
0.613223993803663
0.59730397741031
0.620740205825652
0.607172261885312
0.615939018085126
0.600983326974701
0.619238299321505
0.618673843421354
0.62236883761202
0.61751841694514
0.631645068615212
0.625556848550325
0.643768198996618
0.629494049859278
0.631413170173321
0.634704239990736
0.640478106238001
0.615217715580267
0.650329381538057
0.63744507250862
0.635085566820627
0.62787752169155
0.628467347946472
0.62370517935818
0.615163810108104
0.618792344656984
0.636394817503367
0.605096204138316
0.624032965171562
0.623217038851107
0.624498190623873
0.617169526962373
0.633277537517414
0.620388850142697
0.615857659988697
0.601129284875476
0.60829847532847
0.607984562881894
0.623532952565548
0.62101155480081
0.624695256589693
0.603372216266938
0.615447635893937
0.615473847296982
0.610787061199607
0.602815550292806
0.615368181018186
0.613488212630267
0.618737744774739
0.605937238690019
0.618104153351271
0.614324756358749
0.612316859922812
0.608656482922136
0.623190492864708
0.599863364438284
0.605770489684529
0.604360048818895
0.60800835241024
0.605330180256776
0.606681190607743
0.593454820782773
0.598891951719888
0.583139338667766
0.593762373480082
0.593292255797294
0.591746768307264
0.58047120192708
0.595397903981268
0.581855662805253
0.578999616767253
0.574087855228366
0.57169796421195
0.558824594476292
0.568926294533335
0.558425776593208
0.563439357368958
0.554420129141993
0.558505055135012
0.547988070357233
0.547775238037112
0.535149484973231
0.537596962171755
0.53784968203135
0.533793881822162
0.523820260475928
0.528764472421343
0.514600325352721
0.525162515822645
0.518575702487789
0.516341423063861
0.508448296190743
0.507832306456433
0.496235179765735
0.498913539808421
0.492906846052891
0.495346712474176
0.484368429080004
0.490095564509389
0.479544227567457
0.487820313995093
0.474847643013643
0.473735776500794
0.467086197304995
0.468344013467173
0.471268726096564
0.468808395399963
0.463331475812592
0.464774058605963
0.460583536738528
0.461410020884527
0.449811814927803
0.448061528360449
0.452091270035619
0.455846170636981
0.440163563017385
0.445889060095904
0.435825855848212
0.441851441760362
0.431055825315279
0.437556962970842
0.43668297371079
0.435406452863676
0.426283010764546
0.427356127456308
0.426882876709532
0.427443280073655
0.422415203166289
0.42678616269474
0.423182222455418
0.42667470481434
0.416150891010345
0.41734863850734
0.414692812582438
0.40966228082432
0.409578025745269
0.416190694265011
0.405749423127098
0.41271758115271
0.408981795219593
0.403640509452602
0.39909143778454
0.396861080235998
0.401675447422753
0.406211558478992
0.397817350430129
0.398463040128994
0.398534934565215
0.393617269263978
0.3884414035731
0.393048946230719
0.389743894303046
0.389961028924131
0.386783306608035
0.391530308303635
0.382263776050669
0.389943030089029
0.38597181632144
0.382217501466313
0.381689509462306
0.385275080818896
0.381468308231116
0.378575335417467
0.372511066498245
0.377893951533719
0.374468802670655
0.377115971611592
0.370898626433669
0.371613814237294
0.368543182569488
0.367872557265702
0.367472385285467
0.369647859348645
0.369008914155372
0.374584542987539
0.37171983332082
0.371273842892708
0.367146921154459
0.365741110905494
0.362169485681974
0.364334311921522
0.357789725938548
0.358963099619324
0.358283399810383
0.359697408112305
0.363971280461791
0.365472509681634
0.361773514237472
0.363931604674174
0.354326033603175
0.35749612549745
0.360426038422666
0.359208144342662
0.351967910271897
0.355827089838637
0.353501836707888
0.353266340881813
0.347311192754386
0.34979251471747
0.348710897900284
0.350911120736292
0.346517766686348
0.347975281638648
0.351393311385185
0.348276919975952
0.344616362881052
0.345931541307146
0.342195945091875
0.344946445190489
0.337686373523348
0.34359737568131
0.34408633304652
0.34642948966405
0.345969402454257
0.33955158719825
0.341563948045084
0.340976352989531
0.341251856907104
0.349352325977678
0.338929401760046
0.33999582785063
0.338247781268132
0.337736961802991
0.339997558534385
0.339343432589711
0.333544075600022
0.334721463550684
0.33684816480877
0.337967038335298
0.338629692520201
0.343715425404252
0.3368906750998
0.330569686927549
0.33448616602051
0.339038285067705
0.331372853422031
0.3342024331948
0.330420242779974
0.329137908205828
0.330421710200151
0.330775468722844
0.328726861776548
0.331026911239302
0.325821509616208
0.33211113676213
0.332440684862047
0.32896529907135
0.325197821467816
0.32686067431687
0.323206798927523
0.323212255438012
0.32569122991072
0.32659626053533
0.321995149574737
0.320074372981051
0.318467148429974
0.316959819210491
0.319569126127883
0.322111926748539
0.319563759346967
0.316449484291912
0.313494990904919
0.316873666774573
0.315327093707276
0.314339843262343
0.312925182432
0.314999319619796
0.30996712579675
0.310318354561427
0.308770882108241
0.311644143307924
0.310284366768587
0.312502135128231
0.312598894022724
0.312165169028556
0.310989100702819
0.308920187827005
0.306538511901035
0.308499152659491
0.310059788955259
0.3083597864261
0.307214460321447
0.309809219709892
0.300281649631208
0.303357385113549
0.304750964173873
0.299943282807591
0.302726392615635
0.308024771525075
0.304477627786753
0.299859949818332
0.296241824193401
0.29630079689069
0.29681521939826
0.30149795186951
0.296643888925168
0.295869180035752
0.29397538937914
0.297886763304815
0.295284631806115
0.293577024258813
0.28821340852339
0.290821922705438
0.289434685196114
0.287512309425859
0.289249975570487
0.287919648758163
0.289051940483791
0.287318349800595
0.2844684315653
0.285338411715874
0.284677996287027
0.2821670059687
0.280483263569263
0.280301272381592
0.279112987672078
0.282088860749129
0.28130087392475
0.277430191168446
0.277062073748658
0.279637223297036
0.276343328002557
0.27566926681395
0.273271715710176
0.271492254739048
0.273100487885758
0.273784108232045
0.269084586449691
0.26934670100863
0.269157468837023
0.271104590737506
0.268694224080569
0.267557985331282
0.262417172781648
0.26632897876665
0.264890096819168
0.263118150192019
0.264272449780396
0.262137886267848
0.266181288182089
0.26278105648766
0.260914499814204
0.262170151448581
0.261558827162198
0.263900905520448
0.259657890491692
0.258379870623989
0.256648915987865
0.25756916757383
0.256060310243748
0.255260698810207
0.25275716103895
0.255152423630346
0.255256324047588
0.251488396990498
0.253289731195478
0.254577535163584
0.251727946428722
0.254670457336316
0.248671575442325
0.251159610951504
0.253214533500546
0.251237767004355
0.250590339996176
0.252134164435472
0.249594245663035
0.248346426580247
0.246993844311718
0.247689300034333
0.247887683640559
0.248978483787227
0.245067718688264
0.245309486552407
0.243170845578556
0.244491823062781
0.242253389690978
0.247036984361589
0.245309705198116
0.245135025880768
0.242299805803921
0.236316786601707
0.239572944116568
0.238534461631985
0.240486168361195
0.242560009263158
0.238701043176346
0.240581962488886
0.239853021716899
0.238369113307413
0.239797325372697
0.236910776451396
0.235688354247304
0.238363648637694
0.235679364879877
0.237835753896935
0.236875279189672
0.233012415675002
0.234609233038724
0.236805320765301
0.234989129686842
0.233557140677696
0.236007360863172
0.234472079643537
0.236099421130552
0.235602547906395
0.235126327413705
0.232831076586319
0.232078103631724
0.231166528354695
0.232111592194614
0.233358862513728
0.233513337887435
0.233799035639588
0.232641332868128
0.23146019705275
0.225681569014096
0.228908734846681
0.232932989448637
0.228485982086153
0.231320967776119
0.231172322941135
0.229612690881596
0.229462910222559
0.229476713603017
0.22553776216663
0.22675012733106
0.22708124082609
0.224293816859839
0.228235636067953
0.225848477251404
0.222120452559193
0.224039162764574
0.226217760347486
0.222702894056978
0.223119504337692
0.225106334576317
0.221800748246677
0.223195164923126
0.221369865976914
0.220015834117088
0.22418873997508
0.217506468963007
0.220260785821128
0.218405445487619
0.219893285320888
0.220844675922839
0.218655113816492
0.21676229938272
0.22111240443408
0.216294905526832
0.217547835129564
0.219133893399247
0.217239380882072
0.216206302810198
0.214546139468711
0.217229502333611
0.214123901990073
0.213876830130544
0.216496381381671
0.21678243658147
0.216773061722266
0.215017830790838
0.211995368687088
0.214213398950405
0.217791635851742
0.21625433373191
0.213280484645572
0.212249931698148
0.210634126650134
0.212486893407128
0.212555847777443
0.214671593207159
0.212934346782256
0.21336420480068
0.215514483837332
0.209017750587942
0.213730301494803
0.210215236035369
0.212653330054976
0.213948675532841
0.211623280927382
0.21005966306224
0.210765128512132
0.208881767385474
0.211069118733062
0.209051740826393
0.205393187818823
0.206797111455391
0.208160112039668
0.207268135350657
0.206500355233546
0.206193878218479
0.208506802196236
0.206328917937737
0.202277253885255
0.203377988369576
0.204989458517099
0.204271444914607
0.201159691502623
0.202813751641505
0.203131484733803
0.200841022604934
0.201034796633582
0.2026051713685
0.19756739964366
0.200677755505209
0.19960995569434
0.197338146200363
0.199795984855268
0.198104956592418
0.195823727752138
0.195732815111783
0.195638642107
0.196054026539865
0.194912889444616
0.198313979028378
0.197875497432837
0.196149045908137
0.192308225035363
0.193056500946019
0.193949509087233
0.190509341072604
0.19287441278035
0.194939373708363
0.193443777030542
0.190632601996199
0.190526487405908
0.189637218492258
0.190499601070164
0.18956877226092
0.191474732527445
0.188099338388233
0.189544665459488
0.189152653938786
0.187839644280029
0.190506065657552
0.18688088187525
0.187084183627056
0.186501931632631
0.18492171234022
0.189585120755772
0.187832552358163
0.185035849578389
0.186078217516794
0.186377852429736
0.183128440821812
0.181994647330901
0.182147942473055
0.183842215102259
0.177654601268523
0.178162131834024
0.180762278804644
0.180911690073757
0.176535544517182
0.179593921304234
0.178732749583854
0.177080158724052
0.180050159376932
0.177985755773219
0.1778909228988
0.177949164908274
0.175937605439821
0.176524572348281
0.176131599797709
0.174515206725685
0.173742808025534
0.174369182104891
0.173782906779155
0.171193264123506
0.176197382830742
0.171458792433695
0.170074255480541
0.172154769894804
0.168481555613057
0.16998416129219
0.169372029755885
0.167689451537747
0.169601112757714
0.171062014670391
0.167496591989669
0.166967115789452
0.167817930097776
0.166122234623225
0.166994783126345
0.168496353310186
0.165436031526546
0.167704856288929
0.166489200025029
0.166193652444708
0.165837344427344
0.166554355661042
0.16617606380319
0.163834697591616
0.167880100806459
0.164161784528425
0.164975810301913
0.16758400053817
0.164588416871705
0.167297861772189
0.168087055048147
0.166857819783518
0.166548398624448
0.168334889603848
0.166612706820693
0.172502376215645
0.17062222805934
0.169786490939905
0.165794298428229
0.172214617281429
0.168963555731825
0.169662294291112
0.170787571824851
0.167324399649228
0.159894343413794
0.157345850696612
0.161491284021255
0.164779302489873
0.161121739327688
0.156434148043823
0.162899765728297
0.166219224798673
0.155026278224845
0.157875992688404
0.16060050271149
0.152724077716411
0.161223754728281
0.153853561448403
0.152263978607346
0.160749297102841
0.158789002684058
0.163506603248829
0.152455852198162
0.155361705193797
0.15602509475546
0.162740375210283
0.150956175170709
0.159340664303029
0.152710539990785
0.156761881753167
0.150413643666397
0.160328172351082
0.149506339136777
0.15553773355011
0.14571696457563
0.156323314972163
0.146540871653707
0.163903889906281
0.151005298778061
0.167224054221998
0.142902125867111
0.156713815216523
0.138615982173248
0.154291827652198
0.145503690754273
0.165920326334369
0.148903818308863
0.170725214749658
0.138514178800599
0.157302613610762
0.143877957856969
0.173759287568607
0.141264141138597
0.156813594587914
0.144012696694309
0.170236761289383
0.149871050550962
0.151610924342295
0.155043558384646
0.156227390748414
0.157510199459019
0.148881823858367
0.160913342540995
0.143329991651666
0.164310002665403
0.142463410052484
0.161467734530384
0.143100068332681
0.158348826753936
0.146128487073424
0.154797831653298
0.146536537219501
0.149421237492351
0.152617643899416
0.145955227763244
0.148342057791441
0.144324874435843
0.147087250063257
0.150074425263624
0.144654751752302
0.150067551913846
0.143625660337818
0.148015929108154
0.143389822762173
0.147666787345192
0.14382270479427
0.14496698477972
0.144768932828101
0.144643665623
0.142058475179668
0.148240453162996
0.144733980885254
0.145469692964475
0.141251958835498
0.146999220738604
0.143113199833771
0.145054330728275
0.141627194773529
0.147013924904089
0.141158531265721
0.141659493286998
0.143251748571034
0.143970350822548
0.142673194827579
0.144731928754241
0.139204455601179
0.142904019474526
0.142776848504819
0.143640729391093
0.144777677256244
0.142693431176578
0.143320685482717
0.146456598550056
0.142748801737422
0.145412283963436
0.142573832291328
0.14426577948861
0.143136465378959
0.144739582550882
0.142252266147768
0.1473323025284
0.14390011013622
0.144083969350479
0.145083041174421
0.147125078678731
0.143546530380021
0.144133107613794
0.140940544366621
0.14553189722159
0.14252815360016
0.145269451676531
0.142383468262463
0.143326333405522
0.14452453600085
0.145003962534608
0.140682246315496
0.143777585891471
0.143294864262893
0.145367103249974
0.140738357278782
0.144634789772031
0.14411299613355
0.143887556926526
0.142828404504022
0.147132733317583
0.145795695593786
0.145513818866278
0.143646375043874
0.144230438980755
0.145094695135275
0.143943686136032
0.143330576814997
0.145214528751507
0.142388042886636
0.144364819503452
0.143546526254483
0.145673037872383
0.143127854170235
0.142541452748594
0.140858374796252
0.14322661477351
0.14257760987122
0.145406640621741
0.145666493391465
0.145835130889278
0.145395374454074
0.147000556822283
0.146880532284891
0.147570955542271
0.143991234386915
0.146512323120419
0.146426725876633
0.147889722261589
0.145935356831943
0.148042625790966
0.145830286812815
0.146955104885618
0.147692359265954
0.14605144866832
0.146920140950157
0.150722036133957
0.147205443576093
0.150914052622259
0.146815315095153
0.149510519778559
0.149626302884429
0.14647398724388
0.148434651161053
0.149391873201783
0.146367081812813
0.148731402761148
0.14857098321834
0.150349765649034
0.148117450846394
0.148275031400202
0.14829266281677
0.149925272914208
0.149157478581224
0.152736025146327
0.149202122486813
0.155274479558454
0.1480316276516
0.15022029616414
0.150510149231982
0.152562815251402
0.151128714984583
0.148617599490116
0.152406164360468
0.153948234167539
0.150521109302617
0.152841747363253
0.151039158960975
0.151181437154471
0.150600473331271
0.153123539446051
0.15220978150399
0.153954547047695
0.151853783008082
0.155386597022904
0.153269861584529
0.15656774363054
0.153928250277255
0.157277985257589
0.153760086318363
0.154397860974244
0.153858756982996
0.154209326132519
0.156507065856115
0.15480712271633
0.156747959238789
0.156461508934386
0.154560657643135
0.156143036577223
0.156779900189259
0.157502801494298
0.156213114951254
0.157191882689406
0.155784640343337
0.15922729361062
0.154279022932216
0.158596086852028
0.156751431013231
0.156710830491553
0.155811191980333
0.155820185737877
0.152570410555523
0.152677758280949
0.152979009039995
0.155401993496223
0.155485168853301
0.156856366236313
0.154446206166058
0.154280296412272
0.15418546301927
0.153627247237729
0.154534210492706
0.154362746832062
0.153461095024492
0.153929194906461
0.153249356091673
0.151896443993617
0.151408451985702
0.152663238649703
0.156459559974581
0.150459843214023
0.153415119666427
0.154495596708982
0.151323864991579
0.153097310884457
0.151559465251038
0.150783924356022
0.153838393892898
0.151842925180218
0.150883833861479
0.151997004693204
0.150036578218734
0.153868583243037
0.151207744804173
0.151630299204
0.151533453301448
0.152151634885834
0.148843890841149
0.149834020772054
0.15029250671667
0.151334597292432
0.149613982226714
0.153449109413943
0.149742666645783
0.149341388600355
0.149884530125417
0.149968624601299
0.148208693917457
0.148341366603485
0.149604448004416
0.149850970012968
0.149092455571478
0.148609546789231
0.149621358406286
0.149376288450589
0.147866921130434
0.147132387210784
0.146422238965173
0.14896227649652
0.149407781275958
0.148521770157227
0.148444706792883
0.148970443906257
0.14711196246878
0.148753817639486
0.146862843633817
0.147200735138076
0.147471407201293
0.147213782598055
0.145402523421765
0.147776773351669
0.146340808134192
0.146615490390878
0.144786941400028
0.147656251491856
0.145238029073608
0.146675513277189
0.146160751523587
0.14706230504134
0.145799824720711
0.146782321880341
0.143640471165141
0.146181513292217
0.140924805156068
0.143821420076448
0.146916119420054
0.15120174017856
0.147917001533263
0.142974406491125
0.145140595181356
0.143788095151489
0.146022577250666
0.143319996233579
0.143581709951722
0.145512748525771
0.142798509096702
0.143051131815552
0.143150389077383
0.142966965974965
0.144800049448659
0.143451806881412
0.142740372195287
0.141701593080704
0.143345162073391
0.143856462012232
0.142928475122252
0.142458679557525
0.142541465116685
0.141608045138171
0.142674097628992
0.139423155647783
0.142534678209276
0.147621896164338
0.139505783267468
0.140930012050015
0.138539576135708
0.138342065484353
0.138157582250506
0.140321645036311
0.137483514105514
0.136761698253651
0.136060404818104
0.137829794684455
0.136317761785735
0.139452100314268
0.135567845183548
0.133531508226055
0.135367918353298
0.135428848000709
0.134426326568688
0.133698281828085
0.135324343561669
0.133190913157209
0.132602616043476
0.133499883476983
0.130394017568511
0.134746856193266
0.132197503632905
0.140774546460248
0.131807956168872
0.12780337846214
0.129337526502053
0.128895062195476
0.130737174894923
0.128181815053899
0.127727587410989
0.126660438628014
0.124434727743565
0.126521119860059
0.125631691977084
0.123719813954152
0.125621141507519
0.12253552682678
0.12551602555373
0.122894896621177
0.124070130549128
0.123810712673863
0.125405935418257
0.122302463929453
0.121721896036268
0.120420432594583
0.122459522208528
0.119078630714734
0.123972065713722
0.130256578664014
0.139296935466089
0.123609909142384
0.122366079512715
0.124055323661721
0.126426443727168
0.119955613102077
0.120716432490853
0.118416011211764
0.120170784605316
0.121141486256363
0.120231013444129
0.121270838606979
0.118320047108967
0.117656748369888
0.121113762685646
0.117144136631828
0.118456806886927
0.118550692858277
0.119132005274149
0.117366142729848
0.116525477468454
0.118001449088147
0.117412496501144
0.118492501052117
0.120482730199472
0.116950573828314
0.12899758169474
0.126626850644715
0.120529313254424
0.11772739844672
0.11492792566749
0.115586264409183
0.11672124498071
0.117932105432795
0.116137613946657
0.116110734212827
0.115030592474433
0.114530038399615
0.114732511427182
0.118332208981116
0.11526087468511
0.114206184586113
0.11534309951628
0.111001408607406
0.113050701357071
0.115092720906959
0.11351052414168
0.114515995787836
0.11283687388655
0.120845953193152
0.114050928359589
0.11489365954261
0.120929532540899
0.14345144112174
0.114611268255524
0.11611430335158
0.112597682018921
0.110028345745131
0.11165337566586
0.11171210822098
0.111887688304906
0.109928517930013
0.110431764053462
0.115383771497231
0.113551468810176
0.11433334840244
0.111611561240738
0.109619945031403
0.10812586793889
0.109194620312929
0.110049405097381
0.110095662904293
0.109480663338763
0.118172706948843
0.130850452044961
0.123642520325198
0.109569992055256
0.116074719826494
0.110961316422577
0.132358606013585
0.121318121815552
0.102627830400641
0.113720286185185
0.104790982610577
0.110006124000746
0.104971100059615
0.11084237586176
0.105765649905422
0.122517486829415
0.107869042604588
0.116167226601695
0.108423578842309
0.108588349519772
0.105958526939158
0.109708205033378
0.105065528616085
0.105964690273665
0.105374254678938
0.106649377208332
0.106226224385379
0.105259090854704
0.104255363336499
0.105867785099406
0.109962239573626
0.119871215216026
0.102499223747764
0.10977547958836
0.103935937085688
0.110716216740623
0.113325066097011
0.13578855308039
0.103142512483902
0.108731777545308
0.102914581544139
0.106260513619389
0.108742398755266
0.107026975064068
0.103631905042143
0.105202257347114
0.103100726879708
0.104960897348898
0.104848986722646
0.102337185872231
0.1048189440517
0.102470933498461
0.10272290363677
0.103541920963866
0.105972778659527
0.103168682454272
0.106511599396206
0.111636202698136
0.124358438881727
0.144223967585235
0.116675715658772
0.126301878318684
0.10625461293367
0.109040541804999
0.100880509061087
0.107572321816035
0.102223463133493
0.110687976131727
0.10094635164367
0.110041787217412
0.103331148541061
0.107930980196091
0.0980349827365773
0.10653176889588
0.0982270573967369
0.10341543969636
0.0970859436687855
0.107284440148683
0.0970224359006281
0.104679294993971
0.0995581135945527
0.116283127261885
0.114431423643325
0.105892117676766
0.117920789096739
0.129392965991241
0.145513452526697
0.100940772171826
0.119652199512044
0.0989529349065438
0.102955467602737
0.100999314323994
0.106559649644003
0.11121177033667
0.106797069349336
0.0986420800124475
0.105133983339543
0.104299412286037
0.102789136544785
0.106249390267639
0.124194661003884
0.148424079599377
0.119520046831302
0.10299751320974
0.109834463064603
0.108246104539469
0.143140577975633
0.107905501558659
0.107162401992422
0.109751344150765
0.100051351476856
0.106402632970151
0.0994411802666093
0.107247420054233
0.109136733989222
0.1088206882158
0.0981629717616691
0.10634274352195
0.10025414638267
0.109072582044838
0.112301353725422
0.120924800674423
0.119162712631316
0.106507679758746
0.108916627133599
0.113375933709951
0.104716540381075
0.11237509722582
0.101653350490752
0.111316255420052
0.114904099328506
0.12916806457641
0.11763557329476
0.131033242959951
0.11846154269479
0.104700442749892
0.111658921681065
0.130763962398501
0.106160210199794
0.120722708719525
0.11335796353372
0.170708945577055
0.121727128031753
0.142464646844472
0.109622256765675
0.113589662841508
0.104951039783779
0.111062520079875
0.115513220319747
0.122847789775705
0.121156742724958
0.0998944742544454
0.121852161387939
0.115617898643587
0.136296106357967
0.112195942167642
0.123738621255518
0.105616443876556
0.11843051119358
0.11970914879262
0.127354074050756
0.113983420372481
0.160025110493348
0.162197907986487
0.133435024931793
0.129958105451336
0.120084694715952
0.158564500704281
0.12604986615296
0.111510195709932
0.121966971231583
0.108044267383406
0.1227838882254
0.124340295249047
0.158443601488204
0.131148058283886
0.112561086766385
0.128198199912539
0.125202924943162
0.149479118538402
0.13923565521954
0.114690810414266
0.123560831067312
0.118372330587729
0.140841059884773
0.152036383634579
0.173779423412014
0.128038975422674
0.188060446873148
0.143029258783822
0.155004817997207
0.135217395381261
0.143315355021489
0.151437714187499
0.166937208187056
0.127415101628184
0.138964869133527
0.146731449065368
0.172441186796228
0.133498717846625
0.139671145650715
0.140320220953584
0.148214524450057
0.198998626931211
0.23596638698964
0.170708392998675
0.153158979419501
0.158182331892734
0.180165272191013
0.157298868975153
0.14072110667375
0.148965940964035
0.141526736675891
0.145858443424695
0.153281298430535
0.160120026382269
0.158352241544374
0.147100534365744
0.159981906517647
0.155613670781598
0.210510903395344
0.224906389806173
0.216578054458109
0.190827530334224
0.207065309651033
0.211627182644796
0.171810558182008
0.177518578485641
0.168243700657423
0.188093543896841
0.179566326596002
0.17363915822945
0.18795539684455
0.19988303813969
0.21790471123021
0.200775930036397
0.224516693871297
0.188976588372445
0.208486317371206
0.239297914231637
0.316063196552928
0.263884148073125
0.200987419599698
0.258306741717554
0.227602856459319
0.316617488370314
0.232523305832676
0.223162274498954
0.224625551018194
0.232777288071366
0.236699265580242
0.255241280234119
0.252039751690797
0.272168831482414
0.2552659159479
0.274215745675876
0.284512205755237
0.415223480627192
0.347923506511392
0.310876770607865
0.284892749028417
0.32223488622713
0.310548323254658
0.307170298331018
0.293364255952857
0.324282662132795
0.316586313902328
0.397140882569115
0.33212779762256
0.336087667558775
0.347901919589205
0.369006942686714
0.37430470630165
0.379994567397898
0.429188624347343
0.357459683907975
0.382530691183039
0.369189363002115
0.390669661079694
0.393659915783571
0.429850332729191
0.432057888915959
0.402828678665777
0.412091195639249
0.409974321200459
0.418704965071173
0.419271976880397
0.428351508937264
0.440959892811345
0.496129251596852
0.557103344302927
0.575173530449477
0.509627239334988
0.439650943278519
0.466043033036479
0.461975202345598
0.504132270050198
0.517941758936698
0.506420591581969
0.507434179907768
0.447389214526495
0.458718192806205
0.460192620933442
0.465717935959995
0.465412460199283
0.464092431154523
0.47671811300064
0.483973458976736
0.509301813669218
0.48342791743193
0.579875697987702
0.473172571805572
0.463967277873772
0.457814873132817
0.453628249749237
0.442223608482745
0.455509065446028
0.45602771792899
0.476544567874025
0.447412447741291
0.437147715510898
0.458088302869907
0.469458809805444
0.485892537107523
0.434433954660399
0.43561305262784
0.422417992767557
0.412867735986447
0.430357327054962
0.412125072898031
0.484280644641703
0.427021332363152
0.399614048105262
0.409053764358033
0.39154330861421
0.398402602957272
0.386152676317051
0.393575621627509
0.398632308556849
0.39498148426859
0.392977163386278
0.390760670709896
0.377422908392535
0.382695617233566
0.377491672376155
0.387301836877839
0.376529062944147
0.375315939200518
0.362143605608916
0.372355877930595
0.371093837190119
0.371548804788838
0.362804226692645
0.367893821988244
0.366604320162587
0.367509132398209
0.354827956804092
0.358597797869189
0.352543376496441
0.364769993908546
0.34985460213771
0.352992165949199
0.34645374408876
0.356630943193858
0.346822368935059
0.348161036780075
0.344247458499129
0.351876288226978
0.341261315292754
0.346291046041503
0.340671108691746
0.348801032557397
0.35867603131829
0.389572726280076
0.389584023417886
0.332399578501013
0.339597930162988
0.330424503689645
0.325860123530538
0.339639144570166
0.37698674931383
0.374832538471548
0.324295570504174
0.32073837267072
0.316989467838604
0.335224544301087
0.324804879269117
0.311268981215785
0.301493703350738
0.32596128086501
0.328131848499121
0.469514913814903
0.384076981395053
0.422991927401622
0.319702942935338
0.306623034429553
0.309672340969687
0.338750160384119
0.295147446332754
0.282472901882768
0.303063161307633
0.326379315691796
0.312161944810554
0.277227467236365
0.273145452100534
0.282402890562417
0.308759774651232
0.313896018226104
0.30432832937462
0.319090602728479
0.335740819601399
0.325882126376804
0.36914019413459
0.388581141000544
0.300931136976919
0.270510338587845
0.262884954598017
0.273253524443419
0.28843454701128
0.326346137161976
0.293691668251679
0.27216335059911
0.265309400199402
0.252994028450116
0.276677530737355
0.287333316543176
0.276388364262089
0.287530270280863
0.288561860318173
0.273947310889047
0.267480983766866
0.314921142723716
0.312023869213884
0.343689113872784
0.257204652510683
0.268267886947066
0.301144005141332
0.32550056737445
0.283036607178255
0.267901305000754
0.247747857635662
0.27051807947954
0.266623231330528
0.266489790007632
0.272680407048854
0.306457859006314
0.323738224871584
0.367932291091512
0.380975455649347
0.32678059324825
0.272323344407605
0.25332404935362
0.254196462244666
0.268354026963565
0.247278524431976
0.274345968230845
0.280401169657909
0.284047560032016
0.269577009695947
0.316078601788501
0.282892071304483
0.263267789233696
0.261124023351948
0.271394845822703
0.284397403421655
0.339265120634257
0.337276996475952
0.318656368418718
0.307629934232557
0.331974589040426
0.30641581426201
0.299199020482677
0.298286339358531
0.30217156975028
0.311841686921347
0.333131746406508
0.324663813295892
0.330378990335769
0.327838808336365
0.348085626891443
0.378134356181042
0.381992587722222
0.374940099813957
0.39731352156746
0.439142662681665
0.437169074398068
0.416101363749875
0.39722540289154
0.406110370519986
0.417753836429412
0.41452352664206
0.426626150288354
0.450921786090553
0.483879628464016
0.450098959426307
0.453051239733731
0.46265883046255
0.460646211843279
0.481557490331069
0.507700672339348
0.550948158906499
0.565101374347048
0.566833160898593
0.526786697649479
0.510065613440413
0.491201265132322
0.506434533529719
0.513406351981822
0.497391447212947
0.507446380765355
0.516342714748633
0.545690492400371
0.514029192447329
0.508438862374427
0.51075820588977
0.514368773774307
0.511569824606265
0.520011621258134
0.519500605840754
0.522925278144132
0.518862266688621
0.531015137526344
0.551381648054037
0.615986804422342
0.568007302063713
0.542659315654338
0.562200056455705
0.556299073965617
0.554652058082139
0.563272115714448
0.579846699484169
0.577797443297272
0.573213920398001
0.572088827994895
0.572596556853682
0.577372625351158
0.603993987088874
0.610494306928403
0.592750499659641
0.58772402273622
0.588739902487086
0.641956907288199
0.670545873985268
0.629314153797945
0.622211255321457
0.619277306721178
0.605376686877472
0.611063554917039
0.609678789470123
0.624246539935751
0.611858629278746
0.624056505161346
0.614796435575802
0.620054871116745
0.610693461568768
0.609754319176683
0.620983082840381
0.654025892081065
0.623151689192296
0.601420385901995
0.610218714281979
0.602113163719241
0.612213537941784
0.636961277250294
0.624562327396407
0.610275555851675
0.606542764455982
0.624416018626391
0.636811370775519
0.620378539064915
0.591855953805013
0.597501784235484
0.594152934969782
0.604680384712728
0.600443196907541
0.612635911530033
0.645030635677969
0.634690015605704
0.610428470229381
0.609116432547988
0.610656870239899
0.620349712520504
0.61744698673743
0.631013720068933
0.634411358121575
0.645451401113664
0.637341695399633
0.645890876933512
0.65413557758674
0.652064898859854
0.67649711178103
0.6757081077455
0.660722105817167
0.664905252989655
0.657183784342486
0.658664686764474
0.668384838182778
0.6661541749653
0.656801113875875
0.658773320778729
0.646491623521649
0.658889294556937
0.685138386703131
0.658703681336081
0.663646623753728
0.662336019926578
0.642745052818112
0.646476772002491
0.64026077286443
0.64247387999128
0.634688509725675
0.64259381745568
0.623899903148069
0.626618513221517
0.626104779794283
0.62118620117988
0.624242586812552
0.632114152385607
0.61750458574312
0.62514382137935
0.624390478619234
0.620377407486839
0.607931398281267
0.621844144164321
0.6193135519779
0.612204715112512
0.631291090828868
0.658835957212832
0.640877320211409
0.628944992374004
0.623530297144139
0.623467162277818
0.615142030182126
0.611820633000927
0.603160761898287
0.615907375764508
0.604044536540752
0.611536593811192
0.606962650698365
0.607760159688836
0.602960293755885
0.600840899232536
0.595972185611015
0.597618243239603
0.590837585214459
0.595620804580159
0.586071336677898
0.58081281872547
0.581506758083468
0.59482962825612
0.584802268593019
0.585900936058431
0.584042029970029
0.581374544896482
0.571575831158012
0.573756705581296
0.574594361544094
0.571112616281411
0.564874448450028
0.562728509286569
0.565631214590385
0.562818398768671
0.557974687898026
0.561738719656966
0.563313932956544
0.561543739365563
0.555212218753266
0.563926093122016
0.555105494268645
0.55456446082125
0.546660796158598
0.547430056694823
0.536226226346669
0.537568665871829
0.52910793837678
0.529075638551333
0.524369426025278
0.523602711306791
0.521841449518973
0.513572877115392
0.509252878108453
0.508962267541696
0.504184606475913
0.505741393603266
0.502944994058249
0.502416075650862
0.495836857725144
0.490583402590193
0.495281495092937
0.490250432037715
0.492501464537013
0.49170906926556
0.485802682888897
0.488190218180251
0.488956351590407
0.488723008543539
0.493038281423661
0.493285980961746
0.492281586846356
0.500073668037523
0.496678940909579
0.499982528822576
0.500079784386822
0.501777853443306
0.496994320935798
0.50452708968847
0.503091922593487
0.502261645228059
0.507090702898745
0.509254521950722
0.504354240751969
0.511908731034477
0.515102817898274
0.510341646896968
0.510876435249704
0.509398823970002
0.508195917018362
0.512924529335597
0.507770213681791
0.512179656702642
0.507992914221025
0.506894104974069
0.504682846789239
0.506530150407013
0.502408778394602
0.504826086102704
0.503668335013587
0.505217131521116
0.50208118254263
0.501674267400729
0.4994619041054
0.495123526940158
0.499429967032419
0.496493589577016
0.496728419701086
0.490398087916299
0.493613386743984
0.493240992257661
0.4917202733719
0.490648142924141
0.484568666550535
0.483696475409186
0.486164159769827
0.481905765018757
0.4758482707989
0.47793468842933
0.475404174738558
0.474341842993578
0.467343225620246
0.468955752069106
0.462456106346219
0.459370067026259
0.456845210449827
0.460036411213448
0.453641185557332
0.450922941394344
0.443630277651318
0.442190132467718
0.440673754042153
0.437149975599259
0.430178646590678
0.432886389418547
0.428070171366005
0.431169064813912
0.426861665228426
0.425968186892889
0.424288870459346
0.422474687726968
0.421261306687756
0.423835670128253
0.422360929751739
0.424640807017888
0.4223132171987
0.421670012982446
0.421123874265241
0.420964295312139
0.418880997415687
0.41664025774469
0.41221356816883
0.410480355722102
0.407547477659756
0.402269184907391
0.393526376722063
0.393976423801058
0.387980824872712
0.380874621183261
0.372447957091648
0.371935449710642
0.365790730074536
0.359314150707673
0.353538715905196
0.351378196526088
0.346968496534337
0.34828958457121
0.345875435340642
0.347658771857389
0.350283592957772
0.354036381861638
0.358242969223215
0.3637078799337
0.372075390275648
0.37778068732979
0.388997672465653
0.400968719725067
0.410166866296813
0.426003519955018
0.437362128672265
0.449838686570079
0.472187762927424
0.488445207910841
0.501365191778701
0.5226803475706
0.544292670646575
0.562864520986602
0.589236374303131
0.615268625018772
0.634374617208994
0.665607988590999
0.69211845645531
0.715381722986504
0.742576178909191
0.776770439970799
0.789972643588472
0.814997855939951
0.842646747298726
0.871218708088169
0.88609611249624
0.899272742700313
0.924346828749999
0.93812148441695
0.948963285423964
0.957513795015722
0.955931057599504
0.953250006839636
0.973362918598282
0.97428931530536
0.954427204000315
0.956599399141848
0.941243122945782
0.946927724916303
0.934177609240449
0.928465657926146
0.927517399603177
0.909842524434258
0.900436159444362
0.900239158859631
0.890566431278851
0.887774536961076
0.877429531867551
0.884948055171919
0.881698102020149
0.884410905129453
0.889458995135876
0.889860337929979
0.875849825366384
0.896309893024726
0.907211923435677
0.900428164362583
0.922385315106784
0.936318856513466
0.93575610832494
0.948435362199148
0.957586759137289
0.957452480792801
0.960522338745213
0.96966644114269
0.975898147571334
0.985352266543577
1.00073180273108
0.992404625701756
1.00588665493162
1.01293211684122
1.0187471002183
1.00879736903076
1.01366163958568
1.00744691973904
1.01929819339454
1.003668750191
1.01383822007347
1.02525203431637
1.03244055276941
1.04778492850586
1.05420165832497
1.05834238883274
1.05693342379601
1.06087437802785
1.06254552801519
1.0632536109201
1.06789008338901
1.07707960721635
1.0852196499283
1.08268027889972
1.0948187103209
1.10696639922135
1.10549934064043
1.11147101907722
1.12805624729349
1.14135873608202
1.18228821355633
1.18273322115247
1.20465062301807
1.2632347806023
1.29390281043159
1.28765713402256
1.31608355068757
1.34743705724571
1.38876994491026
1.39639265847361
1.47688474760329
1.44430492208698
1.48928102442537
1.47145405139266
1.51150886664115
1.45295224835428
1.50592848543131
1.4686845904343
1.51711314734811
1.44308539035687
1.49460628241544
1.4986464223551
1.49231818100558
1.42657636705818
1.49684198681879
1.42030460089865
1.42224477520829
1.44339132287543
1.47473146445216
1.44655295023359
1.49292054693874
1.43941449562732
1.47945714905003
1.48558098226785
1.51829994169153
1.47320394114208
1.53508745391209
1.50827950559637
1.56669051413231
1.59001314647628
1.59103971913782
1.61616140481803
1.57911424447645
1.59693831751146
1.68707480504212
1.62556813211665
1.72536234918219
1.75996518636111
1.79317769757409
1.76727401743918
1.95462556078726
1.7970433673766
1.90030659279317
1.81600858685427
1.91308120768039
1.92795318023477
1.90052234483576
1.8935423432419
1.86650112547753
1.86611881603872
1.99841527253327
1.96629702864843
2.2793167729611
1.88042977478772
2.06310083336393
1.93926074164802
2.26684923596925
2.01587299306769
2.21711529755568
1.98793933946753
2.78299362576687
2.13904265135169
2.15996837757932
1.99185105921417
2.83517783075203
2.26468339583592
2.36812298887408
2.02102457074291
2.51271040677965
1.99031442923426
5
2.03287302377089
2.03449215040782
2.27068935698857
2.24008992572375
2.01154738979947
2.19099890903218
2.10406528678582
1.92470986056096
1.96274202884565
2.10422280419187
1.88799030438359
1.9637590781669
1.86218724936846
2.0977547307633
1.75595320887719
2.1083886831147
1.77959370599532
1.96471589954284
1.84160647493202
1.96366935072613
1.79983565182713
1.90692016529327
1.72919273899971
1.86980807042807
1.79205454653406
1.7908305462719
1.65700914299924
1.85626116194652
1.61488541452456
1.73891781683665
1.61035668881909
1.72001820485477
1.53134206884014
1.54905489283092
1.50698586127879
1.47341316776269
1.38834131194438
1.44626243495894
1.38104997342131
1.34439275710823
1.33322466673514
1.31234254839179
1.24310629402251
1.2598965239793
1.16914976995211
1.17452794640457
1.11322164515735
1.1162170907281
1.06550495591374
1.03417341481146
0.9879188960719
0.977884637752851
0.94925219054683
0.92119041108721
0.889369386607038
0.889289434899968
0.849401500862946
0.840762892366038
0.806805532497162
0.797874744544058
0.782160179313251
0.768017602299082
0.753679397577863
0.748845781054656
0.738510062348667
0.729701425335925
0.719799696209744
0.721891869725728
0.733538826573784
0.741342784670236
0.734132232146947
0.744822857566496
0.741027411208188
0.745986126278398
0.741327758435749
0.75077070385968
0.751164689097746
0.774078570516182
0.756952600103091
0.775060799871204
0.787884552208407
0.773811034161226
0.772796131390554
0.792491882067631
0.778049505911402
0.76601843591594
0.772071826095695
0.7976415547894
0.794733667522844
0.823162486523242
0.776585918106142
0.784466831295749
0.782603852880451
0.795676797331288
0.771680420320664
0.798064381118674
0.766897622609321
0.782408777443101
0.774606830796598
0.783750602754988
0.77624758524625
0.797635067454749
0.76853506326651
0.758825428953322
0.750305882892147
0.751774808140179
0.727034412418119
0.755311047271982
0.72141609805716
0.720829656320717
0.726912186435295
0.732521037802402
0.710106538813037
0.722686315027971
0.714548375924416
0.723937700360428
0.731655430858518
0.729921247425241
0.724245763691626
0.744045903513111
0.745037977289411
0.768288805132131
0.750945277974076
0.777840464958635
0.773234947801029
0.787794141312733
0.787080658059432
0.790965287313148
0.772600684265534
0.787069795332495
0.773595378246748
0.767652069314476
0.749772110398117
0.744068351353403
0.733609155459869
0.731169734872764
0.717341950958274
0.715211691093513
0.707382652850004
0.705085860183109
0.710246630439823
0.71219493922731
0.692883298923881
0.717863974992822
0.70198640353689
0.719188050429286
0.713677287555245
0.719898187484356
0.708496911899933
0.729609910691984
0.698755544841227
0.725359497596728
0.718322277189286
0.728728866845191
0.73525879042712
0.744020585768145
0.727477799918804
0.720727071178245
0.738276018291789
0.756999696044479
0.741030674572907
0.737990484403094
0.735445404724466
0.743686095654277
0.743562916898533
0.758819773930655
0.739186976540883
0.736551707217409
0.738981468913287
0.750278588780413
0.730316565607797
0.765505296388563
0.748189281142841
0.789003312671971
0.733635058060278
0.752784787558422
0.729397792159576
0.745656054463868
0.749478596669804
0.773223112159894
0.723536714976164
0.75813611238536
0.720307272627952
0.731300712610074
0.71838112751185
0.726229758441618
0.709289265923258
0.731667246193146
0.70270691971746
0.733443838349408
0.699345619791631
0.715812646957908
0.676895523872296
0.711568136259916
0.691749073433816
0.676737115713281
0.662784337654725
0.692910696671125
0.655755606272057
0.659316932872979
0.682650676631846
0.689957238351525
0.660531969025584
0.690592663757224
0.66807051246052
0.699125425883361
0.657958525690453
0.669031545935057
0.673676101098468
0.685709260261445
0.664312316317412
0.685452747729839
0.664675009217568
0.678036533563586
0.670198165673687
0.707542882509705
0.686083585677361
0.697430803491151
0.684309327885725
0.715435977712947
0.69439721830206
0.689803763960385
0.703821235828087
0.7604974322549
0.702084889403321
0.742954710326286
0.718315033969182
0.783986604622132
0.778275136190536
0.766812311625056
0.777034872573934
0.784023164157907
0.801051380181906
0.822889622105814
0.776804602846631
0.819199140246471
0.8145258015335
0.869125138399577
0.840429382976336
0.875243648976163
0.851472647074749
0.901888697426025
0.908807812142795
0.967850578204766
0.884782679959791
0.960992384701464
0.885852739463668
0.94518061685455
0.889751222967086
1.01117398282038
0.94087667535687
0.953648406515973
0.894430510818635
1.01731208226707
0.937288471121715
1.03344347109293
0.960531958634091
0.977240171590914
0.986939554630869
0.9716686795806
0.94932199447945
1.03031732809057
0.957923512148176
0.966253053876633
0.957107273914913
0.97938033730412
0.927954238146491
0.995391119059537
0.918455105554221
1.09338199516787
1.08174495734712
1.05755423329145
0.978390472629104
1.04402023919639
0.99617701438271
0.988559354515872
0.984946608182222
0.995302492872299
1.02878463036477
0.965918765428771
0.9132765137528
0.967162849011139
0.907655747193678
1.09388455819027
1.04273618619458
0.971112816978018
0.900785074760338
0.97738452229243
0.921090541039126
0.948373787542884
0.935211158424872
0.998961076731234
0.879273643748406
0.930399689757407
0.972639990959866
1.05968500436824
0.923061991033187
0.974480817279721
0.969478540883072
1.04881468317493
0.869025793313632
0.971357757168462
0.881962538574723
0.929816374111522
0.841436788684824
1.00182568796974
0.900221355253885
1.08315131571799
0.91999485871627
1.10705594636757
0.842727786085456
1.0207975867658
1.09807563058772
1.21227282463939
1.02013220333247
0.990764301594853
0.967111261628617
1.03868503569613
1.15883029716152
1.17620710445021
1.09158140744697
1.22967186294552
0.948713651289887
1.20977321570358
1.4180521141294
1.22749528638026
1.1961375518235
1.11137459834282
1.13860496512457
1.67618904931864
1.13037461586453
1.29836459280953
1.27989402617751
1.02636031796429
1.06250106502174
1.46792372342688
1.06608015414538
1.21859981111103
1.17783021652967
1.22250733450043
1.24077049572303
1.26021733115017
0.903279622912434
1.005615121005
0.985447876258718
1.40280683710093
1.08885765932525
1.06369558317899
1.35399942187964
2.21262569224248
1.03194740023973
0.992706385608789
0.91128934464694
1.45167520031531
1.12199345344275
1.13377638085638
0.98733135832872
1.31680033208335
1.1529302338011
2.26876125322509
0.989460380615008
1.41113269247007
1.25082820484613
5
1.08697091737751
1.43492842362836
1.08614211434622
5
1.14531944470306
1.09401363607293
0.976796441955388
1.19142266913604
0.865972871039163
1.23677758037345
1.33945823637474
5
1.67424337866584
5
0.77312799093472
5
0.90239966952796
0.866144823329375
0.706571476883869
5
5
3.28873979421196
0.745854069117717
5
5
