3596
4000.36533379555
650.420452594757
1
2
2
0.0689831044364686
0.075766662524663
0.0746601216092115
0.0708002619161898
0.0700484611438903
0.0742142596507591
0.0696934059331435
0.0736200383272138
0.0614702294822295
0.0766317704364231
0.0743107938780345
0.0748742678402088
0.0639398638636819
0.0696924606268985
0.066563895632762
0.0752808282273583
0.0716402557289888
0.0694483668143068
0.0598073403563858
0.0767683147757922
0.0703089699062266
0.0740597008667488
0.0680142961823202
0.0722357805242002
0.0757060346474121
0.0806856368609412
0.0624588360742121
0.0748293689615757
0.0743253872059273
0.0772424715429698
0.066835671388707
0.0783836653796161
0.076511775673477
0.0779107266165302
0.0637947096933931
0.0715524060991861
0.0701905978884121
0.0782440429592414
0.0647228371455187
0.0855469634214355
0.0767233246778352
0.0767969495278005
0.0654804301641249
0.0764783592917037
0.0730468411014817
0.0778065678666435
0.0688939180435719
0.0772800299586772
0.0695409284785104
0.0783273236474993
0.067074993415256
0.0805611050687177
0.0860055605274549
0.0797971805074717
0.0751356128453144
0.102828002854612
0.0726824273026218
0.0746095072011449
0.0694327007202652
0.077630771964208
0.0884396922107376
0.0911034649601183
0.0769628658900665
0.0781047142213731
0.0694948065131813
0.0725793996952207
0.0695252728211178
0.0687302626511283
0.0732949556846222
0.0795669874899265
0.0681640883642182
0.0970010568537702
0.0810617920144185
0.0812338427673402
0.0792062017972435
0.0763645606349629
0.0673477055496908
0.0799165115879545
0.0643925280536271
0.0958153057486415
0.0899263058415326
0.0883510657447028
0.070798955127875
0.0704811938601393
0.0838417038251309
0.089573775004999
0.0633357725403665
0.093098818437097
0.100908995291052
0.0901667261163827
0.0671138651916868
0.0759398252843877
0.0684150594526659
0.0698689560303331
0.0660692810270485
0.0722419514822416
0.0584300496370471
0.0757483249069429
0.0592551659063216
0.0867099025443863
0.079793919260498
0.121817594131543
0.110018608881649
0.0918593126422565
0.107063472046618
0.0876861481855643
0.0918691854881232
0.116283131631956
0.0783808959083691
0.0764771291522776
0.070721602932432
0.0794201223734355
0.0748454860668085
0.0841689019141939
0.0706451095072036
0.109475895264472
0.0920000926018679
0.083974114222146
0.0661306761536923
0.070225304701045
0.062412258875272
0.128425516183885
0.0972124434881994
0.0801171784208469
0.08594941884077
0.0814372995632144
0.0742396832867415
0.134741747469122
0.0777320475901929
0.0788242978913485
0.0682243164452558
0.0736344326882182
0.0502075700498709
0.0924403117817323
0.107219464694559
0.0862140022130063
0.0733230773796774
0.0891932479277917
0.120554353289294
0.139822161334658
0.0871260697563775
0.0813243408299467
0.0608957956116341
0.100558224008549
0.107941912857472
0.0881931929731093
0.0741867609044911
0.104518490828033
0.0702206060937976
0.0713451956543324
0.0567579211713034
0.0820037790388467
0.0857085597777403
0.0886055688857252
0.0633908448746094
0.158756526981445
0.113414241608211
0.148467826334187
0.114577745515057
0.0847697194687155
0.0726042729490768
0.0775805440290827
0.0700404406488635
0.0687204952738432
0.0640860491327713
0.0704495873768308
0.106831014924474
0.0954188919097741
0.0690431001220563
0.0944269000401835
0.104117539783921
0.0944007099860681
0.0857642975446867
0.144226553403606
0.0769820897352095
0.094576442959837
0.104917848426202
0.0919920116441694
0.0594964055863681
0.106215011646899
0.083468843012165
0.0791649423424055
0.059006679953379
0.0743298168958349
0.081415542132984
0.0967921182020748
0.0715489272303628
0.0745722582371863
0.0673934713146093
0.0820305205761404
0.0995287073079373
0.139243975922695
0.0932597690309044
0.089255136855528
0.0654224581694
0.0666489281955528
0.12069560098179
0.106588978200244
0.0695327107764958
0.0723999064577448
0.0543345864576034
0.071374352058293
0.0570092047115786
0.0694825379821562
0.0569382148427226
0.0831127399349966
0.108599938424788
0.0883978279696873
0.0670202047373234
0.0698053292317714
0.0726861188383319
0.0911611704562739
0.137088618452359
0.0999236180908778
0.0721948956440308
0.0771674314298246
0.0744321828106739
0.104957933797666
0.0738551179612613
0.0676522701225916
0.0601920196038821
0.0718917147252948
0.0665339708384032
0.0658573362768926
0.0572740395141388
0.0743724723640604
0.0655675478871608
0.0771018808830545
0.0661415897279741
0.0717869883047929
0.0711572959525724
0.0761500059245965
0.0652272164588917
0.0645504902568322
0.0608565308383872
0.0972530725874299
0.0821461632286881
0.0857579721154555
0.0611770709590982
0.0656998159293448
0.0579727732073726
0.067651603522936
0.0606751241988402
0.0727546457532526
0.059062127162812
0.0911721794040188
0.0887034158403582
0.0779608957265072
0.0717895266712963
0.0624518748469177
0.0973402405587206
0.0840939562950115
0.072305739185825
0.0676648114433773
0.0672117029941701
0.0613018220516556
0.0814845400117377
0.110813979918966
0.0733976428624397
0.0751539505628213
0.0913648242307181
0.0764321852444187
0.0696197332535948
0.0733779944286136
0.093790522996265
0.152410796449794
0.094745902144406
0.118727764550534
0.12655169544793
0.0989078549951362
0.084782918679572
0.0767257829127897
0.0798162854194082
0.193702202438263
0.114405425774901
0.0713077186352385
0.0793086348973812
0.0963857423019427
0.0624199774908805
0.0874100310418656
0.0806919569822936
0.124960452821688
0.101787832435347
0.166129018343575
0.120349657411857
0.0804665766270384
0.116298036724218
0.0893998872941047
0.0762429644227443
0.0745062600191014
0.0729100245366131
0.0732928009357718
0.0902070352006208
0.085409102533867
0.0945515995603332
0.076305913961079
0.0940381269393433
0.105425656765773
0.0811455898939487
0.0729175428639242
0.0769796970015657
0.084853198620323
0.0606342071900698
0.0721395675449467
0.0723515279217323
0.0885830082377801
0.0605988732456142
0.0998860848402993
0.126260155117968
0.084631553679872
0.0883681585156277
0.111803698992518
0.068175192715641
0.0704318337252795
0.0594443055880108
0.0693122801521429
0.0579098837610778
0.062913785913276
0.0740122756547622
0.107812520274324
0.0653301161294776
0.0762742613054619
0.0617912694715591
0.0686850510867454
0.0653079212733409
0.0714257610212095
0.0630852735411249
0.0730408921084857
0.0670388006343546
0.0669864396982266
0.10406634191714
0.111078451170357
0.0682098979309233
0.139289720360773
0.093166282187542
0.0832961386102927
0.0655571530368255
0.069476516882467
0.0658245271222652
0.0688087286199517
0.0651102553129972
0.0645148657157433
0.0790787261723025
0.0941638802143967
0.0667059953257424
0.0921585765108966
0.0908455368320223
0.170311980021307
0.134865729441546
0.0986747721743704
0.0722656149038178
0.0749454469672808
0.12524295442821
0.105531463480841
0.132532536991446
0.102794100641459
0.0723518572861476
0.0856613996062588
0.063024888898976
0.0740958998254087
0.0623070535835595
0.0798350333812515
0.064996474657608
0.0854265998539565
0.0634755483711925
0.0844836433731803
0.068744930706824
0.109900931052314
0.103973973599227
0.08778933101606
0.0784142324176908
0.0881617083666032
0.0724622328230673
0.144281295761282
0.100063721613223
0.182651436949038
0.105835599397452
0.160101833755842
0.124370868756996
0.1066465254191
0.0828957278075261
0.0864798280080401
0.0866293622674487
0.101810890819105
0.0852387490338773
0.0946280441596689
0.0782547528775408
0.0988332206500777
0.0781709880764456
0.0985545820477964
0.0857900553669067
0.108442411385959
0.122708425121885
0.100528041762724
0.102148518816006
0.103270688196048
0.137300152651486
0.18217593604246
0.150497097953258
0.11207755530663
0.118420305746775
0.104854337632659
0.100848647031082
0.0982190344185783
0.101125827738356
0.120725109639238
0.116387947558896
0.164104532809256
0.11791543179237
0.157568640544356
0.12647335435681
0.110203074112146
0.141926924431169
0.124937220101232
0.149115132158336
0.157186564843931
0.119599098933396
0.122972526949021
0.161779742241857
0.135560032072399
0.146683102610646
0.157070527353691
0.1112621194981
0.133352277418122
0.11835789590751
0.144230681415913
0.12643707944369
0.156070869789461
0.139315194979325
0.148515199985359
0.140802024801493
0.148411972462805
0.135499267715561
0.182108707964884
0.132354872389463
0.173056080063472
0.148262832169801
0.136929053637712
0.138755031262695
0.146152868715684
0.191557145975689
0.178868246129688
0.190979109051863
0.199561349621331
0.147407576746249
0.16726566054829
0.164110205142866
0.179057145210488
0.156775548270441
0.178025079154701
0.174112896116862
0.174009257640392
0.156451422275474
0.189127288813836
0.168624154314484
0.189334350969298
0.17052001044319
0.182817366307253
0.167886691739047
0.197594322999527
0.193127116415497
0.191268991201492
0.236706281157617
0.224447908577037
0.255660669019031
0.250118867341488
0.197457655239811
0.216266242733884
0.205594885191093
0.233993230310816
0.207764966817666
0.239197645648642
0.196988136035677
0.229532551605454
0.201550500006321
0.250037712428109
0.21667537015222
0.246182748760433
0.204026213290275
0.253022540747853
0.225727094099478
0.253013933683772
0.2253237026459
0.245642869916111
0.241216741916317
0.282803076251303
0.239771043664156
0.297556347902759
0.247966821234952
0.26733065444677
0.258484953675281
0.263421530809116
0.260183416682739
0.28377187472656
0.242200561229353
0.270755287704599
0.275662037318773
0.292024572104918
0.271432124844342
0.301257438530849
0.268713351275585
0.29371163284126
0.27553476532514
0.305097700348064
0.301559003840609
0.315319697583827
0.303869045684152
0.324011937558181
0.306728688586057
0.333814167954848
0.312531138280937
0.340533214103467
0.313398471415985
0.331699807487612
0.310334697589659
0.360546559036693
0.317398607709149
0.34066966269948
0.334733368016136
0.343706550172583
0.334510924589646
0.352461597534445
0.33384127006222
0.382455073607844
0.343594823226244
0.400787812972355
0.35656583880696
0.387033305229129
0.353884060522364
0.375087932996757
0.356877917930318
0.395947737231995
0.372284822845477
0.406455678095375
0.386889967136878
0.394115277811904
0.374862548137671
0.419711029942541
0.383982141086974
0.435175288549885
0.390754474288417
0.429517694264094
0.394449655757639
0.432160459807175
0.381693836048145
0.424748247704563
0.423403283087189
0.441622149521708
0.418557334125905
0.422133033160188
0.415482165644354
0.454489588701841
0.432725029299242
0.458150355179838
0.417461599611061
0.460285491308449
0.453906950383861
0.464602700038412
0.44045103089549
0.479504442505496
0.457683270841869
0.476657179129102
0.451226951123682
0.489894490957272
0.450266339972919
0.488101177618161
0.454926037284884
0.509757625530924
0.468226729068872
0.507808973723043
0.462260781626475
0.509627172630097
0.479437287691161
0.497916754146609
0.48902405958654
0.554088564187481
0.499180021885518
0.530734180602336
0.491217575163356
0.5373762339263
0.522060252537731
0.546727979396936
0.504352482687008
0.538956648322324
0.522645849456348
0.550787417630207
0.530524841451651
0.55196465241764
0.521433853697188
0.548382838580673
0.528869241552091
0.568277041927283
0.547780549983812
0.569955305933728
0.548006032694937
0.606251137776981
0.534596048248895
0.600495562978462
0.577639268250823
0.575597443359357
0.535652065957647
0.599831460728756
0.556304680296917
0.602154867711702
0.55937525782097
0.612907699841717
0.573293918916841
0.636791504763411
0.580503959020969
0.613753570848772
0.575864935010603
0.604110305970125
0.565757745025465
0.614232905356108
0.612737606528596
0.633938382983948
0.590081730150989
0.633699553223015
0.592413461860827
0.658579926946401
0.580523564455096
0.66187507799298
0.58264836942899
0.670961666323918
0.636572852277079
0.632237545971941
0.609777035912363
0.648337450051167
0.616815098706485
0.645982481855795
0.625876370305463
0.642578062727422
0.622493231858904
0.655666901066095
0.647741450939063
0.665637387901002
0.611189480437998
0.650848213104323
0.644318206930144
0.68122399502812
0.615283828133876
0.679387933356258
0.646136670467133
0.706400521945143
0.632950579138451
0.706692113385314
0.661548346929419
0.691926162098384
0.63195467788826
0.704907171148919
0.646636923214384
0.68792614073462
0.652313416599953
0.714071882274855
0.668295122625331
0.688410736663286
0.654251313741042
0.704999436593997
0.671029626252389
0.710333640039034
0.683604338440913
0.681943668876236
0.661630853391696
0.717268643716161
0.682097411263217
0.754697308782608
0.675830688851136
0.719460599378611
0.648091769155771
0.747309656681309
0.671004704814741
0.703022112798558
0.670865640430695
0.709754594056372
0.683819448544765
0.686362526271297
0.657464810716398
0.719413572951926
0.678971852684002
0.738581340379959
0.701034077334917
0.720867934347891
0.681023596726192
0.7249637400948
0.701599090796977
0.726385183023789
0.695569748708746
0.714703205522914
0.703538266417571
0.746823340034965
0.688169472219112
0.732803607822994
0.67956487910163
0.716427701898142
0.696863955873636
0.730337388149398
0.685946278361277
0.749783174641859
0.693826317605198
0.74420054843717
0.675706188712308
0.735989465165226
0.667996137484653
0.731219848769064
0.666378435717189
0.721226672702044
0.707700232203507
0.690713852223542
0.663483031645166
0.721202290713956
0.681791054349222
0.736413359756605
0.676051451382497
0.713303711166993
0.668547973739869
0.693130507605128
0.694003963513606
0.712136259392008
0.679378035005291
0.72430631080638
0.674559306006448
0.717942925785272
0.669265725232171
0.701078124941665
0.664108530185544
0.742357169235332
0.680582032230413
0.713258524454118
0.674061768816034
0.69119279964936
0.678698035805929
0.703453460966288
0.65036971452026
0.698913725916051
0.680275515636943
0.68037862276832
0.664612230519253
0.697293922508739
0.666655874828644
0.687678575292991
0.665236262468629
0.6774175716207
0.65009251908323
0.671009127634036
0.651562173679527
0.686333813741641
0.660278257819514
0.68743666133494
0.654907797753068
0.663683234817858
0.663671320670747
0.681186996542483
0.652508960555756
0.682780514245005
0.640753648317372
0.69238848500214
0.642935366616637
0.693466319519114
0.647654691355345
0.675145703396098
0.644838035784889
0.673961411011497
0.657437844867023
0.680721513135484
0.645791248026658
0.662131165181195
0.643081804031137
0.66566068354403
0.623539081548335
0.658152530969055
0.631335567321367
0.666526414662986
0.625315013772837
0.657411947534927
0.60899083942215
0.663472571091192
0.634897066696669
0.630153923042727
0.622935566308144
0.637505050138389
0.594469157047363
0.641868560296689
0.620432745055374
0.639536133106626
0.634251343964516
0.626450800920701
0.621999578907666
0.647084645524185
0.620213926374731
0.63105828880894
0.596728311687292
0.625844488730726
0.593762282300785
0.638722927708574
0.584743149722041
0.611686340657391
0.592015961644855
0.613148905082998
0.581404773512568
0.614196862770125
0.591602659764981
0.602746454325852
0.57959721568672
0.600597134754604
0.602988664425387
0.609115531064701
0.572444817511079
0.592999703562159
0.568537376841261
0.587813371800226
0.568082939572163
0.580791252657753
0.561122365197438
0.578956654937339
0.561388507525028
0.565198200082323
0.552169595834983
0.571999534477685
0.540479134889908
0.575501065720895
0.536035467539887
0.543837583340771
0.537513512054429
0.576727068476547
0.551439290084818
0.559846251958328
0.54191159460449
0.55106622848589
0.529018143919182
0.549185133371238
0.5240800515734
0.541561317300979
0.529386781751022
0.544934497643023
0.516415364656924
0.544552809479976
0.523932509962883
0.52681214279818
0.52518476051993
0.529491286232276
0.508912681983676
0.520837180339623
0.497453559107039
0.516742645549132
0.513826069144817
0.515307124525824
0.49227840018759
0.508538651481128
0.485982630071658
0.511371319641569
0.484265284564468
0.496533126989512
0.473465671669779
0.49280705899497
0.478383645776018
0.480029690555785
0.473890524018441
0.4877152559593
0.460393753348994
0.477778814310741
0.471487045591562
0.47189143704195
0.463369044906696
0.469867706374121
0.459216275601297
0.46898172272348
0.452577586251974
0.462315080814635
0.450810260614666
0.458039067325665
0.438596177660437
0.456220890813409
0.447323240856266
0.451688850626483
0.433598013615485
0.446723019586573
0.43057381159687
0.437468027804104
0.420275807911863
0.433211662790644
0.421246335710669
0.430952313667246
0.415784213791483
0.417670441389782
0.405673027344631
0.42116507165155
0.409667822429127
0.412867663934595
0.403091146176372
0.415303797456943
0.39671702643641
0.405583184157046
0.394415175109384
0.400902809241114
0.393253131719052
0.399041309488577
0.384852396600606
0.398453335249487
0.38626222476065
0.388461718390463
0.377371398807307
0.391732132501119
0.37403706677364
0.380481890852332
0.366160536365404
0.37152985003239
0.3714305648259
0.375618625539284
0.354041583958671
0.362213420541385
0.357642109186855
0.36523301334125
0.348171827777284
0.366133364021423
0.350666177651496
0.359296405492854
0.351283466466646
0.344433818993664
0.34412646412192
0.354324149883847
0.336611554925066
0.341982811909991
0.338054347999691
0.336945178996775
0.325110077785583
0.331157632471307
0.330487094831317
0.332596821603147
0.322578299427888
0.330757145866959
0.319146956347014
0.323589151423131
0.314547442880197
0.318577604798513
0.317896102868847
0.31921943006578
0.305627967935432
0.312525432926135
0.305108455154316
0.308609372781125
0.307079736227046
0.309461553285213
0.291996922169793
0.304600837317767
0.301131876292794
0.304108793563763
0.287738532161487
0.291213413664752
0.289042741160657
0.290690593097984
0.282293115072257
0.293995517826334
0.282562942437355
0.288363807458009
0.276628879661572
0.278887451711699
0.271123393748655
0.281733017420733
0.270781641613025
0.277375521926349
0.266869182967607
0.270055801974162
0.269470128299147
0.266504212720832
0.263113381727873
0.26965890969251
0.260827404697183
0.263344013174102
0.259332175600878
0.272076137319752
0.252161197789652
0.253109996738868
0.249207319317855
0.255263086868476
0.248948302585162
0.24971806858934
0.246259495069313
0.24999449221927
0.244639295272991
0.250099672185997
0.240091238280166
0.242172320921142
0.238296594081528
0.244531935319078
0.233303861767626
0.233579001560393
0.229222443926289
0.236178038426103
0.227218067842874
0.238926767615217
0.23019135480677
0.228908920271246
0.225263249883938
0.229166549717557
0.216614333181753
0.230297677964031
0.221637783452088
0.223015043251555
0.214902858147283
0.22006312370755
0.215371698876787
0.219739271485774
0.213705994224895
0.214215125722151
0.211815402432681
0.22128590373082
0.210191267724922
0.211331930934686
0.208377215023287
0.213115908664279
0.207655516837065
0.210839813743893
0.20514427864995
0.209694379821505
0.20084857953652
0.200108208090996
0.192951702676602
0.199861343179155
0.200108487694432
0.197566737842093
0.191379762083638
0.193599915922915
0.188451704350204
0.195659073509534
0.192846166164092
0.191978594517562
0.185222804230395
0.187905176425244
0.178683464013679
0.187918170041274
0.189352928303508
0.187223573503176
0.182347935461453
0.185877708044504
0.181474716241751
0.188206242753946
0.183019748082175
0.179355358028242
0.176225476691033
0.179757139635624
0.17140254371145
0.178887864899634
0.171251253247206
0.174500427924047
0.169936379846799
0.169066178950069
0.16605625301473
0.172081945436421
0.168255512220175
0.168096011830315
0.163908300707888
0.172136519448503
0.165058368817076
0.164589957866022
0.159010511849987
0.166341027561326
0.16169291712814
0.161329909565294
0.160560494911086
0.166624993794005
0.157148390328062
0.162359969181718
0.159178013741859
0.154874329939232
0.154854937405593
0.161999854474974
0.162345815618576
0.165395709916742
0.153092355873468
0.15338276095418
0.157921307264466
0.161627173619796
0.156961413054963
0.157256948523648
0.150756714964855
0.156996744419042
0.156508308079258
0.158967804621504
0.155139399967681
0.160685178308557
0.156206161444811
0.158563924121578
0.152609757643691
0.156441693603552
0.151838863378278
0.160843391471415
0.155840490180902
0.160402999469649
0.158018614593266
0.163706499415673
0.15652857726927
0.160520817786153
0.154415887360036
0.157335708401018
0.156877766948047
0.164373109158774
0.164021597268102
0.162859207892534
0.162923269850049
0.170866516439727
0.163783442440015
0.166593269334208
0.167428067820684
0.168582013406449
0.166019433951992
0.175481003822954
0.172768310110486
0.17151406844214
0.171713523226021
0.176043819164439
0.169155217727177
0.178893159257984
0.180428965018696
0.179401585185774
0.176524626554316
0.183818918891433
0.184914772831102
0.188326431895716
0.184281343197152
0.190503351404986
0.18815945715347
0.187598113291762
0.18889510831623
0.187470457460639
0.189245164044131
0.197487754993158
0.194885467859979
0.200039367645303
0.200649357507023
0.205340921607912
0.200647441324022
0.210266569327953
0.207681520061582
0.212440650613337
0.20957932572762
0.216843166293031
0.214715637803986
0.218816215433045
0.223120937502493
0.220736572316645
0.221706148414931
0.229927699298027
0.223342923450974
0.230939176144394
0.228623709032018
0.226784367110817
0.218472176069435
0.224099311399705
0.22430623050783
0.226652319214135
0.228143158723299
0.232343456601712
0.227805601198471
0.235414594564142
0.220899844457047
0.220322315997342
0.224888844347662
0.227641208243478
0.223032360880583
0.227756415036927
0.22249050886577
0.219468940458184
0.220194176122044
0.227229240548868
0.223883320540867
0.226015915523571
0.222469167721467
0.224850949664421
0.220526708113745
0.226351324902493
0.225650181280727
0.22708753068504
0.221790583926718
0.225326069803389
0.223523452499655
0.228000445838293
0.225654963982681
0.225928407058063
0.221051041120787
0.22574227547622
0.227319894226208
0.227002957314671
0.225396020801935
0.227602875955786
0.227597174530792
0.232954336573359
0.225151612971765
0.22780976056079
0.231338119696851
0.229549712510795
0.223400451345763
0.229330950674307
0.229993811496575
0.229755845190536
0.221891169123614
0.225079002187015
0.220846597803942
0.226920544837185
0.223794050293848
0.22170752907286
0.220632428927432
0.219822527142311
0.218322289295886
0.219793095674006
0.217158752316514
0.219953349840357
0.216701774027832
0.218550683162201
0.214276810812907
0.212801754175934
0.212346800014167
0.212908746328412
0.207527169301927
0.209411888272382
0.204644493470831
0.202214704507643
0.198456939155792
0.197464575987487
0.192689834477162
0.198724044320133
0.197366239675386
0.193556956095451
0.18830428007929
0.188081643221604
0.186311118843344
0.190369663489242
0.186596215856575
0.18680989000094
0.184799717493444
0.184960563945044
0.178301185718958
0.175613288983315
0.173647326640566
0.180047693096278
0.16918400718969
0.172414036045172
0.172421156655694
0.171540963928532
0.168889706846599
0.166968640680533
0.163165700609702
0.163595388479449
0.16363362307763
0.161369331753761
0.157654872987415
0.159895230511645
0.157021720717739
0.158673621739821
0.157567128343105
0.153346301041834
0.151788192669887
0.153897768952781
0.151178826563946
0.151887487058012
0.148092245415851
0.148284797976804
0.147166825230346
0.148539053616066
0.143413347158549
0.146775379718756
0.145936350530915
0.145973795483262
0.14489158660832
0.142435082144411
0.139666753958713
0.137419452469634
0.137233912275778
0.141548929847294
0.141781019072188
0.138820377455247
0.139191785439614
0.139055560399179
0.133213992907855
0.135286694508097
0.134468347195911
0.135606681018224
0.133598908511945
0.133005907303996
0.134201522891061
0.133729351961039
0.132177139654753
0.131780736714775
0.132549724251053
0.130000738005853
0.132607322729146
0.125474043273735
0.124116159306146
0.127326245866863
0.127546178319555
0.126744433879004
0.122924009553781
0.127751460291145
0.125305845713592
0.125786342041468
0.126359546437647
0.124940219241214
0.121633333586394
0.12259805582511
0.121877032628702
0.123795626906717
0.120992035775183
0.121949824692259
0.119211693176914
0.121098172390245
0.12113426305017
0.11946331243756
0.118846901535533
0.120644767830331
0.118695416915933
0.11745735668753
0.118746026959175
0.118209984750738
0.115969291971764
0.11890381663501
0.118913050391955
0.119159497737548
0.116791715263662
0.11730792490761
0.112886607555432
0.111947178478787
0.112346265603475
0.115660775124677
0.116604525880399
0.117584275643592
0.113204853647622
0.113405650468737
0.112994523452086
0.114606063164556
0.114329703436703
0.115650669904691
0.109682161625041
0.111295670783627
0.112173448652857
0.109295618846859
0.108905238107086
0.110625876609728
0.110035207277086
0.109717852714636
0.108061675296141
0.111116932681286
0.111171694103789
0.106889330002192
0.110553424553123
0.110935255106005
0.107766253576829
0.109271088273757
0.103942264412407
0.107051023613753
0.105453071547956
0.104037982770452
0.110632582190313
0.106718298908972
0.105435289576386
0.104795486550618
0.106389191590107
0.109300225205381
0.107898072491036
0.109897832268357
0.106804627585596
0.104317074736573
0.101585770197988
0.105002284236036
0.102353180843594
0.103447897389992
0.103996072069643
0.105840259590899
0.103337528146708
0.106024252192219
0.106309621958278
0.105421018567055
0.102850801496664
0.107326558765823
0.102886292382433
0.101081972784415
0.101260676585761
0.10100250443648
0.102942487120628
0.105912216235294
0.101126067891341
0.101380828530446
0.101203329359136
0.105174962348936
0.099182700941931
0.0951242768091758
0.100177167869999
0.10241177906769
0.099657665895476
0.0983521311209792
0.102459032752523
0.0984297131952715
0.0992597992294606
0.0998774889428452
0.0976375204731839
0.0973391058887731
0.0982258387692353
0.0989421418034616
0.0930069602425768
0.0967046621043158
0.0971737465668824
0.0947760419338417
0.0980509511880694
0.0949564267552231
0.0959977876869082
0.095269727290545
0.092253822477504
0.0973475962344363
0.0947719666946393
0.0945281592862925
0.0943434641098691
0.0961397155387759
0.0927670535831019
0.0960344865767441
0.0944351946354036
0.0931883032826618
0.0935787594418639
0.0918204992593718
0.0918796502126525
0.0940017648534558
0.0904992128735103
0.0904534454822808
0.0912192198567707
0.0882761554711781
0.0914673309373727
0.0936776889649437
0.0879089931928375
0.0920158579962286
0.0909775655269447
0.0905099018111704
0.0895093083472826
0.0903408715766141
0.0892808647870533
0.0861673319353298
0.0860784647674757
0.0887229447945632
0.0866283616072287
0.0896784507226168
0.0878374097427828
0.0903877714938467
0.0854106129045634
0.0864562579456976
0.0866285015707965
0.0832399000423217
0.0831334043741271
0.0836716187671873
0.0874726843453838
0.0855436894548413
0.0807087199936894
0.0858013479328704
0.0822193884479448
0.0837505226764986
0.0798949449137677
0.0836661898197171
0.0819197625703084
0.0829072894804004
0.0825646265806155
0.0807619915741135
0.0777013025802439
0.0808733486133232
0.0806538072353885
0.0810109217697628
0.0764225888122918
0.0784146905722596
0.0777742936395957
0.0778801092932451
0.0779709665553034
0.0810509320769359
0.0745137378915058
0.0779441381715375
0.0741984545391329
0.0776562898290311
0.0749433495128691
0.0768765525755296
0.0743497692817414
0.0736259082519688
0.0741062474122917
0.0733319992919876
0.0739465908819533
0.074071558727424
0.0743289263309379
0.0754547668284219
0.0725788236594794
0.0752460237113603
0.0744183847505426
0.0731797352198263
0.0705704587760393
0.0714496006979616
0.0707369875726805
0.0727145120350504
0.06951033074125
0.0697033069316302
0.0721392434201858
0.0723812682859422
0.0741184300491865
0.0725905164025825
0.071138712310445
0.0723854386591044
0.0691290316075141
0.0706798684266052
0.0706768661623342
0.0684412917988516
0.071938918704817
0.0712521524459872
0.0672412584575319
0.0703792741809095
0.064259606386834
0.0695685369374379
0.0685691936753658
0.068918880629851
0.0691289520376209
0.0679273949437452
0.0687867412798179
0.0674051639234674
0.0650755570644258
0.0708030026932799
0.0689165843732431
0.0678404631656605
0.0614053091838272
0.0640948442923725
0.0635888818334652
0.0648351415739828
0.0628571369621082
0.0663053823041875
0.0648358009280101
0.0662200226787493
0.0645182110420543
0.0645344270150922
0.0623237698973053
0.0605445277711814
0.0650071875840749
0.0644807461231932
0.0644147783882113
0.0672159991279589
0.0644450947110525
0.063811397361955
0.060863149810806
0.0631663308706489
0.0647282885244408
0.0624238587251914
0.0637146012835178
0.0627845973367663
0.0641242715189212
0.0623478884026249
0.0635293593466676
0.0621955585135587
0.0631745414787316
0.0630063273913161
0.0618472516332707
0.0619953733159484
0.0607944089825574
0.0635203240334284
0.0622865437004627
0.0609312580198294
0.0602257514181256
0.0628708186583614
0.0612430623080623
0.060647699580574
0.0625994242165619
0.0656426894547871
0.0617166736399309
0.0622927898757198
0.0598019742151482
0.0587273351410246
0.0605811319726018
0.058368805968474
0.0574694087110373
0.0616185909075863
0.0584571239669459
0.0589763997437793
0.0576714793171283
0.0596096359140719
0.0593675726533219
0.0597560303775803
0.0575356469384307
0.0595027274074685
0.055993195022775
0.0580255221955977
0.0589375915457367
0.0605373242300477
0.0577764328470423
0.0585454758070431
0.0552976752169834
0.0590877976685461
0.0543072435392222
0.0575095128688849
0.0561492389730685
0.0582111316927693
0.0555948585172558
0.0566756231622724
0.0568778195736826
0.0562446652355806
0.0555076839359834
0.0578873977276964
0.0567368441542754
0.0550506720723756
0.0547212674679982
0.0576871999792172
0.056428471374933
0.0579556180976783
0.0559629969992591
0.0552816741229256
0.0541861797124441
0.05649095079633
0.0546237696317409
0.0542411155239227
0.0554753689037388
0.0537558215875855
0.0557923186817477
0.0541765895088514
0.0557226158202803
0.0571773411737584
0.0537390941481391
0.0560446467627055
0.055043476158093
0.0565950476606584
0.054431847392651
0.0560877293815092
0.0533132291775997
0.0554741426858551
0.054471702961763
0.0543994633471551
0.0524925934684954
0.0527014618784351
0.0553919765152695
0.0538403780567608
0.0517629257666062
0.0537148336338225
0.0538501752913732
0.052862579823681
0.050298662107456
0.0517154772186174
0.0512467001246304
0.0530359452753976
0.0509703260644843
0.0511623840937751
0.0501144596094298
0.0501752008084848
0.0521808861142716
0.0527285738760858
0.0510192789027512
0.052684522723624
0.0515712763017984
0.0497021901031785
0.0484353200368548
0.0506745826330401
0.048672143247265
0.0515478730307858
0.0464374759271275
0.0514461551912295
0.0486742894777243
0.0529274665522587
0.0479471581561128
0.050827499037116
0.0477696412327873
0.0490694265444029
0.0467297468872628
0.0479206162250896
0.0474867451883579
0.0464120515564299
0.0467308803166892
0.0491877620563039
0.0487873448387195
0.0479485160594334
0.046436330153183
0.0472809308598902
0.0463341480234013
0.0474365577674701
0.0473683990442851
0.0500360108070732
0.0465512530082192
0.0479282163942814
0.0472497692959489
0.0479640961512152
0.0440368363173468
0.0478603330387154
0.0458982458986974
0.0463747322833222
0.046208147417888
0.049562405669458
0.0454077028425448
0.0462812348716194
0.0461607429179035
0.0464110314676513
0.0449216941443295
0.0480096115041414
0.044495138341609
0.0457205857009058
0.0419718328100028
0.0462497281971992
0.0420857123017419
0.0435036634857594
0.0428404993973062
0.0443997828744144
0.0414667438632396
0.0448996571078391
0.0411870679061202
0.047249689528637
0.0413492075432003
0.0443673693186721
0.0399757410168949
0.0439052124818816
0.0428118740522328
0.0431035479686579
0.0422644666873527
0.0430032620243095
0.0426905622708406
0.0434639396756692
0.0425354417991755
0.0408706208389397
0.0412527294743046
0.0408522047957918
0.0405816348768821
0.0427969871449429
0.0390584435713035
0.0432125352419512
0.0416767344043091
0.0404364312501472
0.0389755564671733
0.0407717818808701
0.0400958915168491
0.0400535844430873
0.0382214201433139
0.0372161218912748
0.0400935130849009
0.0404124002434954
0.0396145764984355
0.0405915897300208
0.0389994385138936
0.0407499365088378
0.0394502700831793
0.0406977781874874
0.0412170220054835
0.0407771559145471
0.0382823469663573
0.0418898619869549
0.0408632070254726
0.0457682587383709
0.0417072780393148
0.0444836101395053
0.0403080446043877
0.0455616045644509
0.0444284391954399
0.0458320130531554
0.0440862521662065
0.0482468247925532
0.0443153590508643
0.051180216515323
0.0433798173083923
0.0484596765442603
0.0433743435510372
0.0459094148273944
0.0315452521871083
0.0384900797515218
0.0362447742861991
0.0498957562013112
0.0387577712512558
0.0401065341895446
0.043285782761252
0.0441561944933476
0.0331106971641058
0.044948933577605
0.0357238597542868
0.040729821255766
0.0413672093962183
0.0387744965490682
0.0306060883417995
0.0438345653851735
0.0359938228981215
0.0491376440048133
0.0338144041959403
0.0444330525319662
0.0369991056213281
0.0472472704389866
0.0307334646230599
0.0511177733092934
0.0321600625844402
0.047711528428904
0.0273954857421425
0.0445295962194721
0.0253172798939364
0.0456934093320228
0.024762823889497
0.0489477356787842
0.0241298717883469
0.0530724757536926
0.027192484662478
0.0581333133162421
0.0230285499427879
0.0493765101706247
0.0171958123977345
0.0507460556051462
0.0228697355015077
0.0607031077179072
0.0259870965367524
0.0602080370394702
0.0171967330576795
0.0478706058066453
0.0267353767863659
0.0627237435175976
0.0267386185709212
0.0449246345927857
0.0368591086941417
0.0569290841454839
0.0424762701524661
0.0309282931198399
0.0512244216179655
0.0314173677163137
0.0560502231302352
0.0239160586343004
0.0620157160619468
0.0193553380475585
0.0588122771261859
0.0237929680492918
0.0581895054782272
0.024938381212491
0.0533376875733427
0.0309461635906605
0.043095259626646
0.0377892716320903
0.0385084475654095
0.0397869279818823
0.037391361950306
0.0373578438585185
0.0382973740751951
0.0340037756586198
0.0425707127829379
0.0329472537185284
0.0413474590204107
0.0311615568466568
0.0402903990648731
0.032671361194238
0.0382221079307542
0.0341429168648748
0.034350147434956
0.0340259300732114
0.0348015224767319
0.0329147463996546
0.0367275036867686
0.0323872734384125
0.0380084914755492
0.0330795300685196
0.0366795541921841
0.0311520637233955
0.0361899901786385
0.0343719131854281
0.0357912186981454
0.0326374660415988
0.0336809054336949
0.0308330992932515
0.0343474963663507
0.0331801490402676
0.0352539460834436
0.0308848602056798
0.0336113445019619
0.0342665795177082
0.0346393799388894
0.031476965231759
0.036529369330279
0.0328807982183101
0.0362735357767487
0.0302659352356652
0.0370149462280386
0.0329079135650281
0.0342278562187463
0.0339069238155909
0.0347378808066448
0.0301551245668298
0.0334054387580458
0.0325545392739693
0.0343438569262461
0.0334892903823043
0.0347635085693146
0.031445423360004
0.0339965061866034
0.0334254828462195
0.0337950494001274
0.0313970877736463
0.0354023769389009
0.029426959816392
0.0329575072680056
0.0322875436330671
0.0331590298015438
0.0313318009380753
0.0342142556677508
0.03079812424116
0.0330972221166415
0.0312806687398777
0.0319445588307697
0.0336385336327181
0.0336131701982674
0.0298502843455906
0.0351751775637132
0.0325118444170918
0.0327153700238619
0.0332326162890158
0.0337852060199457
0.0318143114910267
0.0324092608763151
0.0327851368160908
0.031579268637553
0.0301880467619055
0.0333587546273249
0.0314397486440459
0.0336695256958461
0.0308525539779064
0.0333341764891287
0.0327143738330734
0.0311594944559799
0.0316684524143376
0.0357062647132099
0.0321027909806389
0.0358633654796253
0.0321992134012644
0.0322942647148284
0.0314170189146539
0.0342236700210262
0.0338225301891106
0.0333018259103458
0.0329499883193062
0.0334704858392342
0.0312942300882015
0.032882946955915
0.031198818395732
0.0337324483409838
0.0325518594610319
0.0335594375194224
0.0320357790791504
0.03524536604522
0.0327727231511431
0.0345234648563836
0.0337492974574628
0.0336025941493025
0.0330353245765471
0.0330483452495928
0.0305208584339792
0.0337323553580818
0.0328648755100132
0.0311199158613679
0.0324332714677992
0.0334903860027089
0.0317397263211201
0.0308784168841114
0.0318737414156154
0.0339178173439136
0.0324623795974714
0.0316168005038667
0.0329985842252213
0.032804526607911
0.0325882093423792
0.0322906019130254
0.0312262720328755
0.0338741744924657
0.0329986739556018
0.0330280860701843
0.0314820532458189
0.0312830484178933
0.0314263456707347
0.0321808774833532
0.0298449281086115
0.0309272327090081
0.0317758459427707
0.0320733699711451
0.0323415431448539
0.0325470125186611
0.0316732131177322
0.0322606031045672
0.0337019158007003
0.0348525190614622
0.0325940499652334
0.0322432069064051
0.0322345777670048
0.0334709523281096
0.032615270127686
0.0336122869445836
0.0329779872209345
0.0319209757305303
0.0354767288355836
0.0336301945840726
0.032192335563823
0.0303329457777619
0.0325823756619005
0.0341096494785071
0.0332893205357999
0.0344180498917451
0.032004006480006
0.034105255358108
0.031849509816815
0.032880555652482
0.0337570349379829
0.0343314066672723
0.0339780472254362
0.0307890561564402
0.0318698733844441
0.0319014460258612
0.0305358041519935
0.0320022271521423
0.0333570920996591
0.0322692675050551
0.0326929039831889
0.0309690869598723
0.033522616147497
0.031287552630559
0.0326226641758299
0.0316839391580887
0.0320526850969434
0.0328956693976346
0.0309020426293915
0.0294287104493603
0.0303332366431763
0.0300083033484865
0.0339986692398598
0.0305487281391729
0.0322702546858154
0.0325024337033899
0.0315458940270618
0.0315134813970087
0.031176184091258
0.029484438304554
0.0317418276866904
0.0308928401110731
0.0306460826240771
0.0312482318624851
0.0301740957957584
0.0327905064856546
0.0332155534966718
0.0310644385106304
0.0306553633703665
0.0313721747863232
0.0281334093948413
0.0300412710401051
0.0304473634207081
0.0296983760137247
0.0296895028058296
0.0308779351128634
0.0305600470737581
0.0283332345856103
0.0302637877411001
0.0303259309947613
0.0300795964259297
0.029799980153382
0.0319491366121157
0.0307556212712297
0.0299202385490052
0.0285005428467283
0.0293469429150618
0.0315317694669007
0.0311233299505227
0.0292617050038724
0.0298968181783086
0.0308915020193578
0.0317768676641028
0.0299813080139104
0.0308591878795848
0.0306657472330003
0.0301711231758061
0.0322487743128915
0.0284935570306576
0.028227778589071
0.0291647821569391
0.031382594038621
0.0285467624218545
0.0282916360815395
0.0312454637335678
0.0295138988081513
0.0286665805285185
0.029358927148609
0.0277763130184573
0.0289996457980797
0.0308537013672094
0.0302874356391993
0.0290820007695932
0.0300930073145826
0.0275624754913064
0.0305962854731718
0.0281875670203479
0.0291471256782996
0.0290258404018319
0.0318945661226215
0.031951493218744
0.0293314507575915
0.0294634435252089
0.0281726634476274
0.0299667198423518
0.0266439303399622
0.0272429266309406
0.0278327794243174
0.0310303481853985
0.0288883157447375
0.0303664196182056
0.0279979022577582
0.0309202515375266
0.0297722535326881
0.0286030259629242
0.0275110429670733
0.0290917186203147
0.0301724207723449
0.0296609090991547
0.0282976676722126
0.0288567682882104
0.0282289640056769
0.0287102497431576
0.0269762069813783
0.0330430242330495
0.0351602398252494
0.0293746538838328
0.0294997120841984
0.0284227096967454
0.0277123764379064
0.0280044595654715
0.0278595109559455
0.0285556239041145
0.027282828936906
0.0268854861717935
0.029040325444435
0.0270334290786256
0.0277885215091937
0.0280007989953247
0.0257528062490767
0.0279552397598164
0.0280681903028156
0.0268306575160895
0.0288130251339689
0.0274060906447808
0.0277741976350448
0.0276627646092877
0.0284359148952003
0.0267808376485729
0.0312492377353622
0.0306751482530375
0.0347702596878467
0.0307948834178642
0.0243631596392024
0.027519196492504
0.025605374393587
0.0287995294957112
0.0264719318250523
0.0270804886999255
0.0259635625214804
0.0254830886977689
0.0268081058691981
0.027959184958596
0.0266397197924288
0.026820153739726
0.0230157396257117
0.0260397187656172
0.0261145921787798
0.0282087014831099
0.0271171841943226
0.0276500950641197
0.0252507786728278
0.026331349265258
0.0252948918105698
0.0266366195267761
0.0204654669707192
0.0295781211385575
0.0317476002081479
0.0417176839815834
0.0274096569385915
0.0275978770911562
0.0278641864237682
0.0312114853841832
0.0249651006236325
0.027538467043769
0.0247215190796002
0.0273984207129438
0.0261934448926972
0.02506840512217
0.0262959800736901
0.0243928691875344
0.0248843638314336
0.0260644948060555
0.0252495783458052
0.0257449624130226
0.0227178248720309
0.0260544383893704
0.0262293565238004
0.0257384925639139
0.0236046426530611
0.0266372215345569
0.0230232302506272
0.0274768594373161
0.0261731767220906
0.0349910112834829
0.0317477365438925
0.0265294468218116
0.0254859453237954
0.0244055219626117
0.0224217096288965
0.0238385690740318
0.0277835382142752
0.0255416501077348
0.0254334602138251
0.0249850449957626
0.0252016067016571
0.0261650639588942
0.0263056413358846
0.0246989006501098
0.0249944088284975
0.0253892715925946
0.0228582305182967
0.0245625481313505
0.025324752744519
0.0229667986772402
0.0257770481276723
0.0241711573804625
0.0318171497566278
0.024744977894678
0.0280037368082551
0.0313193785033855
0.0498649284455305
0.0286281360455616
0.0268405040685086
0.0259865850458704
0.0227767802949934
0.0237436838569731
0.0231818689485707
0.0241914183527767
0.0236582212456022
0.0234033411945413
0.0262755785300972
0.0253265098219903
0.0240990927999044
0.0229276936451855
0.0211328438530465
0.0239124460580474
0.0236248127553995
0.0255094110512525
0.0228929531606353
0.0233931479203967
0.0314277299978725
0.043014537909432
0.0347333573326332
0.0233140986387918
0.0304880958055272
0.0295025043018022
0.0428459967091596
0.0404001069356525
0.0179343418774423
0.0297948902033941
0.018335301504896
0.0274618792343433
0.018301182929038
0.0257910806076723
0.0219168466250942
0.0369630428225746
0.0229602077290994
0.0317402678657206
0.0240321539798616
0.0232821347344128
0.0211619048988898
0.0244443305456556
0.0211682721088077
0.0244914320484702
0.0221283598057766
0.0220152814994987
0.0244500213295293
0.0242837653164236
0.0211636807222331
0.0258277468393244
0.0268321117335397
0.0378909432746316
0.0209416642543933
0.0277846453100954
0.0209478398751391
0.0264834548307276
0.0314172068680074
0.0483285488897101
0.023238557164422
0.0268287995029421
0.0245292094156227
0.0240074823375963
0.0269521140035821
0.0241269186327497
0.0232466250121847
0.0242937200976952
0.0210420118223326
0.0230370055500834
0.0248671914188876
0.0230354933695172
0.0242032289770759
0.0218547234284809
0.0234502912548815
0.0227515682029053
0.0236341831770411
0.0227878372501184
0.0249008089254675
0.0331410354929626
0.0407114731701611
0.0593038348405089
0.0352547170605548
0.0432051941932567
0.0266156950770492
0.0283093937454932
0.0214599927185109
0.0271600965727703
0.0205776160838854
0.0296342727759794
0.0205302566867359
0.0280043099061289
0.0235680650770783
0.0270687563723417
0.0198209078500668
0.0246991465169972
0.0200344095657526
0.0246878563964975
0.0199569519055375
0.0248365582783793
0.0202241444263457
0.0227448089211037
0.0247520374130715
0.0356917274267528
0.0352832751202251
0.0248093584618631
0.0409227116335831
0.0440377937694486
0.0645431591663238
0.023778551108643
0.0355769875149951
0.0220246387649942
0.0250283753944483
0.0244543527958974
0.0277015339905643
0.0313844395099491
0.0277597740625365
0.0224642398591794
0.0260880096480801
0.0259308805112472
0.026326189570036
0.027539627889525
0.0422372336314548
0.0641133903381648
0.041129890787876
0.0216122583643806
0.0312521800129963
0.0353401807357376
0.0572408932682925
0.0301809574308886
0.0268067291666809
0.0341061563969557
0.0182871457028434
0.0254398304468764
0.0188390584621511
0.0269891745243803
0.0281549842624108
0.0298082322273029
0.019946489320737
0.0270845170982345
0.0221277733105147
0.027064284314066
0.0335701697160967
0.0394568505856632
0.0373173012761752
0.0286689546889769
0.0278154549617308
0.0344979977918466
0.0215072153372873
0.030023481243011
0.0212751524603001
0.0301144444978716
0.0358144922265609
0.0461688047545026
0.0366418998133464
0.0479048603417428
0.0370679099743324
0.0259743845867713
0.0297255503435633
0.0482710332438168
0.0250425449825879
0.0411601177439899
0.0312535909318361
0.0774110115513296
0.0457644046873448
0.0529730458810251
0.0294732842742543
0.0282738234202542
0.0263533485780868
0.0236996261507152
0.0337879429027031
0.0353533229184144
0.0405406269476054
0.0182047848400496
0.037217118664718
0.030617166131533
0.0537297170144066
0.0294043282271926
0.0347235889333665
0.0222435948889135
0.0360772347042584
0.0333789695069896
0.0400782444224709
0.0309498484380064
0.0662873783747017
0.0802390467702897
0.0490334744142073
0.040514664311309
0.035038212428495
0.0647209485859303
0.042834822405595
0.0243833034120006
0.0358540413257886
0.0218746174842947
0.035102795270293
0.0370178140433566
0.0629704209128956
0.044415770283932
0.0250976570951947
0.0349319411956012
0.0381195712569708
0.0535108990735754
0.0482973699612323
0.0251817206395768
0.0324247384918366
0.0259140216953053
0.0510597509599798
0.0568207244777539
0.0786606483351769
0.0397998640068275
0.0818907896994478
0.0527574189247454
0.0564153553635391
0.0407745177232123
0.0468239892533563
0.0547026554240114
0.0632023165158583
0.0336986028935154
0.0409144305064733
0.0498103540491697
0.0669856184861073
0.0393398313301294
0.0357758531741987
0.0421195065467893
0.0466318523241101
0.0923128638245643
0.118684638322433
0.0699300034023439
0.0454567876103209
0.0548965750401856
0.0669244387578514
0.0494825570298721
0.0333309325542915
0.0407937289851401
0.0329553177255139
0.035466723261412
0.0435198343695326
0.0478547457372145
0.0455539098471905
0.0366030253273488
0.0430482280277656
0.0440834164213771
0.0892243667605597
0.107571410477498
0.0857099562135386
0.0731755189343566
0.0797145667045679
0.0838626393640907
0.0482232306345446
0.0505230194627661
0.0412043499237397
0.0582817566319829
0.0480364023581737
0.0439301269961875
0.0590999164578912
0.0664157702984404
0.0764906217283724
0.0695911037053712
0.076870635139597
0.0542349425234169
0.0638917011925511
0.106240028614631
0.135671313840552
0.115403429781497
0.0523723475134824
0.0987300919899687
0.0767426341995641
0.145831502230964
0.0736065854223291
0.0616300951193731
0.0594807196300542
0.0639924175656788
0.0654723904039275
0.0836375413554955
0.0789266185027584
0.0902310575799564
0.068880954916885
0.0905990885832323
0.0997647486539663
0.203914475914018
0.139826440948738
0.107437897411969
0.0856428399636377
0.118326841793878
0.103094163202924
0.0945822735777495
0.0769222507659057
0.103538507781392
0.104732472541875
0.148735271199248
0.101041908010938
0.101778670594285
0.12285997205873
0.118428321064498
0.132245707190415
0.131113853974461
0.162348173640302
0.107489618639507
0.117816321161096
0.103986794230728
0.114734121109584
0.126558515937684
0.14368725292597
0.146516949490494
0.12127195567695
0.128757481993493
0.121199934427415
0.124045082264488
0.122751507508809
0.129188404016551
0.141139188580392
0.18388772191031
0.24707293523006
0.221731023463478
0.180821828817519
0.130456311870483
0.139137495419982
0.146657441098401
0.171914203419076
0.189675059442942
0.174137838866943
0.16914697316173
0.127041414068124
0.140664392097135
0.136668787516035
0.132114712422566
0.138309810096484
0.131233486243249
0.141900837036414
0.146257088036548
0.169492927340902
0.159234379317311
0.209761383636913
0.145145316505447
0.133497775459307
0.132929887609229
0.134901191939159
0.127765088731921
0.133352929068911
0.145923656171718
0.150441465873347
0.136624377635112
0.121347999872451
0.143067730511678
0.152275806614669
0.164313100961075
0.137014861978227
0.136045937233966
0.130025701201363
0.122977001952224
0.138163753577059
0.153468084397799
0.171843196898278
0.144268151253129
0.123626154781529
0.128358524005108
0.117451531877585
0.121523785554567
0.119395004690957
0.132067041328923
0.124190402635982
0.130128878697882
0.125588427703108
0.127263212958408
0.115018456753778
0.126827720323204
0.123401469263685
0.128872891364577
0.117593025846593
0.123130191344716
0.116943766316042
0.121730302427451
0.117684790275257
0.125830512324764
0.119118293605896
0.129578553490308
0.120191545460195
0.123018998398287
0.116322540878377
0.121283825848304
0.119693743108282
0.126150385769708
0.112789633655005
0.120862250212655
0.114422034152841
0.117992796033768
0.112221073828628
0.118163280541922
0.11193342457346
0.119886543910939
0.113840906203765
0.114723561505502
0.113987326417768
0.121821277429496
0.140544940474738
0.154559955033209
0.14468239674439
0.112017706822263
0.111738827315218
0.110447519920652
0.104770053574442
0.122278287000379
0.148014716133577
0.140007024032663
0.106178312199813
0.103075797271386
0.104873277100097
0.125556327027129
0.108461258845708
0.105006952855122
0.096147494225991
0.123558035912655
0.119940171440001
0.218221687130446
0.206081852324245
0.20266572836443
0.114112939096772
0.106776743901013
0.126466279489976
0.128351029426025
0.0999011591352777
0.0879489669053391
0.102636512724146
0.135725711263829
0.115191676336496
0.0931069188628346
0.0815581879925277
0.0959645517057312
0.129384326640385
0.127124725555732
0.122175693369685
0.129589867511573
0.1459813645545
0.144509164367747
0.167383514762244
0.177154380207581
0.112308423449977
0.0910866321207679
0.0871094295183147
0.0943801392015342
0.116593931803996
0.139076697488532
0.11054465491858
0.0968647137533698
0.0818909447159836
0.0764374545616346
0.0919733315370361
0.112551304230849
0.0958601475724944
0.116588121883234
0.111039552756207
0.0982029565729345
0.0941265169102808
0.13515491347763
0.143546052635115
0.155647374649493
0.0844245066707583
0.0947470193207565
0.134066852070981
0.137173959956616
0.106981508396116
0.096377213006014
0.0719160816548126
0.0932098220362652
0.0876625094817124
0.0888999126825059
0.103527505826066
0.119012834821123
0.139539344382561
0.174147507141787
0.191946720827627
0.139045612752248
0.0886899622781899
0.0744981043804642
0.0737724030124158
0.0856911738519939
0.0682475367870914
0.0871662564125558
0.099722677891804
0.0928288668289904
0.0882573187575277
0.121908475347051
0.0907450821794055
0.0765917971616449
0.0739826849493088
0.0799484684240324
0.0888682807291351
0.130690164206248
0.132177592402862
0.110206375906765
0.107223921753723
0.114748173689809
0.0942361533926453
0.0831984153304443
0.0859673771516449
0.0834007704812882
0.0928210828640983
0.105752480504032
0.0979694284253005
0.0978414821254635
0.0939697271657366
0.105046719762787
0.136889186655967
0.125118091282721
0.123147433512173
0.141948362495902
0.169136561589707
0.179116362708944
0.134877008590797
0.119313145450639
0.117772382666016
0.125981266237147
0.117299899116017
0.124152973441798
0.15685532136143
0.15751506346625
0.13438472024433
0.129358018274053
0.133400408261598
0.13259380807594
0.153928536529588
0.175740266106984
0.192712482011377
0.209330226843625
0.197928468808379
0.175914818284713
0.149390006523082
0.145382141803049
0.151883283924975
0.151626264061581
0.142682281862431
0.143414734516747
0.162492110581625
0.176220681277604
0.15145769081196
0.149243593645356
0.146687003722701
0.14931266910792
0.149963266875636
0.153915191834863
0.150719045068643
0.155519542647893
0.151015949724396
0.160521478408485
0.186687897933292
0.225645436363044
0.187097825877487
0.165834743273627
0.175833545084812
0.174220574858162
0.165213024230024
0.176141776525294
0.193473997594645
0.184402575045499
0.174087649383256
0.172813721116755
0.173180225694315
0.17360242646534
0.20378592565041
0.199110617110249
0.186377139204977
0.179108974132542
0.187195318955001
0.234729843523527
0.22677888571416
0.220484588147059
0.207847999526537
0.200930516384807
0.185337280078493
0.186878765060337
0.183379925944719
0.193040222721619
0.190175673121664
0.189990062471608
0.184380380026957
0.188101414289396
0.186735592117028
0.18461659914173
0.197261057108551
0.216756114614452
0.189734827301255
0.187438444183997
0.183834469868139
0.183377341018352
0.189090590488196
0.214954963540359
0.202293129505861
0.194993563807126
0.19517558595665
0.216253711835478
0.218066043451867
0.198747010193631
0.179908880514929
0.189906155838291
0.186941234069878
0.187008825470594
0.183372474820518
0.205577350877991
0.219404595515667
0.203496439165221
0.185862798654368
0.188844956799345
0.185848392211559
0.19159528190713
0.187249530487067
0.195234399696846
0.187437587150519
0.198442465940395
0.194906652705513
0.195664331663872
0.193142150580953
0.209284466076879
0.219334546230053
0.205525833275359
0.188913608055086
0.190799690539644
0.184588809733532
0.190332844333952
0.189531448539208
0.186749615173223
0.175249454482722
0.180704425179811
0.169098045281511
0.193263872084656
0.209087088741657
0.186576619204646
0.190283119472923
0.171018648819225
0.164924651726059
0.168206257007179
0.165343063551364
0.161414650522121
0.161267526569189
0.166698239721355
0.159088172531803
0.161203896597871
0.15620045459948
0.156921587420897
0.15758496041765
0.157227667589976
0.15219429728064
0.156673634480021
0.153666558268824
0.156289639955996
0.152642875497247
0.154058277082664
0.151370094874948
0.15578680870721
0.177171330954057
0.182428975980925
0.180664734951382
0.162932324410159
0.16551950296749
0.158283400580154
0.152639772979113
0.152390153959556
0.149471295694608
0.153044513985221
0.153206317423378
0.154361317463591
0.15055217938934
0.152724770006076
0.150107221071881
0.154419689386174
0.151082676348556
0.152265091667758
0.150729123842558
0.153260944005813
0.1490621495193
0.154472982592519
0.152895758182408
0.167417163971441
0.154776246340189
0.162308688514574
0.153576205624891
0.155130099358206
0.152724209347603
0.159608871867304
0.158633849678678
0.155524644845123
0.151320982806302
0.151399103873428
0.15393788318977
0.152498971945649
0.149175715366634
0.152840108450347
0.14920464691301
0.15006641296314
0.146595802325903
0.150018667184659
0.143613190440723
0.145023493234117
0.142124874721802
0.140379301418297
0.136840618377381
0.14305748767005
0.135778350840403
0.13665806215076
0.132738843094548
0.136026438037947
0.132209842080931
0.13644520100047
0.130776283147412
0.131984768224301
0.133979447662376
0.133283871289422
0.129152839133977
0.128792524533747
0.127088745428429
0.12807380434848
0.13080370893619
0.129426621765633
0.126715621772623
0.132200895419051
0.127224008884029
0.127636442554911
0.127246662284547
0.131520688425265
0.127737923440204
0.132416381778349
0.127665710857656
0.131929952800435
0.132825141124266
0.134172447773338
0.134168590566785
0.133974910385546
0.133636524416462
0.136065725882311
0.138511267793472
0.137513144650208
0.135749474319913
0.137253911754184
0.136798036759904
0.137683000385565
0.14233690076806
0.139062704465038
0.137722028881036
0.141000840552967
0.140038917926601
0.139435895763733
0.137653952934036
0.138860903498035
0.136124188177701
0.138660937449308
0.135422926989925
0.137344093106314
0.134597371745914
0.135101293343291
0.134353740916472
0.137315724790312
0.132158119686331
0.134569472435672
0.133152872992233
0.132592927561908
0.132325089595187
0.132101335311146
0.131754032264605
0.13112398513086
0.130874732509877
0.131354737462046
0.129176906028383
0.130081661410924
0.128369770105901
0.12859855929948
0.127253589828489
0.12964912679106
0.125663877884174
0.129168262812426
0.127053492800488
0.129005400533665
0.125674509469232
0.128343138244061
0.126721698974536
0.127526093337205
0.126108847661361
0.127075199497113
0.12448273365635
0.125007382152122
0.124381386724139
0.125349423289041
0.122123859496273
0.121292434139136
0.120303966783734
0.12164994242023
0.118994604983452
0.120113293942029
0.121057851684849
0.117325021394184
0.116916686399076
0.115876839993569
0.113185024545267
0.115401217787397
0.113559853607752
0.11363643249985
0.112123705120988
0.112752706880768
0.112712053439573
0.115365693835263
0.111546936678044
0.114465371438368
0.113354390203883
0.1130168848081
0.112415288126824
0.110861306597219
0.109551030552906
0.109171129973034
0.10678789864543
0.108128359911335
0.106172530611798
0.105664198455262
0.104829427065588
0.106186623730544
0.102893981002959
0.107340886641439
0.10570837471194
0.105135347004722
0.105886696313989
0.108690390934616
0.111042780329757
0.113982845377869
0.118222563447568
0.124574406830477
0.127724764286451
0.135254869074653
0.139288345475875
0.145271521938655
0.15137428881257
0.158744063826845
0.162836363360988
0.171373649663984
0.177746052121911
0.183385191124293
0.188200252432499
0.197134426030376
0.200930622308867
0.207791278800575
0.211715496845945
0.21795229413808
0.222204031921617
0.227710838531732
0.228736451933006
0.235292826103537
0.233715326564567
0.240850987678252
0.241897846102392
0.244601821616056
0.250421919358874
0.249457259655431
0.253608608684148
0.253879958061095
0.254538370787429
0.256338718656876
0.258217465785634
0.258602002113837
0.259130663044708
0.260316557799177
0.261847228515666
0.263399846629498
0.261446819522211
0.262276849250871
0.262308693520891
0.266236363089536
0.26511984116794
0.269381341145292
0.26918412134032
0.273097118139361
0.272114005439421
0.278744542730503
0.277361908640557
0.282360037784347
0.283129307284527
0.286605953005806
0.291290841562155
0.293314210066576
0.295158168388285
0.302966803614796
0.300292215350798
0.307936333734484
0.31117377861625
0.317950269079197
0.319412554122696
0.328064547705919
0.328365175035349
0.335062958566176
0.336742983414657
0.345289143071724
0.344202849199072
0.346535266659572
0.346837543187545
0.350839461927065
0.348216218063875
0.351434669065993
0.349587720288368
0.347940394281806
0.34610279172434
0.345398973285356
0.342030675058681
0.345999689202596
0.340165492900643
0.344264671784767
0.344531005126156
0.352513087039022
0.353222490985953
0.359027590055807
0.365766593026333
0.373283144508532
0.378637276618009
0.389099782911112
0.393874573854714
0.40273341542294
0.407248751681291
0.413200388898451
0.421789475770644
0.43147005446253
0.43741967831704
0.442700512147461
0.449036558337787
0.45689299437326
0.463840006431734
0.475513988913718
0.480563952127799
0.489757893305628
0.496996431281855
0.503645373569666
0.508305255330131
0.518906302844291
0.524287840067264
0.536537712704505
0.547836519686864
0.544533210901027
0.54872529930816
0.56085385315148
0.565688603305443
0.572924929107625
0.576969178119018
0.588120309794799
0.58371419231596
0.584171474285844
0.583762366916704
0.584954927733775
0.586900249199019
0.582644637287485
0.576591116760709
0.580269082612568
0.572847775429043
0.5712646325581
0.565824004101035
0.560927736356555
0.547113134104377
0.555119835057196
0.549973227718802
0.552779747311578
0.546462120260481
0.547374996791162
0.547168862654866
0.553974279564201
0.550698650126006
0.556922797895425
0.551111171534416
0.563644543979953
0.571064459701535
0.572617284756814
0.573763195059723
0.578273381800374
0.577310344883791
0.582813836005011
0.592565197968078
0.585576307704363
0.589972752591525
0.586155032855811
0.592041359166608
0.586225609171861
0.582235291131676
0.581290927845416
0.578925231379721
0.581396577171595
0.575876596762788
0.559068982943897
0.560435295439209
0.565096733202998
0.557831838673571
0.561715855244221
0.551157116712798
0.553425949830817
0.542584380990324
0.545023389306904
0.527267041152353
0.524079958922458
0.515423693672667
0.51794617500328
0.504675967433275
0.493639643423387
0.490035365453345
0.485399291902197
0.466548695493007
0.456274030791708
0.438968006188119
0.437094888606112
0.414136577624337
0.404323832549107
0.385918554430683
0.369237053167157
0.356254864412846
0.339434839474474
0.318787801175659
0.304163542270587
0.289727346539714
0.275923518906864
0.265388033125476
0.254265789267398
0.248171016923808
0.239519763933417
0.2408866142263
0.235108200986784
0.23604576538967
0.22555647602471
0.237423522955642
0.225464591478168
0.226865432697499
0.223777178803427
0.224804437881505
0.215610690884468
0.215385670392827
0.211830079486457
0.216136736775368
0.20760073721275
0.207024126221514
0.199905841266466
0.193836581688837
0.193599675210764
0.186269012374999
0.180097565659081
0.170423554053845
0.168698376051114
0.158629371997267
0.154267304518529
0.148069275154372
0.138979225351066
0.1315817400465
0.127453699123261
0.123204248638979
0.114549719698342
0.111606017391479
0.105274189546768
0.0988923026127592
0.095548504078253
0.0917433370897187
0.0875784425224064
0.0857685638976569
0.0795003453283881
0.0767050249894988
0.0748593490236658
0.0733462574696513
0.0732609096057487
0.0756977004487615
0.0659402149313062
0.0684055892801868
0.0673073071160105
0.0668793550665872
0.0649017991281846
0.0678314802259508
0.0684103857559468
0.0703038732837899
0.0673850404711863
0.0681101573125922
0.0680258375186407
0.0694255025578846
0.0699279257524219
0.0711741855344757
0.0728579856521879
0.070722660202962
0.0700097300459532
0.0707255662025238
0.0716912997908045
0.0702771374862365
0.0670480940461202
0.0666909875839749
0.0641476197028118
0.0655314078007888
0.0639549924724416
0.0645824797928373
0.0643717211639043
0.0610552205232999
0.0630024625475307
0.0618462692083808
0.0621825396822512
0.0631327285782494
0.0639893960591228
0.0651490690183198
0.0655829896284406
0.0645631209856161
0.0672500259237456
0.0641353882109521
0.0672734211955004
0.0705608787804931
0.0712177982363845
0.0740450646308934
0.0724283105454484
0.0724162055929357
0.0734183074175724
0.0749581360249443
0.0750091626018854
0.0784580265946175
0.0784740780303312
0.0770486458018606
0.0751637374833902
0.0793695836225564
0.0781945720376429
0.080201586995375
0.0778848109717885
0.0799810254744143
0.0822343860645152
0.0808123261018386
0.0837010702553278
0.0850255323655718
0.0871523325091622
0.0875052510385863
0.0899209896337455
0.0926352412841344
0.091658643620517
0.0979933201368113
0.101326900598782
0.105352868659093
0.112119666001068
0.116880774987061
0.11590978529676
0.11446698117513
0.116292838535477
0.116784166197472
0.113142881586365
0.11750483123147
0.115019091994999
0.115986089227086
0.111247384799993
0.112932308874438
0.105532717103414
0.106319716074336
0.101956585938512
0.100130146570959
0.0990087371829837
0.101874848041198
0.0952209859880899
0.0964608464447785
0.0999985053104879
0.0981593625040386
0.0988982377265465
0.101998235818562
0.100185907264485
0.0993900584848561
0.0940800382581703
0.0972757978033094
0.0921847537199224
0.0957684540868697
0.0911412989191389
0.0907812058305017
0.0851575880085617
0.0897398814281615
0.0876035564151259
0.0797924541166386
0.0859486227465405
0.0839112443225912
0.0809260432185452
0.0826111647753092
0.0763769712699412
0.0823287187231543
0.0776449740705241
0.0836691900526553
0.0803237797822137
0.0746434694876971
0.0722212714003767
0.0686056158836805
0.0676221077616665
0.0753467903111618
0.0715992011271188
0.0744468274892872
0.0709869704319939
0.0714151485852446
0.0674156486818452
0.0732122671192025
0.0637559321585855
0.07419621937173
0.0666955932935394
0.0731518901938718
0.0644505978044928
0.0615960143391442
0.0630285323873103
0.0619928059837522
0.0581763069842905
0.0624630795480907
0.0666402516633239
0.0644418452089585
0.0629996529222594
0.0712801421699707
0.0607719545795891
0.0669048202154386
0.0602695048626863
0.0659811682171052
0.0570097560806358
0.0601585624846715
0.0594281090898621
0.0628472566340406
0.0644823567026128
0.0614527509232426
0.0518292072384587
0.061885949887317
0.0654101908484294
0.0659282155011005
0.0600688706950207
0.0679234859923276
0.0617368167257094
0.064249733432346
0.0679376783061321
0.0683249665510234
0.0749437026418088
0.0771984814567352
0.0622342181518898
0.0772230044300996
0.0713026912696312
0.076409503572073
0.0660456635715581
0.0835474788195985
0.0739467642756544
0.0769163339881072
0.076225887953088
0.0885053392659296
0.0694739137332007
0.087033403981693
0.082681560149703
0.0866172938081846
0.086529297150643
0.090104959954404
0.0904892622930148
0.0968840555888625
0.10154955232685
0.110334570861418
0.104578492534963
0.116112691467405
0.111538004662012
0.1292921580121
0.12041520881444
0.123036307219709
0.130272322979102
0.151282188900585
0.129709292570754
0.142631168679935
0.14042152561344
0.130461341538508
0.128200493940345
0.13804186456423
0.128088601356661
0.132540391321074
0.134528948037551
0.141149931951936
0.121732390697111
0.12293129320715
0.126894561444146
0.12745631561773
0.113807586504915
0.129473940399006
0.130314189298555
0.118276679681001
0.105707968925367
0.118627707110277
0.10577382306768
0.121637137464638
0.109661060940468
0.108760616305112
0.0993890392447111
0.0979805242122923
0.10715269425341
0.118068956712441
0.0994118906022841
0.110808515673698
0.0882110800639795
0.10589169812362
0.103801325940482
0.104610165205853
0.0944806584965496
0.087928434339078
0.100557604930435
0.105792910379436
0.0803395303174457
0.110843620955361
0.110774591846569
0.103819596454247
0.0942716434182652
0.104274276925039
0.088104261531712
0.105199394351047
0.10286502581256
0.110508238062365
0.100588121544019
0.0984641497208778
0.108649205204218
0.108541682083304
0.0934280459666274
0.113214348058704
0.117737016439845
0.10540416905552
0.0990624994279869
0.106185809013741
0.107505469601112
0.122921160106237
0.106418620194956
0.134701943636276
0.115791682251691
0.106607613846934
0.0916226537123572
0.109710842124337
0.0916518780802082
0.116191039306332
0.0977404759869871
0.121592646636737
0.0946060034991459
0.151731401125994
0.110026337479323
0.125174301892681
0.119344295805444
0.127600956541819
0.123671035122246
0.133958414752763
0.129354885734472
0.135966611289162
0.139209867643379
0.167389807369603
0.136976334954159
0.1731962058935
0.151966276181539
0.158968712845279
0.136997956807406
0.136629824007956
0.159792977627727
0.186762029225562
0.136117921868924
0.171578096748394
0.181274799106036
0.166185510132015
0.165092077221018
0.1768033919517
0.150258901394794
0.15691185157632
0.169144420404931
0.162784252551995
0.100540551562723
0.133553551114788
0.113444897444238
0.157510052029033
0.142878857242718
0.11713001389273
0.132256395361815
0.168418097608485
0.110134769942525
0.164134504537927
0.0959573248761851
0.165995839470534
0.13412893919801
0.145240005461791
0.110406938149494
0.123964353814795
0.0589974824064356
0.238726451224839
0.148456211316453
0.155587432809997
0.134410027714293
0.163116599343413
0.0864890760605534
0.181723825165919
0.0961560794630833
0.116955197643142
0.228590070894316
0.246659663056509
0.193331562324244
0.0706446562614434
0.0966065416174719
0.161555436083415
0.0805621569986726
0.175688953717175
0.0615940969980303
0.119618265689727
0.164222816998948
0.278067698567778
0.111324633135461
0.323095898542648
0.171192136906499
0.249919792295722
0.061644094395205
0.209880072669298
0.253115444720399
0.115041214567037
0.168732042006498
