3596
4000.36533379555
650.420452594757
1
2
2
0.0470933327434282
0.0425350251483976
0.0468151776339919
0.0419967138789436
0.0527559842659911
0.0432501318220301
0.0537382963579485
0.0462512362767063
0.0452032372251601
0.0494633549571457
0.0538578606195086
0.0464245014998418
0.051200804907009
0.048571885380787
0.0539131432787806
0.0439684336344111
0.0482026629476044
0.0404271747080618
0.0457500424283514
0.0444944436877397
0.0502616369758766
0.0403359145970942
0.0479853038142351
0.0412650750383614
0.0467502968447867
0.0513561269073171
0.047596331827237
0.0419760448297366
0.0554552625656535
0.0438719224185471
0.0535416921411653
0.0349863048387942
0.048134635552421
0.0393374253809653
0.0409737577300189
0.0508551524359003
0.054516426594655
0.0448499122296152
0.0493625286796199
0.0447619746826291
0.0582093499019996
0.0403738077467344
0.0430738535046006
0.0495606049345937
0.048020556844619
0.041535231144235
0.0541068162210853
0.0480449657761923
0.052712584494316
0.0482707405232818
0.0538536707868003
0.0434811335175497
0.0455041444919679
0.0443521721175407
0.0438007681703335
0.0437295527513767
0.0441133703866107
0.0414440218688656
0.0500099986972144
0.0454373162561104
0.0406326084127729
0.0449206671136138
0.0445266888259003
0.0434044566488516
0.0431380715618681
0.0418768121912295
0.0500673285246136
0.0294245686907005
0.0441331262325285
0.0412866276706244
0.0467139471901535
0.0370570619160204
0.0476057274115188
0.0406143310237289
0.0473772396556179
0.0403328868479203
0.0486116950223422
0.0423732472625708
0.0435289709529486
0.0457321856164759
0.0545466678954708
0.0388180377599626
0.0513695148412373
0.033878867911443
0.0416448728129961
0.0417328859906602
0.0479943266337655
0.0340780863639539
0.0491353357241762
0.0385807869929616
0.0455791503706855
0.0392685837171975
0.0444584001420252
0.0390072784938866
0.0428550467909585
0.028534936265411
0.0415846185892288
0.0370707340689214
0.0450273424046999
0.0451014208148733
0.0438943020510903
0.0342068754424465
0.0430475890639049
0.0361070800144533
0.05522059082711
0.0451129627314798
0.0330391290202923
0.0583414809024124
0.0420364304664053
0.0396882594867184
0.0481893349514805
0.037488712850615
0.0451166660361715
0.03348452468175
0.0339768762150225
0.0285355797189225
0.0545814122126366
0.0381676456585848
0.0464129553923899
0.0310441923716765
0.0433043225041721
0.029822428423268
0.0519243386116638
0.0398204594322288
0.0404204968310358
0.0360291084553113
0.0438523651397158
0.040110179339469
0.0534677225196971
0.0379994114813329
0.0390989388373503
0.0247292765887789
0.0399408463000494
0.0301389529412564
0.045419120848182
0.0379035924053136
0.0403268861499002
0.0314990564862755
0.0344931044471267
0.0402172096758186
0.0464179358958955
0.0324047970919096
0.0372353002879783
0.0260582471080174
0.044371154057621
0.0389462502466425
0.0405928627033588
0.0279328391844078
0.0502665124378015
0.035453087559168
0.0381603162796554
0.0252904843436045
0.0440304893910563
0.0378889331201429
0.028824407591163
0.0268672065690162
0.0733046938529289
0.0252387497163726
0.0469309638898984
0.0437078021121544
0.034719401112615
0.0433191646753028
0.0402450368284653
0.0345122336836089
0.0281064875189318
0.0311564327246003
0.0382184348636542
0.0435219275318385
0.0354395037903271
0.0356901864534296
0.0491881807375653
0.0353397261978026
0.0324569067054489
0.0379864176863601
0.050621713235047
0.0247153032762354
0.0478728381548653
0.0380732156376738
0.037170761709108
0.0341544404713969
0.0501045224226495
0.0389436884413964
0.0370879671359197
0.0338688964739677
0.03759588811548
0.032641072836897
0.0465534571349803
0.0366084521233034
0.0347503168663796
0.0251542991208081
0.0330506112316231
0.0426278955706174
0.0413617007866874
0.0331368254205765
0.0326347635368606
0.0246694534892574
0.0362296784031155
0.0568089138910649
0.0436669723274594
0.0326735282061694
0.0388895385765707
0.0295168957134845
0.0357446212124636
0.028090213514028
0.0362119191583315
0.0298442659535487
0.0436509603206037
0.0493558928815208
0.0335459895283075
0.04359517202983
0.0316637377578611
0.0372351262448842
0.0358963742400305
0.0546130304383008
0.0424460842217248
0.0353098164008642
0.027081049370703
0.0332351628976579
0.0442766315304359
0.0366263645405154
0.0430830821139093
0.0378742383072287
0.038735887070345
0.0447251467011572
0.0409392323569345
0.0304303087345874
0.0379730006933421
0.0362767263268858
0.0374627262196909
0.0391572055835812
0.0397144974517239
0.0337286365883434
0.0384827262176605
0.0323099832334472
0.0377728776415257
0.0334580747829115
0.0493721732022632
0.0373040446412643
0.0423947165071981
0.0329211425530967
0.0388411919306907
0.0447831287641159
0.0427440221932572
0.0368710229230391
0.0359893920113901
0.0383228885631603
0.0397723804786878
0.0502612447614672
0.0341923461382381
0.0406117315873573
0.0353743164360132
0.0474810745022796
0.036388154620092
0.0365212209158123
0.0322503611540777
0.0421986953086031
0.0271056787409581
0.0410073303524978
0.0359965144761137
0.0386971551120316
0.0390257636112094
0.0456694082149824
0.0384660533305041
0.0291331310803663
0.0326761518820099
0.047464790549431
0.040709552020609
0.0353655543562915
0.0501614780517652
0.047836719568018
0.0346473552575958
0.0431663935732231
0.0350120698110187
0.0479112276073468
0.0552138364432292
0.0379054468625092
0.0359347295074084
0.0413897558507703
0.0440666439042692
0.0349601498296467
0.0432284922685152
0.0308462459399596
0.0434278016404687
0.0428550185276846
0.045159515887772
0.0478979179645487
0.0291313549498123
0.0513472294833346
0.0395411103034209
0.0429788948055601
0.0378341637653968
0.0485452457720279
0.0397167768944511
0.0471588413350036
0.0419291234703986
0.0436992272856477
0.0416468871628601
0.0457256573866443
0.0496599098071469
0.0420349390993985
0.0434958202905632
0.0419911133277922
0.0408741348179908
0.037661801784556
0.0493467710354631
0.0397860815177492
0.0447389284316682
0.0487104870077834
0.0504143239526612
0.0426494362693081
0.042621869850452
0.0481102599539234
0.0492962260868718
0.036993788646493
0.0458916134425416
0.044844614517022
0.0541077548147974
0.0446619480055998
0.048630214473263
0.0553242695705483
0.0560734461421606
0.0515912016027033
0.0557629207248617
0.046510456050256
0.0518433993159257
0.0458809308776327
0.0502942686693654
0.0525896086797646
0.0504077525439848
0.057231070713016
0.0623968285848493
0.0534081418452413
0.0522493781030364
0.052940404575973
0.0706246513859444
0.0486623151718148
0.0589283531789183
0.0574503050989355
0.050170742865649
0.0548503748729962
0.0589711394356636
0.0655064149012879
0.05710889281495
0.0646916833081519
0.0663285848008491
0.0650848639135861
0.0559896558991443
0.0666978517962139
0.0788559812318388
0.0820087279960905
0.0609309680896577
0.0664135126554928
0.0608723997383344
0.0837079784000342
0.0725798378652162
0.0675804365340422
0.0720525254590692
0.0706987585338582
0.0857172588500898
0.0750918689675374
0.0817106772310781
0.0758895411736767
0.0855468429173073
0.0789973758595282
0.0892348366121209
0.0827583481375586
0.0851234581337766
0.0875488961189211
0.0989059046234864
0.0996549148859085
0.0963706156196543
0.0882679517264599
0.0938209106712391
0.0927929088575236
0.121598126311757
0.112610250234616
0.11940616590467
0.113451827789078
0.113107181736008
0.114110108261282
0.108421576135901
0.115858318341128
0.116171340557425
0.118961325970276
0.12528401065862
0.126508597489228
0.122723046391208
0.120421011566415
0.132608701104986
0.136132938512186
0.126957271606293
0.143288578792588
0.138793872664698
0.156555823586711
0.143705271345568
0.15405029859722
0.146455152012419
0.16501452601675
0.149809583096452
0.151502937134816
0.151225610665645
0.162226679899194
0.172873228784724
0.170058839917092
0.171192050494224
0.172886203145798
0.191964466147216
0.18226454644274
0.200061025285818
0.174745949274412
0.18361646733911
0.191488596058177
0.188245467531702
0.202258170698657
0.194880405093473
0.202322442448384
0.195058217044537
0.218783352149011
0.209039839133482
0.213146451418029
0.21499516819431
0.217584361942463
0.217879893730713
0.219604972041089
0.22832141647048
0.232813127762396
0.229609847918748
0.248292976931435
0.237159447610423
0.247625468335369
0.244757777229733
0.255004203671302
0.265475139632791
0.253706969695054
0.265439539152113
0.275816171514022
0.265326718701945
0.275988581916144
0.268667494401046
0.289688527862559
0.297376753998088
0.286709883864684
0.281671180706667
0.284446795352826
0.293039157857848
0.296364810730371
0.295563825263388
0.308194548757511
0.312033567166634
0.325368318422585
0.315647598330632
0.309552806956219
0.32084888492898
0.341117498718187
0.359202484329937
0.343916812610932
0.341909890137237
0.345604826094145
0.337141893133707
0.367750660039515
0.343510946375047
0.364341729950028
0.365117431710535
0.388043308793166
0.390140105096246
0.37977694314956
0.371204965559136
0.406530001180357
0.396853976723671
0.390394341578208
0.408697131677777
0.411490072807652
0.407557797705833
0.418376897043848
0.414219467833876
0.426933636617087
0.437934699168029
0.443110944689306
0.426343833084997
0.448044507203399
0.447739356748135
0.455842578308699
0.472876514142557
0.484871224320126
0.467500513020848
0.47204617129202
0.44123247150648
0.476523149547102
0.479297380968508
0.479663288117914
0.478826578985825
0.526864907245299
0.497409685267096
0.531644932449645
0.517444886184833
0.513447978094572
0.522252595806267
0.56699104337148
0.522515397899286
0.541936490334323
0.547808573749446
0.54465503594001
0.557317775072359
0.589171760699646
0.565813126101448
0.593521918006886
0.577436442090175
0.592888039664202
0.57489264605399
0.585628182496992
0.60714900061306
0.635632818233733
0.56041180865974
0.641426313758218
0.647514173834911
0.642749494222477
0.604017225467344
0.642074664948085
0.629079166271312
0.643447072039713
0.636469827839801
0.655926170353491
0.650719328154842
0.668313192806572
0.643294520318217
0.687984851865157
0.650994979829848
0.700297485642222
0.677031232124113
0.688890140324707
0.684779025359783
0.726071353323801
0.694365350825896
0.764614203041108
0.712383696904025
0.740763118774898
0.710492886593627
0.699634927437626
0.740866402212635
0.764203041059177
0.71974691461121
0.750465061677679
0.767195935292438
0.825936631229754
0.749536187616787
0.806036724319772
0.750474874635173
0.834740444173343
0.772904986277186
0.849965144443569
0.768816739053387
0.832067845199999
0.80998555832088
0.857224696859881
0.808941115334859
0.840943461802738
0.840503738878196
0.894098464651348
0.819503671946421
0.925041203344919
0.861216965760988
0.897804935837343
0.811103664355397
0.886587077145693
0.825553500379099
0.838226225399377
0.896134513426463
0.895221172152779
0.859437510517946
0.977391611461005
0.960119861359749
0.942040333513024
0.898003241755976
1.03371409119732
0.922014704676927
0.980491754089177
0.931148297485908
1.03657050058899
0.947374620091259
1.00492343159384
0.909638376752606
0.968273528922363
0.88127602140454
1.04827704457409
0.976229343722099
1.12220270174601
0.948512770133664
1.02312749088939
0.992755638317069
1.02409147923481
1.04229753029268
1.07637817071164
0.991441210956073
1.15888690289965
1.06100218818785
1.14812460013159
1.0514980737884
1.07931256837814
1.05669252927123
1.09464131278714
1.05842547662998
1.13970412535992
1.05746932426091
1.10545909187688
1.07411828475628
1.19484762985616
1.01957680153763
1.26365833968554
1.07995294453472
1.16304079313457
1.08944929978799
1.12111480139442
1.17328560976068
1.19853408078164
1.16371234734566
1.3327453248557
1.11185701907071
1.33676086470047
1.10945318046274
1.28636518698669
1.14614889407735
1.22727552178845
1.16080751655939
1.21525056757127
1.18332791543795
1.21062350593208
1.14336253463231
1.34756336393764
1.23352956315663
1.32004683200138
1.16377452002754
1.31845224943688
1.20802464876241
1.18474067736167
1.30751180380879
1.33528356596441
1.36695471441867
1.27304913980991
1.22959012303788
1.27214013654347
1.11927675843885
1.35788656677879
1.27948761273047
1.22983429960757
1.14560475258833
1.50676109908317
1.18400677906157
1.24026283108689
1.20576798767588
1.36925445854244
1.30411698752546
1.58847131402977
1.39478982453779
1.53276640868153
1.29651497328027
1.53191726975832
1.32649126022578
1.44722121380648
1.29000424796793
1.37262319053214
1.26610677955649
1.35552059570165
1.29436758334381
1.41019238139429
1.41280210431936
1.50269473045561
1.27923705457005
1.37259578828396
1.24404949980139
1.4337665261206
1.35291913183802
1.41899245440582
1.31866789246181
1.48063036075861
1.38733671536436
1.56259779678584
1.22417615405398
1.51855189422585
1.3460236362601
1.56498524420236
1.42836431216143
1.56381263269643
1.46726286509708
1.53329663271679
1.38679150291281
1.41321860098068
1.33783193718338
1.58772338841776
1.36674114970718
1.56403450544492
1.41049889295558
1.58299412044027
1.54138942909137
1.67720274805036
1.2966390719397
1.63981000326196
1.31822364771039
1.53550828087784
1.49850375332032
1.6155743492318
1.35876036974734
1.66139788591694
1.37554647212246
1.57205571887036
1.38700375741221
1.60297460429436
1.41478507274993
1.46181135092956
1.37225212628166
1.52660758924536
1.38249493482043
1.39763986016676
1.35756713788695
1.64545155621078
1.56510505848776
1.41523873121381
1.42077968199948
1.57310698682979
1.52650664304666
1.6316309424737
1.47367189531896
1.54467238712868
1.34756011048705
1.52911234745034
1.44840638604107
1.75564731171168
1.45233901143555
1.7168766503203
1.59778381217678
1.68968146006445
1.41277788841752
1.4767556674739
1.50023877272021
1.61783869259982
1.34640333998112
1.58672925663327
1.46637842705293
1.58791148526062
1.6063726624655
1.40349065475436
1.46192961708336
1.73883485282812
1.42927061532059
1.52231918272577
1.35331379671225
1.55607817069959
1.48573658398169
1.61161049903991
1.42217102540567
1.63455635419083
1.41115199985067
1.83555694009976
1.51758139021319
1.48597786478813
1.3999474913632
1.46886339391865
1.36265722675505
1.66628622992734
1.38635892375267
1.59968097760218
1.49467675112734
1.69117573173848
1.41466184257196
1.49023355971371
1.47457800081459
1.6463207192131
1.44080658442526
1.54106445992772
1.48271204052146
1.57511521926174
1.37433297558169
1.49053980773596
1.37888032941027
1.328732366689
1.45926740737658
1.5961060172425
1.44371836179987
1.48123760796463
1.39719403633676
1.51622485129012
1.54469097918399
1.42976500076569
1.50734638501533
1.52789225070707
1.45192091751583
1.58109942978566
1.39582685602978
1.5468110780744
1.44546248474874
1.66366365504238
1.39058812337287
1.52833223643781
1.41317102271925
1.43050316648773
1.4080331089952
1.47711479948486
1.30291609382195
1.58997397990955
1.43815094825318
1.46406721889264
1.28736731890197
1.50360457142282
1.38733250502608
1.46916652100348
1.30170703925075
1.50185264761675
1.38960956118889
1.58583249445341
1.31799115725189
1.39812788957541
1.35033215538832
1.43536923397459
1.2897347391357
1.38392596670147
1.33363300387969
1.52436802260652
1.34352187431715
1.3761505189016
1.28427625195638
1.44177412107918
1.41156149786868
1.4300770363893
1.44469965075838
1.399682002445
1.31802105291913
1.38297907342946
1.27135157733113
1.4193481882899
1.30860992698142
1.42286899502186
1.33705057056858
1.52922283907826
1.37577071781769
1.32479071767698
1.27938976837469
1.40103747633663
1.20904269438061
1.27853199237915
1.24627263404718
1.26903778007332
1.29034513807156
1.35490467521544
1.22386297756848
1.28853396894982
1.30534093245623
1.27754750803325
1.23271943416394
1.33795922413562
1.22136945449634
1.4117861216546
1.31012036827459
1.36705152574924
1.18651474157958
1.23699054907573
1.22439589185838
1.29105363998212
1.20427252758169
1.31882674934249
1.18125987549873
1.25504391705936
1.16813149042872
1.27209629224923
1.10839681613631
1.24987250023907
1.1425229224956
1.27852765191529
1.20830384863387
1.23456022394097
1.17564221654859
1.20548635656396
1.15068682541249
1.19779339128638
1.11220260151735
1.19352370991718
1.10958533322922
1.18065255083955
1.10013471888262
1.12793011753934
1.0906663092364
1.18958079691453
1.11124014226498
1.19317070780169
1.12452385555463
1.13997854856222
1.12658507676777
1.19669430396372
1.06630658902713
1.16486126701915
1.06364376404756
1.10815515761359
1.05741438683478
1.08797497592109
1.04747797163224
1.08219053202533
1.0411717700701
1.10173650497834
1.0393229442001
1.05577977789931
1.01532114701656
1.01739830285475
0.987335040213589
1.07788081386285
1.03601942318715
1.06700892632037
0.982672474511403
0.996511478138413
0.952608037216154
0.977024170090283
0.994745853098415
1.0041415053432
0.958581856697317
1.02293651659327
1.00239381675396
0.995112272816406
0.942829599634703
0.993396775109069
0.962045433249412
0.971236871908723
0.927213464914103
0.959610604785698
0.957109845905339
0.959424833664056
0.932699612228351
0.928253278214875
0.924802160242088
0.943732813811539
0.886607515349966
0.927837216976352
0.901082649461573
0.932600850301086
0.89089955732873
0.897728204130851
0.865043680354267
0.884554538183719
0.857733019385748
0.864852202050574
0.852739986735626
0.874938926496467
0.836238288234704
0.867472785520598
0.828286976318929
0.864530338918183
0.838427458820479
0.858120226878537
0.814630265419495
0.841453462482762
0.79431587654111
0.834536387335272
0.856519317178003
0.824184428497517
0.780157904515327
0.826896479644702
0.815296512348496
0.808758073149089
0.776534625520375
0.799217754225234
0.780856375866327
0.77563084359916
0.773686434852999
0.778225437569988
0.742130808043845
0.777051517439786
0.77232198699792
0.752477708900556
0.725908118561779
0.73436003759639
0.731482853280253
0.74704643773128
0.723565545126522
0.742360065352623
0.732591838417375
0.722920404789159
0.703525671473362
0.736769596765429
0.69918861220443
0.696336801984397
0.70774341698806
0.715230193598296
0.699920846533843
0.711093865286879
0.684357111066904
0.707790920940012
0.674247555132586
0.704481517288199
0.687490223579987
0.68653190210282
0.649785453027689
0.688988948212997
0.653156685446603
0.685755606757292
0.653402884234694
0.670347470630518
0.655007307033549
0.666937973490506
0.64760231419668
0.654486534770881
0.625375682411732
0.653394178552206
0.620773170738117
0.632281167952457
0.620566387141156
0.63083520639635
0.623146213568822
0.642135594850464
0.611278162099715
0.6143861853169
0.607356212609913
0.599294528016382
0.597461585504651
0.606545849293233
0.585082270772385
0.613058633143802
0.576574896796052
0.602757054889751
0.582468115630797
0.581041073177861
0.573533965325077
0.578291781013901
0.565451154097679
0.570556301107771
0.573527461801657
0.574459466329949
0.564669636472256
0.558243841564904
0.559601293669892
0.562115740952682
0.542940017935173
0.551352804645204
0.551521346439824
0.54873050542973
0.535723547973025
0.539779793749695
0.52285507382676
0.537943925105738
0.533520150756652
0.540001519477989
0.526881025492328
0.527670847056456
0.517708446160197
0.520161264187108
0.517001758870988
0.511386285642886
0.501323166966693
0.504921635136766
0.499002307496887
0.502509816815626
0.488903259345352
0.496685453455395
0.493903791931611
0.496474110213294
0.494161274793496
0.495548376326949
0.474978960129759
0.498974989384261
0.472440926782659
0.486728697864986
0.472690951562528
0.480627103764868
0.470610499959183
0.475128054252905
0.46277961253999
0.463167912831642
0.468078755635181
0.469596623399427
0.463577243733135
0.474621260745677
0.450529913108076
0.466315220013328
0.459400223620536
0.469191340857006
0.45433581587123
0.448529038439674
0.453125129545092
0.449108354010582
0.450495554145394
0.458010557734294
0.448099299206127
0.44906665927858
0.44175239454202
0.451681101953425
0.443559320190215
0.448479111005494
0.446521381879939
0.448237517984546
0.438579027135343
0.462924214048985
0.454282549287533
0.451746521335656
0.442087304981999
0.458455123729989
0.442106506970133
0.447629772246435
0.452037635613797
0.464655494754275
0.45324527546468
0.467483150761294
0.457728498667399
0.474673650047997
0.445516214923055
0.474417418990862
0.458771816252559
0.46734028900584
0.468886906112469
0.473521628087515
0.47445348484389
0.473529150306047
0.479136029933304
0.484312250103661
0.470225876793323
0.49278860587123
0.478527566717551
0.490653241488104
0.470362001621172
0.50048440411754
0.481867652100347
0.508612247154877
0.494183646380823
0.497772408841622
0.498778042783718
0.51290787280905
0.501002038453966
0.520866064342032
0.51347662645321
0.520644618473226
0.520572666276626
0.531851003520181
0.527566033939336
0.529947083593336
0.529234101012376
0.548806500874801
0.526645563493343
0.546287157345619
0.547024147446185
0.556834032199348
0.554726575520495
0.573238489803596
0.559561956291023
0.573357451641134
0.560117832018683
0.575370550259611
0.566626646815026
0.584865994816173
0.572819635800345
0.590693953146336
0.576481741461386
0.591801933376345
0.576651461035597
0.592957362231585
0.601785172626063
0.597970452728884
0.581004849446952
0.614562752780447
0.595778127859982
0.60621220121321
0.589486189035271
0.594778678188961
0.583827290469112
0.621595208852225
0.592071071106692
0.596347637073279
0.588150753849845
0.59732283167671
0.586398124737634
0.615117162524507
0.584493467558313
0.578220821409479
0.583328123228014
0.593508941638426
0.580704407035466
0.597117549884014
0.592298115663907
0.596510018308661
0.578593062054534
0.594490418932353
0.59067974663388
0.600003034467503
0.580776694930235
0.589928178670713
0.600504492393912
0.596461192018585
0.600602208385397
0.598276491282466
0.584264760320904
0.592901221061427
0.591213598637953
0.592571462529974
0.577280736637077
0.604426416566797
0.591439193368058
0.603645088515737
0.582868677163142
0.600920738838561
0.585372980689809
0.598271988677915
0.600998568821701
0.598343278888633
0.57715685809035
0.595557624359487
0.57613277277608
0.57997553011318
0.587142161439242
0.595139540319017
0.583690997978404
0.591777742338963
0.579393145600306
0.591664208901048
0.579434084037173
0.584877222783999
0.556619398532799
0.584183351781117
0.574789062598273
0.584110823669036
0.56588411658751
0.567322248621187
0.547465448514054
0.574687628952018
0.552092013353963
0.547195489269853
0.549335235089766
0.540246400689307
0.531694435806249
0.543106278813429
0.521683331081128
0.534917617809004
0.514618307860078
0.531090737361517
0.511123328755996
0.52002648050018
0.515762773334445
0.510755052598431
0.50453913469871
0.497202860854311
0.493861496758836
0.488338415040724
0.484807304278746
0.483767035066397
0.481148084650983
0.481590608003192
0.458704123032564
0.464974707542255
0.462341385896586
0.472234622048756
0.454197588890665
0.458196684136996
0.450421334849935
0.463657687906616
0.449659204889327
0.451036006022291
0.43966876430504
0.448498753262858
0.434765793506599
0.444708543822455
0.435387789517955
0.433473259473158
0.425944898671567
0.431903624888118
0.427256732730916
0.427416499331419
0.416235966226526
0.422404066976563
0.410584344284345
0.417221611956459
0.413771070083955
0.412572977665852
0.410575412767535
0.402448092016599
0.404512780472661
0.41371960285426
0.400994981475891
0.404597977730834
0.400994198229735
0.397709968277078
0.388568896716518
0.402803156984393
0.400804572709339
0.400653571799063
0.384926339425169
0.39581794493401
0.387173358246715
0.394298721935013
0.379193977089593
0.384683417607566
0.376645194991018
0.382934196634387
0.381893556443471
0.38025176816307
0.373039288296081
0.376876285563506
0.37038646407095
0.378268913689604
0.367128938710828
0.377582377890097
0.363290122702673
0.361238552834194
0.360298308537824
0.363151147885079
0.364896239479858
0.364542710186818
0.361606145000326
0.363282539883733
0.354571835567715
0.359540881430841
0.348348005700341
0.357263119792118
0.351789243185271
0.349911432262883
0.350595462302085
0.35456301484237
0.350746146866086
0.343558387643204
0.347592241909888
0.346972895878395
0.344510763966462
0.35376097332358
0.340477383631783
0.346269098899072
0.33975210846994
0.340114132216823
0.334537391551617
0.339743862597846
0.338448802014133
0.336689198252281
0.335164014195166
0.34249072569108
0.3311854714071
0.340146709848698
0.33436787852516
0.335193097593794
0.331678799236417
0.338099862954296
0.32674717612736
0.336812094569042
0.328583587396287
0.328071464810702
0.330505221192579
0.330784954382596
0.33400553166445
0.335401812898463
0.324594593552917
0.331095082628497
0.331503409532454
0.328176447877827
0.32361148216482
0.327068385369666
0.318541929021958
0.321913105242495
0.32067548165477
0.319196167632089
0.318176866105418
0.32545826060376
0.316392057127776
0.319038599636029
0.317396554182011
0.325902298975008
0.315294492936531
0.320531850792653
0.31407337900696
0.317088375569595
0.317821762430844
0.313250015895076
0.318114467861404
0.319392341452515
0.3172715091294
0.314499077286477
0.311482092093962
0.317221009563499
0.31357337261813
0.313315083381063
0.307393166848038
0.31118456805672
0.311966155825508
0.30965180162157
0.310421037565135
0.309548614110775
0.30820925958668
0.304038693523188
0.297415932473875
0.308056287929088
0.304237946429178
0.307841532481565
0.309359866845184
0.308693632596974
0.302042391559065
0.305527726016458
0.297343729467337
0.309403591513974
0.293832409624496
0.299885420989019
0.299750664249523
0.29698678743429
0.299478081869599
0.302183475153098
0.291500717525632
0.29691157093428
0.298511221316277
0.293428001634562
0.28870401002569
0.293104007602703
0.295470932041575
0.294445474831468
0.290817727825572
0.296509851532837
0.285314849532455
0.296371601823235
0.289190294892379
0.284101262530913
0.287374629156094
0.289855349768656
0.284159657843637
0.288925890601296
0.27809596591648
0.28335146156785
0.278374233626047
0.280210766871231
0.279789744472119
0.281342005844191
0.276860261261261
0.28409270340747
0.273032088616742
0.2741499104006
0.276839872800215
0.278061171857736
0.272382864544789
0.274842282925
0.267412760626579
0.278926447207856
0.267128710137234
0.273533596857851
0.268516210999855
0.268657854605771
0.266260795320789
0.269890981372372
0.268935974028273
0.269618065306057
0.265675761868324
0.265484084312539
0.260031351380986
0.262522102983812
0.258407708846886
0.26342097584777
0.254300750607965
0.262079509831904
0.253803268907864
0.254720389997494
0.258228281126056
0.254851471020478
0.252837775981703
0.254154443094773
0.247855252732654
0.25496360491049
0.25299066646893
0.249889556726301
0.247210472568411
0.24734973015601
0.249834949627072
0.249077245905806
0.242301717397097
0.243589073299702
0.245123812368447
0.242812091484665
0.238824899076669
0.242746172804761
0.238565212588022
0.240531229620814
0.233912944430484
0.234568580753719
0.233974446823401
0.244145977537711
0.232982134586423
0.230339919824256
0.234396614168821
0.230890974983671
0.230801588094738
0.23321405084056
0.222107682540132
0.226778342435965
0.22565518299686
0.226106091956422
0.225223144352708
0.229263947251417
0.218220452553178
0.222400948504023
0.223959194854888
0.227633404970971
0.217664159068681
0.227909772357508
0.218015013969446
0.225399797288952
0.214163006991003
0.220798186713901
0.21931115492029
0.218544541687782
0.213003155348065
0.213129594339701
0.211552059954322
0.211130473927871
0.20922704336695
0.211308462495508
0.21429927109666
0.210609737761704
0.207833135658629
0.209223198129711
0.20731255364475
0.213983986097694
0.208570200681755
0.208054114498288
0.204393179967299
0.208202068667657
0.205284045634956
0.205119989517494
0.198650733791615
0.205121161800708
0.202438549049321
0.205341189778073
0.202224632133159
0.197940671886417
0.20164464509991
0.200154989595745
0.195959390985742
0.199305773487961
0.195669303258468
0.197674240138576
0.195295021918665
0.201328813148835
0.198082824141806
0.196861957657445
0.19322239582998
0.198757714103596
0.195600468179798
0.194812814721858
0.192926774728836
0.190748875024673
0.189301597661943
0.189726633320051
0.188776730671159
0.196266838767227
0.187535852040883
0.189175378649978
0.187633227811736
0.183603176550824
0.188479311769984
0.189407477665322
0.187472651486315
0.189195701555072
0.18306732012198
0.187781106921053
0.186198150699722
0.188919003834029
0.185264792843086
0.18571333318501
0.180592941604842
0.18445025682411
0.183506577538021
0.184505264694331
0.182134635809733
0.186769711556924
0.180536661969386
0.182495896766251
0.180945139163152
0.180663966353479
0.182322043855515
0.183219539529494
0.178072199921765
0.176983247236797
0.175700023724494
0.179221655350847
0.176412602628811
0.179226706943275
0.176105787356377
0.176531684717605
0.177348367837814
0.177068599567211
0.172483182357185
0.178237000886476
0.172273820994888
0.175668956075045
0.171233716907007
0.172653859034548
0.17358435126574
0.173132330138004
0.169866799930239
0.173562858372331
0.170304133952952
0.171288239230931
0.169212205713394
0.172756194661407
0.170098452866922
0.170183288119007
0.167738142688506
0.17305797353217
0.163043961851657
0.17250958002676
0.168140462918602
0.167212460539354
0.166885208557178
0.168849622958696
0.165699867171917
0.169110989577821
0.164741594225133
0.163233206201791
0.162636641303916
0.165301849253186
0.162589608216861
0.170276472584707
0.162737373406826
0.16608939992632
0.162090936320437
0.166388196278326
0.163154312462009
0.160620558666035
0.158528928882749
0.164156216076978
0.161846199723701
0.160552799176283
0.163200185478012
0.158641978798486
0.159507245418513
0.159705550622122
0.156511094160366
0.158169962627778
0.154363355225586
0.160439521092694
0.15553047316297
0.154426288546555
0.156187980850546
0.158006586790444
0.15558416675435
0.155225099183416
0.148774675276927
0.156271842660506
0.148331022959399
0.150104451645528
0.149080269416674
0.147097717324367
0.147149221406818
0.14967215388579
0.147370792894601
0.147288421219475
0.143132542015695
0.147461149501393
0.144114886947801
0.149373779884986
0.146075898483581
0.142557994747394
0.142487656117683
0.144826864137759
0.140508516700149
0.143044184581824
0.13868786217097
0.144063962703968
0.13991274630115
0.139203634923608
0.138735955911809
0.141366279273531
0.136685742379406
0.139775723359251
0.137156049199251
0.139334828712382
0.135149213618446
0.137467148412805
0.134488581328706
0.136824725114844
0.133336895476632
0.132667799251719
0.13171193793059
0.131721758186195
0.135044630348464
0.133434441808725
0.129526563969104
0.132591573217522
0.131955035776402
0.128492561363928
0.125931147031293
0.129854908646485
0.129812206280426
0.132711335221206
0.127105386861361
0.129935007824801
0.124853863246136
0.127035187999726
0.120849163142624
0.125841886234726
0.12411949115725
0.12845484406484
0.124313492772836
0.123171135694407
0.124702344954945
0.127098831362246
0.122314044898567
0.120782383113719
0.122925204480785
0.124888231398109
0.120553598060927
0.120343727760407
0.115221080545281
0.121391973275565
0.116147830606319
0.119330807097918
0.116297695148291
0.119086311437567
0.115252498257346
0.115459120122661
0.11607456478512
0.114403822146141
0.113259621540079
0.118077153837594
0.115424094268773
0.115982404728237
0.112242331021506
0.112301741329241
0.109823713084685
0.11454117232458
0.113688727560693
0.11234647076607
0.111311440674384
0.112700753226564
0.110860669489352
0.11094164345091
0.107004333002763
0.111088912368252
0.10911979141192
0.108154852903322
0.109365032254038
0.111285764746647
0.106339214818407
0.10678428527699
0.107361885095426
0.108358368287902
0.105913465546024
0.107588634958117
0.105728791669344
0.110267311258247
0.107077898955184
0.107004784331301
0.104777590626485
0.1071074213691
0.102330870843943
0.106906319508254
0.103874872198648
0.10873019495518
0.10265944969584
0.10545050491164
0.103522356959461
0.105132346845116
0.103312815346545
0.102754683850877
0.10015337824476
0.107662471572799
0.101956491332483
0.103538998531314
0.0997265385223537
0.108487483153446
0.0990665335683716
0.0982381504174222
0.0996758002423531
0.1076528840957
0.0987678213320451
0.101188314816841
0.0979493022406473
0.102553690588098
0.0932940451274998
0.10548367780698
0.0988833206787584
0.106213480819398
0.0954425400178787
0.0974373462491376
0.0939115679021116
0.0991756788096235
0.0922406921381105
0.0994676409998886
0.097197558957531
0.0989973229469686
0.0922234651950777
0.101166723690055
0.0929277812710269
0.0999134400426982
0.098707834072736
0.103431854489815
0.0903296507237978
0.102835759710359
0.0946956393182542
0.100910711766269
0.0896403044048589
0.106945677731218
0.08999497188951
0.11084363195101
0.0877247448951792
0.107897290058282
0.0853336348128723
0.105778338215397
0.0867448914284962
0.111683485286115
0.0864778910050394
0.112717635787838
0.0798460782716088
0.10952903917564
0.081062055909049
0.111995038846558
0.0828996112414965
0.107818354150379
0.0815588483744603
0.106527528124908
0.0865463507302772
0.0985034074152632
0.0875003481024293
0.0994986302362469
0.0967565106157112
0.0904557956441436
0.0927397750526436
0.0843968084979714
0.0980505179971839
0.0883760482581323
0.100273740273023
0.0879512267040391
0.0961840776090564
0.0911320706194892
0.0942389828499412
0.0924163415255633
0.0922086541228531
0.092002328341867
0.0868401808455861
0.0919744354243965
0.0921524618618614
0.0931285150640885
0.0940943121504061
0.0925846717922719
0.0936844340562507
0.0900544290226509
0.0889937795185189
0.0877666718021029
0.092038384192261
0.093246452162596
0.091975590553546
0.0911902928556531
0.0925397392288571
0.0884769440069389
0.0899110301792977
0.0919078257152135
0.0914365486142154
0.0906905680827562
0.0925619547144713
0.0908033640861951
0.0921533548490219
0.0902631747670301
0.0913040975454138
0.09099651987047
0.0903799962064106
0.0922910837217014
0.0931398530693763
0.091699451678237
0.0889192675935348
0.0897635479163895
0.0919853552304584
0.0924162591848572
0.0946223895753144
0.0931956960397354
0.0926261483416615
0.0933056574883779
0.0926469976285663
0.0915048493140859
0.0901227312324136
0.0899660061492204
0.0906351866120606
0.0950062247967252
0.0937146843894624
0.0939476523792627
0.0922727883692885
0.0909795064687174
0.090286255537217
0.0903526620073676
0.0903331724833221
0.0927619141129504
0.0939132204171277
0.0909934660593751
0.0939553299389338
0.0903506160703761
0.0915963020559533
0.0923277185425002
0.0906548298839721
0.0927662934345939
0.0916038314197494
0.0935041958765307
0.0919015341017007
0.0925460194543694
0.0920759494169333
0.0942330864879606
0.0937183296399587
0.0924104924815162
0.0923563452838712
0.0929407015453305
0.0925478930629362
0.0947394361905048
0.0929823526090005
0.0921645108193884
0.0908580305681028
0.0915933620049257
0.0917603105652798
0.0925962412229283
0.0942894179479379
0.093139233175407
0.0940756839541285
0.0930696943289572
0.0923217947309486
0.0950216794188971
0.0951464948024238
0.09566250646501
0.0960428842916179
0.0929962454580307
0.092378136229998
0.0943306375442538
0.09417302822252
0.0924547173836159
0.0937931489601751
0.0965486862777071
0.0951012659950441
0.0959264405512863
0.0971525576248531
0.0970604452459528
0.0967521807912894
0.096203463041769
0.097798118958544
0.0972015193103948
0.0957257554361219
0.0992565672447924
0.0951800852825978
0.0983034323948516
0.0955362374998768
0.0929715783164791
0.0958279389642008
0.0970297003025932
0.0939722336787326
0.0961887160503204
0.0966469148717954
0.0987474962712324
0.0963190003941136
0.0991302036731762
0.0998565269928987
0.0960369624359462
0.0960083685349831
0.0976165120382127
0.0972333459458516
0.0947988969721909
0.0970225849593245
0.0994636288499062
0.0984432890321565
0.0977589429659478
0.0999207973649591
0.0997072903186126
0.0978713193899021
0.0990601813054321
0.0962334998845415
0.0971704454934374
0.0969348775550446
0.0965911864281574
0.0998709285303629
0.0984510858168253
0.0990337701597777
0.100512720184506
0.0985155900396475
0.101413789008837
0.101889036504896
0.0991731427733123
0.0984308786210036
0.100712693188294
0.100518530253666
0.101098413007974
0.0998183863308989
0.101515052019026
0.0993507569553991
0.101812085057314
0.100188304849806
0.102575521348044
0.103186846828483
0.10261523197588
0.101694704513987
0.102567711349401
0.101541831207644
0.102703358524107
0.103655121039243
0.100676562345426
0.100626946430794
0.102920165754617
0.103963206653585
0.103783631093889
0.102929907214835
0.104049028100518
0.102459222067943
0.102481975190964
0.102277807299616
0.104295162751234
0.101217186524636
0.101812942841479
0.101439075983491
0.103931140271171
0.101725396592815
0.100640596082587
0.100011745794517
0.101102819584772
0.100304996601208
0.0988267866578655
0.100117020425568
0.100892640217636
0.0981168636462104
0.0999601396718778
0.100154635846498
0.101033710478265
0.0996346969504763
0.0983077169013529
0.10084285262985
0.100731415638168
0.0974009573807592
0.0978247964487415
0.0970354419508708
0.0999763162854732
0.0976696418173931
0.0983881608194104
0.0986987741109679
0.0971348455428115
0.0942457342261734
0.0958394662080356
0.0963440385393288
0.0984623911175736
0.0978136788740657
0.0990063606115789
0.0969688205522393
0.0970601185850922
0.095233656466186
0.0966217757593225
0.0961605051570546
0.0955213453099145
0.0967400755457974
0.0968724585725967
0.0977002342733171
0.0972750911688262
0.0957917542680047
0.096239448241149
0.0945487255264387
0.0936158680057244
0.0928590075233981
0.0975497637100114
0.0963588526340636
0.0953845457212373
0.0927524905137009
0.0959652803870424
0.093961613146689
0.0934163237961775
0.0930340603494794
0.094836978790742
0.0948404300812818
0.0955730694710482
0.0914802019990417
0.0938581831099681
0.0922554997867084
0.0947853476612304
0.0943073905683205
0.0959174166643949
0.0926107139254112
0.0917930570388685
0.0932155775191801
0.0940165886795145
0.0919724115972316
0.0927946485059055
0.0919648603289285
0.0954136662409373
0.0952209896516586
0.0942684416609881
0.0944855008962666
0.0957548601737876
0.092369989982835
0.0925994920057042
0.0902168328047728
0.0912778184234352
0.091755638036787
0.0932195137891987
0.0933093141898868
0.0927819078273462
0.0930553470836574
0.0933503098136581
0.0900693608553743
0.0927958901591812
0.0911170990001444
0.0912677934008646
0.0906663887973773
0.0927933186666463
0.0915923544204264
0.0917791017541868
0.0908129557122117
0.0909502255289903
0.0914862610010138
0.0919592883170056
0.0884164739742015
0.0897498988888503
0.0913571926033449
0.0915764090938861
0.0911866335495113
0.0910549899450546
0.0889619795119143
0.089115126072696
0.0892208638803302
0.089855110836682
0.0901937950487321
0.0897391060320227
0.0867982226452238
0.08714726557462
0.0886402960078088
0.0906199649577111
0.0885502532823022
0.0862246316886344
0.0884089035701146
0.0905746033328151
0.088272288836336
0.0888547938669792
0.0877567358797131
0.0854894839774057
0.0828728273814874
0.0870237632405207
0.0853289466943517
0.0866946537554395
0.0870465311676877
0.0863793666869235
0.0856924747875057
0.0847100861040316
0.083714022395097
0.0848957028120755
0.0833829138716873
0.0840502969230005
0.0831258226022428
0.0832258597787213
0.0837633548718868
0.0819580021479154
0.0811324850522355
0.081877156644299
0.0810752506302064
0.0820172245932226
0.0802978320539765
0.0795496596567754
0.0785507918360606
0.0796527789744993
0.0788164652603718
0.0807202529609455
0.0793628234631528
0.080340696134072
0.0794080387297489
0.0788513696441906
0.076209323429495
0.0767334954682748
0.0761459700605824
0.0758180674698151
0.078038949340896
0.0772584393653609
0.0748670844823637
0.0753242081279212
0.0777510620910103
0.0761112409581873
0.0739460595079111
0.0741587793731355
0.0743412992834594
0.0770557185336312
0.0750102412640827
0.0763550840884913
0.0757203041943811
0.0755794399250241
0.0736584629417507
0.0749500955614533
0.0728915414989052
0.0754377587544539
0.0751930180241296
0.075033279508375
0.0739248632499767
0.0779491123990109
0.074366778079891
0.0727205263108772
0.0762093864658726
0.0726747498693601
0.0711611898869651
0.0724080012950538
0.0717514879361774
0.0730520537724003
0.0732047466870587
0.0734420748144074
0.0703565347659992
0.0748723443599573
0.0719584650942031
0.0739770083785286
0.0709660461603862
0.072289556002969
0.0701083649056445
0.0731385720432142
0.0727396997592174
0.0721482447552109
0.0714587981736028
0.0712376080505016
0.0682326346610929
0.070516470906011
0.07193184103292
0.0708026302151628
0.0696382992314553
0.0725711750401551
0.0694243131315488
0.0706059476849589
0.0693023056904938
0.0722003294979756
0.0692249610273516
0.0679364030998282
0.0700604781012086
0.0708563698226746
0.0686008570601444
0.0699467502768215
0.0740471767829499
0.0665648980306158
0.0680966020295519
0.0657467333631966
0.0674184039409118
0.0679593200729181
0.0669503140961791
0.0685285175908481
0.0682243179723441
0.0701010494422837
0.0700746265267489
0.0666071193605847
0.0668381867350598
0.0686774471999277
0.0686073539567257
0.0680605060316972
0.0646159397708825
0.0648437533410772
0.0694882063213474
0.0678820861743167
0.0668913063375658
0.0701792808965821
0.0679108354729883
0.0657465294587262
0.0708667230484461
0.0636993817931676
0.0684819338045046
0.0678812186391633
0.0691482928864759
0.0678005037431992
0.0657193203980146
0.0702583442277245
0.0668370456575476
0.0656175015967666
0.0668014501487888
0.0701495327605276
0.0660091362131431
0.0674235220111551
0.0655263932724414
0.0708912026458483
0.0669529958062728
0.0665000603105551
0.0675595770815574
0.06759623653129
0.0672669588058912
0.0673258470700231
0.0658919431357532
0.066476533583111
0.0688476230722231
0.0677089787101185
0.0645266814296454
0.0671977492345447
0.064061127813286
0.0675269260009203
0.0670493739972519
0.0663959908910402
0.0646336749371313
0.0722481200913016
0.0644875435456654
0.07017980991418
0.0649914930127109
0.0680454783890101
0.0678296399264961
0.0679257959600847
0.0642140264832235
0.064845780696487
0.0668338393370552
0.0681146157588912
0.0661438246409138
0.066919290648247
0.0645289570985666
0.0665378811928273
0.064237191033297
0.0671126020873813
0.068284384456025
0.0650798791454801
0.0668862774235041
0.0631711466060446
0.0620957414492916
0.07098471428703
0.0656211444270039
0.0713586090195335
0.0649152012714334
0.0665847409353703
0.0642822042927598
0.0661743688250376
0.0667774160172547
0.0694582885953711
0.0668340396740569
0.0686686922696008
0.0649368934333361
0.0656454627325551
0.065636371113131
0.0710835066023781
0.0647412571893845
0.0667407247273386
0.063141444145191
0.0665434632080803
0.0630559304506708
0.0706503673584735
0.0648661547985384
0.0713819138771444
0.0649686053411435
0.0713599897153007
0.0606653957867245
0.0725498383874887
0.073115823857961
0.0645990812604208
0.070039321576688
0.064475277079002
0.0689655083956883
0.0663296031700272
0.0671486073897961
0.0696756565304852
0.0675896035335416
0.0683245375906104
0.0685636126329403
0.0706392169996869
0.0720300229237147
0.0687453599348519
0.0642049505764526
0.0737594593352884
0.0678389532286271
0.0701583042174066
0.0703295832722308
0.065083289488453
0.0742110078776051
0.0696974286056105
0.0714020201589142
0.0712490113646533
0.0684624137616391
0.0706418165548236
0.0700232619099954
0.0716955922514375
0.0699777046114073
0.0725237735732353
0.0722568113160445
0.0725420974420988
0.0707257231919977
0.0750168451899694
0.0714000661744795
0.0719616059852275
0.071426192945406
0.0707713289072204
0.0728909002185207
0.0727512174773934
0.0700721972996643
0.0740246592672166
0.0753610369396286
0.0752333779854827
0.0725906554236904
0.0761631428971175
0.0726771421580237
0.075990448275269
0.0776909364708281
0.0737999013973145
0.0745619579086199
0.0752962892864349
0.0776848218407627
0.0768529746204029
0.0711221408566814
0.0873895280217543
0.0706955539749184
0.0855405192646861
0.073313341095308
0.0815178011430623
0.0766302133731065
0.0825767531208847
0.0733452195100721
0.0809032783144786
0.0776099325351823
0.0826621160699055
0.0770092600931281
0.0786183618567176
0.0809080112408013
0.078521138267778
0.0823794748387107
0.0822665759372073
0.0797455244363441
0.0802407621334514
0.0806113335948695
0.0751725591283402
0.0879824442622217
0.0843359333405376
0.0843603140880093
0.0857508570405157
0.0791189098254422
0.0971426487699191
0.0837209332131245
0.087598822622427
0.0848250965795813
0.0873348847295251
0.0877191258714498
0.0813369530441798
0.0887960955325325
0.0867147442769929
0.0845175022273353
0.0926494337335982
0.0849091242306008
0.0914299689074031
0.0891422306811141
0.0910639650785039
0.0899579766039542
0.0965726089311619
0.0856487444396164
0.102129254120132
0.10146544472885
0.0935019284135985
0.105363046622484
0.0952955346838503
0.100424772320738
0.0949667173253351
0.103234821100339
0.102232537191346
0.107129900335867
0.103503182633728
0.103688535110775
0.105727446899442
0.111030041876271
0.104291556377472
0.117795890342402
0.109839214384731
0.10605487219923
0.112461114633298
0.126543001625141
0.121971168526779
0.120685461652345
0.120350997836277
0.12853146615036
0.123617982830914
0.124113998963574
0.125135540954659
0.128619358649231
0.132003464728684
0.12772004693019
0.132343997824171
0.132489952703998
0.132216474279688
0.135398362777024
0.133733245961192
0.141086773020635
0.141240949090048
0.155774288084377
0.135830491518528
0.153107376755327
0.149830307551248
0.150864474613524
0.151551869512878
0.149092555818328
0.154127790287079
0.150024507867341
0.156637766041295
0.157815120281994
0.162259887070626
0.168601196764872
0.159873577042991
0.178624209206603
0.16746802574054
0.182137950754907
0.155229520487886
0.219927369065474
0.191817535301948
0.195393539712294
0.196769941982262
0.18224022395164
0.235903508187683
0.214515100617203
0.217686854214675
0.224529822791631
0.231069828065547
0.238557402670345
0.241245588393084
0.245528143573235
0.256211653506444
0.264587926850207
0.266355325640753
0.267702054595511
0.305643017972916
0.296405122643088
0.303934635026979
0.299399822745012
0.319462944500397
0.330283400841735
0.329663394959049
0.330982230589437
0.343038617790445
0.339252654167321
0.388434949531792
0.360829066056645
0.378080261062927
0.371735701423426
0.40577850254789
0.38840065672281
0.420971226499085
0.427095181654247
0.422667022209765
0.436749358872985
0.434071340220789
0.450797335501264
0.447814191268917
0.467428852172195
0.47244063693261
0.473888775649199
0.47903739207404
0.482126226712073
0.490010850195179
0.500196654716965
0.508937195709729
0.498393875831183
0.521053102085114
0.512246607529063
0.597709311736615
0.554204411741504
0.518321490016997
0.529002323919758
0.517688756614781
0.537781258780934
0.532784974377924
0.554077868030854
0.558582508391733
0.533057578538234
0.557819823572018
0.542635741607358
0.534286605290462
0.536437197719924
0.543421518010076
0.535040904640331
0.548689078178076
0.536590816568467
0.54545398317174
0.591954562580526
0.542310231039632
0.543860101804838
0.537395271088142
0.534222985187922
0.537486773034803
0.540378802618251
0.524949944743823
0.553330731182939
0.528840732995119
0.516009146219746
0.514839680918201
0.529730393082319
0.522135711723235
0.504184352201957
0.507177949198336
0.495748168138738
0.500001369217383
0.490029737640038
0.478799942005168
0.52120001903964
0.486916416414016
0.475688409557677
0.472455336426461
0.477522477476586
0.475067376457484
0.472892265291761
0.474470107407918
0.468592607718131
0.462160524176352
0.469607379355346
0.460712492717549
0.453338424494038
0.447952191384282
0.455297205120651
0.457320399806597
0.446246897943745
0.448601401735912
0.452118937387523
0.449882447773468
0.449257190979636
0.447264170807491
0.441269642962546
0.441797187116876
0.447243905279696
0.447593087597594
0.44853634883734
0.448849529916781
0.443832690063324
0.439506236957499
0.438816957841991
0.442798082742275
0.441419280615334
0.440499036493363
0.430257107479738
0.440764136575547
0.435219004854248
0.435163443952759
0.430993183134733
0.433435174578522
0.434428693038941
0.433083787085724
0.419315886143821
0.453600958887603
0.443871000429665
0.420282554021284
0.427409819526
0.415342799799048
0.417620679099876
0.409389772405508
0.430363713820895
0.419011608527993
0.405259336066554
0.403714754572277
0.402543141460926
0.408317835067161
0.40940070991655
0.39276706904001
0.396019657711449
0.385492606238448
0.406732818534668
0.417294694646119
0.388734133760163
0.420048937316862
0.388582722465404
0.383859588807734
0.374623314665572
0.400498664682493
0.373943334381516
0.372938248974202
0.365534764357889
0.374984873855269
0.372347823790662
0.36115082965704
0.362206839140925
0.360244825304633
0.367697537405525
0.372897319864517
0.352940876914553
0.350214122744689
0.364966765381393
0.345875054378083
0.358309589680151
0.37192978026281
0.354076932614129
0.33742778873438
0.333653740635694
0.332042852216071
0.325964836173991
0.346774983286401
0.327146824377841
0.326916301221141
0.32720157431043
0.314957818224366
0.316775606246686
0.313204157572825
0.316479934700937
0.300896082365385
0.319463792390771
0.301069796409454
0.303869449563822
0.301405934607056
0.307622291650928
0.311123967875167
0.293267352284408
0.293700636782053
0.297395852338939
0.306093292287516
0.284849802026016
0.293890909945774
0.284128287704176
0.273822617981471
0.283727122247948
0.280616890898312
0.275380781262384
0.278183237027269
0.269898974548181
0.286437339417129
0.287064221243465
0.289889417204461
0.274759769747183
0.263245548375559
0.269825317282139
0.267417054642404
0.26882933527221
0.26425221664877
0.277255515695752
0.285316734505975
0.258820737400403
0.291159835762514
0.27701869730983
0.274103797217275
0.279507912069982
0.278744590496243
0.276932977923118
0.288490792036408
0.293125260031803
0.294861123644853
0.289299632603934
0.304208249475554
0.298034002259088
0.308853407343253
0.306402245817954
0.315102768699752
0.312769085824502
0.32811727025335
0.33064543022689
0.33704003381613
0.339408599069614
0.348496821996302
0.350694075004788
0.373474896573988
0.3551812639539
0.377991819856314
0.380767518348826
0.402895184432977
0.405041903593903
0.406695466246914
0.419022611515824
0.416013190694047
0.42431076369418
0.42811632035222
0.427905442056756
0.466763383350924
0.449372847774288
0.449169025140065
0.452354864502417
0.468418852451993
0.463728801567142
0.4761572750497
0.474415817134661
0.479197470365521
0.501984744414781
0.48708742499791
0.496276013690698
0.488026705960474
0.500709206704513
0.498684897605306
0.498065773521058
0.500452146328032
0.501322046875926
0.518212544362365
0.514271553382864
0.517334592445962
0.518214202213
0.513860159542045
0.52185155407848
0.526995051157725
0.532701134478494
0.536356307122203
0.538125803505313
0.547485833723288
0.526181204873635
0.565103919011982
0.557731217802043
0.549721956684984
0.562583816024213
0.565736891440379
0.571797995148834
0.564547242260553
0.578628150029993
0.589139825844935
0.583988918322162
0.590558881348908
0.590593111057347
0.592315132132309
0.590540157701504
0.617030052942366
0.604607203902557
0.607797273024743
0.607638845213528
0.601957817647523
0.637782450582212
0.623725910854552
0.633092411444004
0.620045640741178
0.633027381951887
0.633520913117422
0.640614376980044
0.638802546987006
0.639976966313428
0.638407955080565
0.640421798311982
0.637736045309681
0.637467608006043
0.641394251453943
0.638632040699648
0.645026576902508
0.642048516482235
0.633295713722397
0.637663517932865
0.63665861833183
0.636058864258594
0.645636831287852
0.641761645790467
0.629987502622372
0.632405192606513
0.622895586599119
0.641716210928865
0.64374950078029
0.629046522183008
0.638669709979579
0.644347136094849
0.63287619649922
0.642401743149519
0.65002359352415
0.665401998696302
0.655323394141961
0.65220378670187
0.652252693578057
0.660239331423616
0.654624487760762
0.654720455463926
0.666388939336718
0.668657412561272
0.664425876235281
0.671293264061018
0.669248006831467
0.678345794065961
0.673680054389329
0.675422692836127
0.683220968622132
0.673935635960791
0.673074406504337
0.669248108396317
0.667151272891487
0.66373526564607
0.656806420085905
0.665274661959233
0.653821530776345
0.642914257908265
0.632300770018535
0.641865378368971
0.635431123594076
0.624968346444942
0.619062918658278
0.615756880777604
0.6176995382169
0.603770197713514
0.601698926501301
0.601866138538418
0.601053081898364
0.593727474346308
0.595500138777315
0.590970217983969
0.589624267544255
0.58706818563041
0.590345113283477
0.584170965594361
0.580320642040636
0.585165071755348
0.579832678790795
0.580528993682537
0.584817059003582
0.582508388945406
0.57705569729718
0.580404656858137
0.576592010556145
0.58076158830582
0.580134816491499
0.57579578900877
0.581078979312928
0.576263639243342
0.579944495783978
0.576197744141218
0.57753802261792
0.576844665888366
0.577179092070963
0.576094742833018
0.575250160756219
0.568334619027594
0.571856368354942
0.573758612602544
0.572338087337669
0.571939519646833
0.573205297733192
0.572517579843758
0.573590168430564
0.572085062351919
0.573525911062473
0.570410276217801
0.561278964520792
0.568709575675636
0.570279578450592
0.574878710387767
0.571164277690183
0.570084731766759
0.571036401862706
0.569087197078386
0.574397592182019
0.574718603299164
0.571475726850292
0.57082884399965
0.571245118876492
0.568123734941374
0.563583911058075
0.555998390373684
0.558599437651895
0.554925338146593
0.551637821413623
0.553062351596384
0.544637882112374
0.536129539448694
0.53388858410694
0.5329387830163
0.527546319643665
0.525710431611564
0.519058267410102
0.517075763617604
0.515146992434617
0.51111872938095
0.507484097243863
0.501853286969072
0.503104402788852
0.49744225722113
0.500929648753425
0.503216299295453
0.499370801671578
0.498798848290124
0.494063087474888
0.494873765067934
0.498143057336141
0.49449993406825
0.49384713623313
0.493297002555689
0.497589351558886
0.4988255747263
0.497699267742233
0.504757015059497
0.504929840749395
0.505350084067075
0.508384836786268
0.504201134589578
0.508312835689196
0.51094597493789
0.511240207101349
0.516921737256943
0.517670704506971
0.519940676961654
0.520052156172422
0.522686367963768
0.525187880477756
0.524876401696842
0.528135147043808
0.527884243911934
0.523312103000242
0.526637106354655
0.527277414236359
0.524077526922908
0.522673380926594
0.524303461795054
0.524929982607142
0.519977631938019
0.516451613918395
0.514666977702529
0.517810016891591
0.517174634367596
0.511903323994932
0.511631041683361
0.509685204743577
0.509780359451559
0.509944230605028
0.506334494353056
0.50727668290718
0.503923964392417
0.498326486699546
0.498553283338984
0.497926077576735
0.497383769298154
0.490176411886441
0.488994737860304
0.489823517212957
0.4859897345375
0.488180697176072
0.488821683356375
0.485258795350855
0.481026210629963
0.480439435290451
0.480085717005029
0.479595478172736
0.47949926503903
0.478947160820525
0.477441086861618
0.47452297581604
0.471126318404973
0.468216431514374
0.467563495377584
0.46560687263133
0.458026178791616
0.457985287724421
0.456391740701282
0.451621783899723
0.448411461053304
0.447758545130974
0.446054354291254
0.442450084334676
0.437926480821219
0.433181183690885
0.428019707547262
0.425388464063817
0.426049471107755
0.426776070328368
0.423307473916447
0.421470382964113
0.422479561890428
0.421609312550318
0.420267268810866
0.416082476224595
0.41937644151838
0.417403526558911
0.410590927148861
0.40605393434232
0.404951881537347
0.401636553520382
0.396840895167389
0.390764961426273
0.384246103617673
0.381683310264895
0.379004597081606
0.372332292583998
0.367608537098583
0.36688274732403
0.366031155763193
0.367108120070477
0.371400500411421
0.374022795916008
0.378955990820735
0.390187843747005
0.401440738328151
0.408643972530873
0.41959665133018
0.432437304812303
0.44720105899488
0.463921864538403
0.484370801269927
0.502594671950482
0.516290141662548
0.53758280177096
0.552362952595852
0.57368490359002
0.592459398223196
0.606220931658782
0.62720002833384
0.646320203426036
0.660215558374844
0.678451231414824
0.697725938728211
0.705920537048589
0.715186412634969
0.736184833179214
0.753744850833389
0.767841648563819
0.777269625009352
0.786551784273235
0.793635154775944
0.805686014579534
0.812703951964733
0.819976930558179
0.83479839218256
0.836668989401086
0.829656629541581
0.839251371329662
0.837527298403065
0.842647198981265
0.841781072236284
0.83753706746474
0.843030992978948
0.847791997927946
0.84601630004342
0.845364833285024
0.846157774276617
0.853419170187151
0.851810090209593
0.852819889552206
0.86618914260221
0.874808086767911
0.87715756586561
0.885017674278686
0.881910681698437
0.889331514962108
0.906410719970572
0.903079073707867
0.915551909427081
0.923393011440432
0.934582954210774
0.936588292342137
0.954781900385143
0.986044380139647
0.990498027177471
1.00072962291005
1.01870106327692
1.0253075658372
1.03514776087581
1.0434139792544
1.06331224985746
1.06826243419653
1.06169678454976
1.08412891811441
1.09246082471536
1.08974496368213
1.08143782103208
1.09050490462892
1.07313047019838
1.06054155882581
1.05924400162061
1.05700331925728
1.06306712706882
1.05236876100121
1.05640675918289
1.05775371988168
1.08698655752218
1.10491911978572
1.08387938618292
1.10905432832815
1.12299442236476
1.13880979556129
1.16492883906301
1.15850317783339
1.17912890647551
1.21225900981427
1.20706866619269
1.24540655208018
1.28008727988568
1.29257677097031
1.30054683983008
1.33574390487561
1.33181682782993
1.34251668854872
1.36743923231466
1.42328551317706
1.38892528353621
1.43872897923861
1.44967355648926
1.49571662028194
1.52995824080737
1.57231227030114
1.54637937004272
1.63318831861121
1.61188768720779
1.61436816350362
1.65384897432369
1.74447645499981
1.70588166814817
1.67586701921445
1.744398671049
1.75940693979774
1.79880961354174
1.80521017121079
1.8400297340645
1.86744984573098
1.71032635746856
1.79294625777524
1.85962693819052
1.74498634038723
1.78743497960339
1.7737532885716
1.80693956151076
1.83684257509503
1.7205856823555
1.79348422486766
1.79173054631
1.80269403809925
1.7815801580064
1.81192530547195
1.74817282310898
1.80976541498837
1.85137342274729
1.88174171887368
1.84245801259237
1.97449456312075
1.94703788298945
1.91206512961309
1.83389455231794
2.00254200065093
1.9916285219004
2.047716136553
2.17205448537046
2.29224895742126
1.90747274093363
2.11006743693937
1.97717166509674
2.19823893704364
1.94037259796975
2.04576832924915
2.15378545205646
2.33021519487915
1.97178536221627
2.05607385467331
2.11718017699294
1.93844121300898
2.19325956934574
2.79546944215356
2.0734381475627
2.14073005898299
2.06250256015984
2.33924597406342
2.23132863064715
2.27096577049393
2.31245292280648
2.10130695778478
2.00515476526493
2.34879284542843
2.13026962598997
2.41787171487901
2.14098891678026
2.22906833767235
2.22864710236736
2.17731104545947
2.00760575128586
2.06872505494285
2.40406588933518
1.96332250058843
1.89576497618755
1.87409573257315
1.74375077205802
1.73146865425351
1.63096880837194
1.62586203474089
1.67242062519382
1.65690008120752
1.49425881910423
1.49891840524224
1.53300776809216
1.58411737167154
1.49887964798294
1.54232755093356
1.50847762813782
1.45614981609257
1.45510524359266
1.46501024063261
1.42069863122231
1.41460283625274
1.42018668232528
1.41369754348305
1.39651321351875
1.40303828312679
1.37024760600851
1.35045649337786
1.29395939020447
1.28696798172054
1.26674373860712
1.25120673322914
1.1735866582519
1.1593738209331
1.13893418284327
1.08607761428416
1.0344800786184
0.981802097487131
0.956787838700382
0.917891078899784
0.868835571263314
0.847457850182431
0.803608230115269
0.770475655546702
0.737838427382574
0.716316864401278
0.686625889127326
0.656947419060085
0.628439891057391
0.620113493939221
0.595806627824324
0.579441442118457
0.573430577520156
0.563248564207294
0.548342188465864
0.534886320270143
0.535719932519338
0.532917685917293
0.521419206070913
0.524559201822335
0.51660595042104
0.523519515928049
0.519773689696274
0.520337243395178
0.517627775378086
0.519371254487941
0.521677775931793
0.520951394180309
0.52317115685071
0.528066203044872
0.524533433004918
0.519555946942172
0.517174452030232
0.517377113227687
0.514726771839679
0.510238756018695
0.495319854917405
0.493960426533007
0.493868562258374
0.490450144358369
0.478011097901559
0.483274075992169
0.472922058070068
0.469632772962542
0.475459790504559
0.47027511240196
0.468772686064797
0.475920641802396
0.489449658351111
0.485509363809267
0.479673132224394
0.502135565373654
0.493300939201086
0.492666212024535
0.494140850773852
0.506200400312093
0.502439641410039
0.498936120502067
0.510037890146794
0.516473969782153
0.519505875978656
0.515689666473559
0.514923260607507
0.517624407387452
0.526798362670355
0.520423651851691
0.512451715008767
0.516105664579003
0.515213806441092
0.518017475078146
0.525080897776897
0.529330908129599
0.536107376075576
0.544035432802843
0.54571692810114
0.561472767677066
0.569029584850237
0.586699038633212
0.589736275639381
0.613531810731628
0.621543463907252
0.638315472073016
0.642751563510193
0.664670647851863
0.675809386691959
0.702929356027755
0.69812396376454
0.697790724431961
0.692898095284127
0.690345153086966
0.705128233338863
0.687987592432356
0.650880993364961
0.64724487063164
0.647464133191203
0.641063855065095
0.636149973248921
0.630099485370576
0.632882555126825
0.63347469641921
0.63148752201065
0.635196051115781
0.616782825391223
0.636876467133594
0.633513492815261
0.628405953817764
0.636205604920235
0.630056509459853
0.621821629528212
0.621760318042526
0.611585142304561
0.606568874159063
0.607270878508646
0.593560866344612
0.595930342571655
0.581326632657483
0.56790607092401
0.573300473781756
0.576699330319981
0.569348139957316
0.566956290072239
0.560252795724326
0.554278784025863
0.557230161167051
0.533048451029015
0.555349478192736
0.547516865457174
0.542577072938952
0.545139980555775
0.543944102229775
0.53635562351565
0.540823212761859
0.530814828408543
0.544932864003403
0.540631756024526
0.53241960800034
0.531510520079702
0.525462870911822
0.50824747637155
0.525517091409311
0.513515691525416
0.500962491252264
0.504782015461711
0.51502135702207
0.499779120002982
0.51364161924731
0.497629536549976
0.501140837906832
0.486993955746836
0.505939382546759
0.494620538515686
0.49280097053063
0.488804031838213
0.495183781478569
0.489378241032024
0.485853057541399
0.485065913645226
0.507468553799636
0.487601269504647
0.496502268726411
0.501754192803168
0.496308121745191
0.484101905654401
0.491637479109195
0.507585095231787
0.526416160325414
0.503320587700083
0.485006866398666
0.510971281568822
0.511664956097625
0.503968221914117
0.540727579947277
0.531655727225628
0.524527085575203
0.513124077926669
0.510775451871698
0.521027139691567
0.545504903405391
0.528174578763089
0.553604427456937
0.545250120785882
0.545315838808785
0.551547682082183
0.579882675573696
0.560118515939907
0.602620752563711
0.599680014101986
0.602977845470503
0.602080459427405
0.624113559685354
0.640857256725134
0.668247503478487
0.669739919430025
0.702928099177275
0.707679780161907
0.779209758732059
0.772237672936629
0.756842970597096
0.75249218236003
0.781945132796982
0.771742660300833
0.860917710524273
0.813667367514644
0.844884417238344
0.83207764096193
0.870094237845529
0.882406412837402
0.903563624529663
0.845144007207768
0.835455573334891
0.836566358860468
0.854877926964407
0.849862110928692
0.826406833587128
0.843653318122969
0.852837349700167
0.786528237787541
0.847117746263151
0.833338120834178
0.84121064551627
0.790716353875616
0.839358548723476
0.78623477890796
0.806997303644285
0.764828816155075
0.803036483958145
0.778400247811049
0.848069790515663
0.7843226379331
0.793411969425278
0.774753331188864
0.783162364799711
0.759163837015177
0.732968205369285
0.706561378364321
0.785899533666496
0.70282327545688
0.723703327882316
0.759245824228908
0.757932666783583
0.754987852566624
0.769210388826967
0.673837908746505
0.730903536184655
0.750722817229629
0.730749592090643
0.721673597784018
0.74169348231945
0.820050952300258
0.731351762185707
0.735776762665933
0.826768255445864
0.716728173741277
0.795682969026728
0.801188666390932
0.845691280703145
0.734687022651842
0.743360830264067
0.705443899138111
0.700306131539359
0.768615158129783
0.806931905883742
0.692923627830184
0.835345878999017
0.784600643173068
0.895759007444125
0.743452222535241
0.768434678844084
0.759966584525535
0.88690883659335
0.820766084297938
0.864421870884304
0.746032719719436
0.800853387001876
0.87501830180091
0.961437456368253
0.863993127890206
0.949684745454378
0.952739055110676
1.08989740246225
0.941366392507595
1.00742680398664
0.814018667374858
0.97679042284328
0.986641146187294
1.06404227762716
0.854026813532938
1.17526876612442
0.935656817226192
1.22813603420202
0.929764788141311
1.10140939493496
1.01933959934415
1.06056805309848
0.979747348140392
1.10610561381801
1.02933274126055
1.14948569680847
0.932681418541144
0.946583624644695
0.964332538507537
1.08614763114389
0.85840950541494
1.1978241720177
0.93731354925931
1.50414667622244
1.32412245468551
0.992477452616935
0.869562176352356
5
0.873241997764262
1.04362448470241
0.829702227647467
0.916434450971668
0.843828881676082
0.95360025520793
0.736621070146921
5
0.888637249777059
0.828747389260182
0.997529869477297
1.49105331097962
1.05139797042606
1.37578865306067
0.984087499785393
1.06284959978056
0.716177056932184
1.15974542844503
1.12544876357961
0.977159559131059
0.867763308156577
0.862418068327228
0.711762426178204
1.8261302485267
5
0.972408596205755
1.22408275753875
1.16228791098023
5
5
1.26422024264066
1.69150170264698
0.585592572809406
2.69547386104427
0.749398436458641
5
2.07993833017852
5
