3596
4000.36533379555
650.420452594757
1
2
2
0.0459902249812854
0.0431758282027449
0.0411561170436245
0.0315078736009307
0.0494356034988556
0.033855039701752
0.0487429038483909
0.0411637323313083
0.0458237995073501
0.0418529232245014
0.0469925992001877
0.0437308963111906
0.0477704111475143
0.0347538677291682
0.0481312991149013
0.035610670222398
0.0396591420878779
0.0279864293242995
0.0381383151075864
0.0375444307734397
0.0483832814639087
0.0296928235385514
0.0420383298498896
0.038825802644234
0.0425370679856223
0.036114900240897
0.040691680756403
0.0356818512913631
0.0540310091107979
0.0386748353536657
0.05002993306167
0.0369928608939778
0.0513501077122907
0.0362511192439686
0.0384362958405415
0.0413479804019576
0.0479151495880905
0.0344691214352312
0.0459827758918456
0.0388880511592884
0.0452581892975747
0.0323924468175783
0.0444181083039363
0.045843779512227
0.0417537047906945
0.0318413340057618
0.0487423508607309
0.0362790750793312
0.0390749008031975
0.0365737531929158
0.0500985305525443
0.0344005125419702
0.0405335595522828
0.035388285833847
0.0406206056562902
0.0359415745396745
0.0419402389400064
0.0410441732827311
0.0513252720067518
0.0371413321984543
0.0379154080096073
0.0430739614464043
0.0394639538243991
0.0394365380918008
0.0425198209065892
0.0314436139721119
0.0492003642293881
0.0316264425790809
0.0376681130040649
0.0355716622868712
0.0424931735891829
0.0344424944354136
0.0467289056062818
0.0332337766884434
0.0492636470875819
0.0315406387275415
0.046418477797839
0.0366106493570665
0.042617596309192
0.0471628883296837
0.0528208379008862
0.030848580102448
0.047177663381029
0.0328464470479471
0.0396587983437434
0.0396838865330268
0.0440508708104184
0.0197403133749715
0.0492997250790799
0.0397800040849391
0.0442983830458369
0.0328574316186885
0.0448654829103775
0.0354457502846356
0.0418370079943726
0.0222245496368898
0.042244637070462
0.0355712272191383
0.0441297568131725
0.0325897102247508
0.0479885510575329
0.0131178958636737
0.0507010403189825
0.0257895985847067
0.045615142179444
0.0515557189525854
0.0196646419758135
0.0501818595916982
0.041330596544287
0.0345822280977037
0.041924636476228
0.0372937094743755
0.0447688139159085
0.0360889703487348
0.0348283865636538
0.0192433033642953
0.0525848654550809
0.0281982211064376
0.0452392724070604
0.0277577140007111
0.0328852672468077
0.0231273816020978
0.0618513091561992
0.0302463319939354
0.0456599811831202
0.0379868470447264
0.0381268169391035
0.027960617846708
0.054359675935874
0.031139375341392
0.0446058889134703
0.0228192122130838
0.0395271246536156
0.0143865136649053
0.050302476183222
0.0361138443342851
0.0349287626203712
0.0245673969508428
0.0269108882353027
0.036791112228181
0.0483203199213301
0.0292742990579722
0.0314131259478114
0.0148906522692404
0.0456748543438841
0.0291304725688604
0.0377402995033443
0.032981012578947
0.0529360806911874
0.0342619193897507
0.0416427491235253
0.0208497936395652
0.0473084782408068
0.0347681150872346
0.0204868777357086
-0.00396759376722862
0.0856109937190031
0.0115335788352473
0.0600028342701542
0.0367234631154777
0.0379717995363317
0.0392082736843403
0.0388361845298814
0.0353763528623792
0.0368372105082867
0.0274218363011419
0.0319028137661112
0.0441834165468553
0.0386559240767092
0.0320920629838692
0.0383513147612129
0.0240718093309923
0.0243467449476556
0.0364900200243345
0.0525428299334043
0.0172014693169456
0.0422458905339948
0.0308695459217524
0.0403670723967028
0.0251063896621842
0.0535512970532695
0.0337358941242205
0.0437144632898541
0.0352127922768528
0.0364880006292603
0.029260606580858
0.0494400789647868
0.0316321882269296
0.0337807051467068
0.019851149770154
0.0354573042996929
0.0406950218321151
0.0544147864373638
0.0383782652482196
0.0442050593490571
0.0175964900986735
0.0311358161650178
0.0514368406545091
0.035053584570657
0.0303102638958937
0.0442900358950589
0.0305993425656336
0.039863597519605
0.0259595040879266
0.034679178850196
0.0143708122102184
0.0453097463368047
0.0461625053986929
0.0370932991063089
0.0369275944892709
0.027970347354777
0.0294385673654446
0.0402597530956547
0.0594976625920429
0.0340784725558037
0.0319257812371392
0.0287182320084
0.0255365165829683
0.0511499707193759
0.0353211651513006
0.0365129694819857
0.0360931498553933
0.0387610115355779
0.0340938675338891
0.0387349511072217
0.0306767331717085
0.0412828396318405
0.0362007289364417
0.0383452121531926
0.0325803895513419
0.0376624880339801
0.0364422880961995
0.0384941596562842
0.0263663087597817
0.0397822561562515
0.0360994382225315
0.0599386486252785
0.0343398315254477
0.0396083158758454
0.0277218655417888
0.0372838516417852
0.0302872476712805
0.0401459038442083
0.0345011962701034
0.0424905160291308
0.02654851463438
0.0450601436895908
0.0443412007727164
0.0315160687236713
0.0376896834243404
0.0344201661202554
0.0503917949325411
0.0348769577532259
0.0364232705933945
0.033142097230882
0.0335019784611242
0.0196727362587679
0.0467819171523471
0.0366725832331039
0.0302303873473013
0.0355127106369553
0.043939994239151
0.0345138031567371
0.0253077969025925
0.025345696085909
0.0522166165400358
0.0445545242312042
0.0216368897538484
0.0504274032344292
0.0481355488729899
0.0251807728018673
0.0390926599836288
0.0181679366817142
0.0580423818797634
0.0679263747972043
0.0327610609781916
0.0318547146257357
0.0432946132259865
0.0439764578728572
0.0266610513860899
0.0465074570343083
0.0273038017411737
0.0488647756786911
0.0405091191122874
0.0594001367983957
0.037742165732471
0.023890485274274
0.0576857729556253
0.0324984673269936
0.0383575695035784
0.0336049856557893
0.0366512940795431
0.0344863639436869
0.0467327631406067
0.0403962203443891
0.046121736171631
0.0333534255153106
0.0465204369723515
0.0519116796062349
0.036101760275344
0.0386434237867015
0.0401612641172605
0.0416066995790274
0.0383325864078659
0.0433590986444937
0.0376212685113143
0.0445524475909121
0.0286117719207355
0.0573580415961905
0.0431227021782426
0.033852535384432
0.0506478052714351
0.0502339029754701
0.0377678514917112
0.0424926484918974
0.0419544576473
0.0500345322144576
0.0418957240666491
0.0464828568647393
0.0466494863176984
0.0524570828740626
0.0442743111036117
0.0536010354343878
0.0392279828197356
0.0451021961199076
0.0383738592307934
0.0475237961715406
0.0462897961694005
0.0451130408622605
0.046963580508578
0.0530045534359959
0.0524842508113967
0.0465500623671553
0.044232551647306
0.0737896386933613
0.0417072940381854
0.0554475872240574
0.0538079937030434
0.0499503493817075
0.0467570816865025
0.0552782598304859
0.0528445037750383
0.0523438269177711
0.0486035909732282
0.061939262504827
0.0544178465065116
0.0453615227559224
0.0688946349520478
0.0886775960654937
0.0624227531483444
0.0582662912653842
0.0555790491666199
0.0498241340598214
0.0799437901271481
0.0603126718266647
0.069154490499243
0.0682253889709823
0.0657514304293909
0.0735967655042991
0.067044033806131
0.0726828270718901
0.0677064953403941
0.0747931243091974
0.0667143144875271
0.0768497083978716
0.0675489188157328
0.0742148874276393
0.0670951687116943
0.0922197454949744
0.0883124320179267
0.0860917908281711
0.0774252864435895
0.0935554112815011
0.0767051049057589
0.115171536085439
0.0742804910871467
0.111773882166387
0.0814853486238135
0.104337180615384
0.0954892309612506
0.0929084428681102
0.0972418633490157
0.106243982355602
0.10791126102681
0.108599824005492
0.110280769341381
0.112732016723445
0.103600769613593
0.122326197742236
0.116456318679428
0.111099941320269
0.111866515148785
0.122041045117868
0.132856176914508
0.124142130627037
0.12746546162652
0.118852819794486
0.146483980950478
0.14339972221683
0.143092122554414
0.129708459634625
0.146514841074152
0.14256694369309
0.142051802843965
0.142761631323651
0.14789312789227
0.15567306981629
0.154510504628127
0.168531993512852
0.154241659299681
0.166583675291024
0.167565476119083
0.169952078286788
0.177535345404208
0.171027758084588
0.18324155267299
0.192002637607909
0.186049527941553
0.191320177393928
0.19576060250169
0.183416266143043
0.196729443440598
0.190348654368664
0.188715182992397
0.198794287848406
0.206829683394628
0.205825283361663
0.208355914282489
0.211142183262942
0.216846364808715
0.221927341718747
0.223806717261974
0.225684638068682
0.228845288006769
0.244194086854441
0.232998399421189
0.235447572416882
0.248241297838851
0.235310679876258
0.252869159651154
0.250590416542751
0.264107745281522
0.249128533213286
0.239872397420456
0.265853016035066
0.262370831255281
0.26578309475691
0.262667770562089
0.280809036010416
0.276869703999708
0.278591542849746
0.281479172851518
0.290199669814372
0.305466237412695
0.30892118250852
0.307166036722438
0.295707803560004
0.311331678076459
0.306653565730097
0.308726065653364
0.318822873388287
0.34263498526919
0.33053074207943
0.353937027569851
0.354381477744242
0.341942201230851
0.345733032802609
0.33473804457057
0.348138808200905
0.357657359628222
0.35968708489424
0.364117928411985
0.367506649932013
0.372986323750143
0.376324720883955
0.366532506662836
0.396745025112625
0.379792576610711
0.38949392453124
0.400846772367445
0.412784255488507
0.402102366299188
0.417994331493486
0.407255350194874
0.416669624900865
0.425877708255797
0.420764762546661
0.418776675658721
0.438618250858141
0.446319627508398
0.447513788088974
0.456247041299189
0.467950065631572
0.447552327886888
0.451982731181642
0.468001486110909
0.47342533893598
0.483764246188756
0.487480235678261
0.528612137495256
0.494728815498648
0.498279821639745
0.499743725252968
0.519821249829125
0.519845684270435
0.526255029711714
0.547643631197369
0.54661184992027
0.525190100302904
0.527702546099363
0.535816879858166
0.562731903839401
0.544699073791675
0.551253513296765
0.585042872424358
0.597981880814421
0.587917601043052
0.597155185742934
0.588607647762329
0.605084488187525
0.565449575741348
0.597856219817216
0.581236219809142
0.63338922640263
0.611436331176747
0.649896146558551
0.620780299189774
0.624730794494676
0.610110176206969
0.622174675391361
0.657850032838888
0.670233688548112
0.626550603534194
0.666784804886089
0.63015203392039
0.678848107024172
0.691067894451033
0.689295554755146
0.67303851413032
0.733044325639755
0.69994817768027
0.705574828690632
0.724922494351886
0.713857290931675
0.743620260493745
0.722060447248906
0.720808117232842
0.768414475035161
0.73823158377983
0.772707755088347
0.759168911422652
0.789099836294784
0.769970585699352
0.789377849117937
0.770356021293915
0.805915011267053
0.754841817395534
0.779951037839482
0.809765339585193
0.802447741376037
0.805601825905898
0.824992223474781
0.799316776819141
0.844122090415277
0.811403401585436
0.819943397901643
0.833083822910341
0.820700722924864
0.813298770942339
0.860495177993586
0.853627586645187
0.906296115808766
0.88511975536481
0.924020741590871
0.882428431240817
0.919794651388081
0.889683517900086
0.927736112851859
0.894434405704758
0.975604709073007
0.890564752992951
0.942191022836068
0.928405650897073
0.954869624359039
0.955301804303787
0.917127091366159
0.915971252291617
0.991195928988018
0.951851052165822
0.980039035431984
0.949865395154082
1.0027362985237
0.991998446157624
1.07197320306438
0.959068701952067
1.04415664771534
0.993400927812623
1.0078270839289
1.00583827703851
1.0368563130742
1.02994552149702
1.03791635704962
0.983618203194067
1.03672612936472
0.956541226963285
1.02972093853097
1.02904867480794
1.14675077520553
1.09386304390772
1.11284180351182
1.01411674125203
1.15499388457505
1.10824596742132
1.13848220980723
1.09968166562113
1.1030574088458
1.1430087966807
1.14252198062215
1.0544477405207
1.14839309422604
1.11385417838566
1.1476438384628
1.07610320055696
1.09165160385127
1.05259447885129
1.16169928665118
1.12822667176117
1.18595999053785
1.11558713369421
1.17717158203926
1.12191124804414
1.24859675331534
1.14635726569684
1.21279195554285
1.12781461296414
1.21183977897533
1.19383969330833
1.15877864149906
1.18462985331151
1.18255909321061
1.05352602022166
1.34142468724618
1.23457560772158
1.19959380179638
1.19699393494389
1.37009303027871
1.25261822581946
1.34465702946519
1.22829544062346
1.14717370485871
1.18090102952297
1.20151442467706
1.20827136210182
1.41030409968238
1.28626320925117
1.40918545348467
1.27912654125462
1.30583417167675
1.29171818976893
1.34446461074898
1.26705764095422
1.26515634846974
1.27926660589644
1.31949340860547
1.28128280928285
1.40116331864059
1.30388861062774
1.40700996570636
1.34763955882724
1.48901121876401
1.32045919758408
1.28876599121387
1.27617808318545
1.42255737886643
1.31874243033161
1.43932228761803
1.24628362388181
1.43296305322654
1.29549859364264
1.33716236336324
1.27187695632443
1.29823851004079
1.21782965425959
1.39365590414874
1.33706915772609
1.40273112137033
1.33565618207835
1.39973577620215
1.33166984436841
1.40238829819299
1.4113551140775
1.42878047275887
1.35562750757373
1.27600444371417
1.21837939613541
1.42263750772515
1.33388491457487
1.32112975871376
1.3327220787777
1.43551375831166
1.39558366928124
1.53087862952591
1.33070817676415
1.44221539600326
1.35669119053593
1.44108191286026
1.34159787815391
1.52849295716168
1.39106963037084
1.43894572271957
1.34985793700718
1.38592179489671
1.38624409060352
1.54893776397573
1.30357997965626
1.38525168994455
1.30080211859781
1.46669714822216
1.27445940740011
1.50918458006142
1.51744053145387
1.45396669577266
1.38214783934131
1.58109106039608
1.33932883413926
1.40815456292352
1.4051991660141
1.36052636565785
1.39330703930009
1.52122324235687
1.35314088820262
1.48026906108973
1.52602354389169
1.56402725793786
1.48322222427846
1.50921300443732
1.23266773712221
1.40948514684643
1.33313381878918
1.51868568066212
1.42197484766724
1.30286629171674
1.36155092696265
1.53925823994176
1.30243548941831
1.45267815454206
1.29074707720925
1.40859412227872
1.35721383181593
1.47601942519731
1.32217789734817
1.3630541708456
1.30656956396179
1.54826365456056
1.28644090953214
1.39150520036437
1.36500286475951
1.40590672040634
1.3426693892439
1.4496036566551
1.43151748547196
1.49377763403276
1.39440474937668
1.4741734531541
1.46773756181475
1.56485285315789
1.37266148174934
1.45242816337484
1.38593388898187
1.41252304567281
1.34466615553225
1.49109276408375
1.36319649828983
1.32872406505778
1.29312347889529
1.400406130556
1.36430608946026
1.35961619117977
1.26747339865773
1.36341435819163
1.36205885266649
1.35761061230746
1.29801267690644
1.52760087102727
1.35974111938335
1.51944909983778
1.41962424860631
1.34865898698333
1.30687976335894
1.38602963713
1.36779862998244
1.56452277470482
1.26480781305183
1.33408069554176
1.34294633504693
1.33261938533311
1.28683971712118
1.348961976824
1.35372408285302
1.43542264708623
1.27490619608514
1.34229411513376
1.36557141087683
1.41821730783635
1.29218906295094
1.34206809336428
1.30879733875758
1.32300767423219
1.26021654071527
1.29574942726396
1.24014740708901
1.41705986080314
1.24953676679904
1.31541057314791
1.25761250640594
1.33045961466157
1.24632383414687
1.31842776102143
1.23289080978363
1.2013963830372
1.26651873910636
1.30961259113687
1.26654012891175
1.27315582152658
1.21360800692395
1.25018470719757
1.2681518459443
1.21296770069424
1.14879387013549
1.27812194722887
1.25041082018188
1.29958022599728
1.21676918630434
1.24631142461042
1.15875092346251
1.31755493084256
1.13212159223212
1.27287969562722
1.18188035249795
1.19416525951529
1.10165785149476
1.17494598073481
1.12319600880402
1.21251571871786
1.17923683482751
1.25107625814477
1.12364325913894
1.1211697899666
1.1192188318011
1.21802734585853
1.11518566428756
1.21815860570773
1.17885798538995
1.19594136125554
1.12445207760197
1.16448736888892
1.09769225266681
1.10637596609777
1.13205968512457
1.12888252800685
1.0995728517413
1.17342229800979
1.07374574891567
1.1354142305761
1.12353942458952
1.12059769495432
1.051514333731
1.10613451930098
1.06056202716446
1.1003802006353
1.04443680932212
1.09156322218054
1.04361128116823
1.06779563629862
1.02795724558708
1.08397833844555
1.04847673578538
1.03832305879968
1.03496107430642
1.03809552115457
1.03430445339974
1.0418053331406
0.988885193463277
1.03642072857794
1.0013747157548
1.00315841680784
0.995856873563486
1.03514096973578
0.946687322100242
1.00358704209184
0.982326891045578
0.976659076567954
0.957656481381033
0.995856855644321
0.965780221132696
0.973429864192322
0.981006544479092
0.966034208043785
0.94111376438621
0.940016260120809
0.912766097595908
1.00500566608564
0.931245962888709
0.91943481393197
0.898987461722476
0.908907614043557
0.891057203890249
0.912968196991932
0.885525669982078
0.916587263765791
0.890883632482745
0.91635350887539
0.884777977213209
0.89346007258281
0.880181349571369
0.871417685339833
0.843207811007399
0.872354173766614
0.847006762327351
0.858230679714321
0.825591557715061
0.8528507866881
0.843432738934005
0.822279213946989
0.812334276070045
0.836207963102319
0.808345977749263
0.826646741458507
0.808602237568723
0.815304482229965
0.790154188466018
0.802874533900859
0.779044406120723
0.80371977456444
0.765400382994859
0.79905103313101
0.782991979040327
0.777907456491635
0.746609085943296
0.784016243897363
0.772815526907664
0.77979736085448
0.758075142153123
0.748081517920595
0.72710890225933
0.746008042473279
0.737278864497158
0.725202424066719
0.730537192809055
0.753300860416949
0.725791992635285
0.718860498611601
0.68419135017623
0.710178425762324
0.713767734143343
0.686982231103016
0.699265816498605
0.718373763180503
0.703723867588666
0.698622927375555
0.694747604273371
0.696530447486045
0.655317042059637
0.672628111973622
0.664789349729681
0.666706872275791
0.653160761559747
0.670282253070479
0.654217559094398
0.647981374131468
0.63285010537531
0.658099663876357
0.638663130837038
0.652676293275544
0.626877142833261
0.640803822226912
0.617458353005927
0.627119726356644
0.62001861141914
0.630150850095668
0.625711460291611
0.622607014385066
0.600973728782207
0.620935829727513
0.609209106563259
0.611285313404603
0.590632185124485
0.592519807932745
0.589130876511712
0.592513962443862
0.581834410805345
0.57436343895457
0.571305627602135
0.578221992826649
0.568481288717912
0.578173168372353
0.569817425095239
0.567006501279144
0.551369230167428
0.556323508686083
0.548505855743305
0.548022281517208
0.530125126789019
0.556255279316087
0.539597585694368
0.544565854744089
0.533251358142696
0.533209093972083
0.531640079087058
0.537442758202474
0.514251094044941
0.528727162948015
0.512115223186233
0.520752938167849
0.507673009458929
0.512671358933314
0.492884914052038
0.518005369101792
0.488749308545675
0.503279630666857
0.493008553074028
0.508378297106485
0.492132328332043
0.497632263005297
0.478511637759273
0.479815289204518
0.475697416395919
0.471086095498352
0.480897877998042
0.477995230489429
0.474444145296861
0.469641512689271
0.461050005461717
0.456721725835097
0.448588818039228
0.46318319047267
0.45032639445106
0.458535496576605
0.441372718599667
0.453922306703062
0.44300710740572
0.442964709525289
0.44327106503642
0.437434212231603
0.431284334993617
0.441427012002704
0.423354344419966
0.427832529462068
0.420341257619221
0.433376736228937
0.418292679091593
0.425791065489451
0.418181620401526
0.414531841559277
0.410798750684645
0.419396199497505
0.406984346416858
0.408265300626755
0.400542031021131
0.412259105582363
0.395747691628435
0.401226526094378
0.40458291137383
0.395723968445221
0.393648654098695
0.389809025399504
0.386784607504434
0.400274029125435
0.394030682121255
0.401851718896673
0.391771687300554
0.396668476363381
0.385176475581821
0.388298348500433
0.379968634654208
0.384197346645405
0.383648826318812
0.391323185069111
0.380253704299157
0.385581754535019
0.383348330104966
0.389936584527171
0.379436155235241
0.390584317999944
0.383617449002591
0.384390791648778
0.380728750047475
0.386521094708111
0.38060875116411
0.386524031873342
0.373562948666843
0.385845803066633
0.38934303316213
0.395364490273082
0.396342424498831
0.392315620668048
0.38976747157257
0.40753024901856
0.397775612458349
0.404289037174487
0.400352630060674
0.414757166048407
0.402211147055865
0.415268826972649
0.414080457845858
0.422065708092464
0.409601914858324
0.41882303832655
0.422774020246716
0.42277704691111
0.419699929202745
0.430287492986683
0.425321780813754
0.428779425892384
0.427255983703115
0.434037627899827
0.437406057887199
0.445325979812796
0.439755181387639
0.439052258574959
0.441067710081663
0.460557053620578
0.455165137504626
0.450153723583768
0.46252248959854
0.464210946975801
0.459501994973737
0.483589532689473
0.469611791413771
0.480826815811814
0.480553758730809
0.483379747886225
0.471974129716093
0.507910280072427
0.49577836933258
0.510956048620191
0.503800523504111
0.520209133193394
0.512864317030405
0.514975318663792
0.517360946998519
0.522994508510396
0.515990866771727
0.528029080013839
0.515181816955621
0.527391421356301
0.533593845372055
0.5363834903286
0.525139209545663
0.537185905870611
0.530274555061709
0.550158664623117
0.52146885286182
0.546472948634426
0.540351734488226
0.546313872631442
0.547291346824533
0.551167244975018
0.531513100616741
0.54713553125254
0.524939246332958
0.539971932189427
0.536112598791017
0.547732433673741
0.541616106488048
0.548832926320308
0.538694173199766
0.531992422066077
0.538373747456488
0.530410085043371
0.536173600667001
0.529920674257978
0.520777257734415
0.536938014265976
0.540298613427093
0.544523794822536
0.533723066143874
0.535761993167821
0.522601616775088
0.541188492937959
0.533509051230995
0.551167137531375
0.537302727787978
0.535382422452192
0.534899145443539
0.540100031090522
0.531930904451017
0.546978135288496
0.53702259770213
0.54482944087026
0.538263701919647
0.542165335442948
0.535629951893135
0.549158744092476
0.530902190981279
0.539344691976443
0.525638638248955
0.537955617885811
0.530828874830315
0.543163331086195
0.528726307459799
0.531434897077645
0.519683317417361
0.536990086270232
0.524148885897946
0.516998973348202
0.520615225277993
0.532338046168909
0.511215615947116
0.516935820082265
0.500975266564537
0.508074123953259
0.517692846463401
0.510527200747191
0.501996529402453
0.508193728746526
0.492414335639116
0.502385618551988
0.489166998325764
0.487976613450349
0.472939531105141
0.483503799026661
0.483248656512565
0.473345828127316
0.467786122736827
0.476397465265376
0.449785744615569
0.458952061444518
0.457369150706727
0.45556566854954
0.446789410514312
0.444642017702254
0.430161421399874
0.439954342587557
0.434124550777061
0.44097577158904
0.418837145224614
0.422000717654126
0.4130554431665
0.411485959009636
0.41568954966114
0.406404748212757
0.40165877039309
0.401836633692635
0.393657750963675
0.393924924359037
0.393497899624122
0.396555714774172
0.381707680866813
0.388224041137895
0.381300016653896
0.3852075004199
0.371179395963708
0.385792060003772
0.376236356422493
0.374147491606667
0.362290032595616
0.364596533414508
0.3649115491339
0.365409822535448
0.359420746975927
0.355117702992895
0.344183829660716
0.357794003922558
0.341134471397718
0.353468803436146
0.349681693804619
0.350414164213014
0.342481895058398
0.343079713036796
0.338741801135447
0.345667088500437
0.331472880318522
0.343203776757714
0.328743578843223
0.333156054489595
0.328912524823371
0.334804195130265
0.328470443423008
0.336789643916175
0.323668608691235
0.324917131136861
0.321854685497618
0.322526907149639
0.31489767451912
0.315074287301002
0.315091499851667
0.319513529686737
0.310501975314283
0.313895026949455
0.314501779633806
0.311200738659706
0.305408811178752
0.307673580733174
0.303127793330234
0.299186719413008
0.29569864795816
0.301395670434522
0.29899395917317
0.304974235431268
0.294779279901556
0.30203065598372
0.294758873609994
0.295618043658759
0.295043075234156
0.299040150956815
0.284999032445679
0.29294534795724
0.289510453941426
0.285208086697207
0.288017500545904
0.289596011430658
0.292383730111371
0.283278433985345
0.285320703077405
0.286620694493571
0.279917564449674
0.285273897698909
0.27732715471349
0.27332317070703
0.274340672335117
0.274027646993644
0.282375057029977
0.278645078841159
0.274126068605471
0.2769276118922
0.276512447243473
0.271671400621271
0.26799215497373
0.269165281318117
0.267945427580864
0.269059660299085
0.269542079552276
0.264242041152908
0.262835280911425
0.269208199833044
0.264651808812442
0.264721130833854
0.264268040876848
0.267382650751996
0.261476111889604
0.263193438724706
0.258114786569277
0.264665966276373
0.262059418236233
0.267127042086978
0.26430173795042
0.256178776257939
0.257351564897369
0.261830748310175
0.254951112646044
0.257414145734877
0.256928503672508
0.256987153118082
0.255125275065514
0.258835540831631
0.259806932139214
0.257348263756906
0.251002079766304
0.253219529235213
0.248646290885499
0.258038840922546
0.250961709998464
0.251834226386518
0.250111533731078
0.252148559073079
0.249794213069665
0.249542174307919
0.249075953013564
0.252357723112429
0.243491995023643
0.243103926478038
0.249486098280525
0.250921566184735
0.245050730705351
0.244742806534487
0.245378719295924
0.238146745201419
0.246740407396552
0.245735873001764
0.243300348341694
0.248904953475783
0.243814622236842
0.239969983882701
0.234717689901265
0.245123679738797
0.238961271987584
0.240752825557027
0.237069085519705
0.238126988991155
0.23230326056096
0.235370442702584
0.235325557447486
0.233806827634041
0.235216544757449
0.237139917651664
0.229946588987745
0.233195593825764
0.22933750007525
0.230268596169953
0.227440303258808
0.22602279638994
0.227904268047848
0.228753356638411
0.226928544677752
0.228833062362509
0.231725258955261
0.225435646762423
0.220608073659151
0.228382372316896
0.222375524508738
0.22470252785624
0.218127744271093
0.22312655485011
0.224468045045734
0.220706910302051
0.219327785441205
0.223107670960673
0.214751300943678
0.21655702295121
0.212620927849424
0.218663037230392
0.21284369011304
0.212829710097693
0.215202882121391
0.211169113542851
0.207285430836787
0.213314404436178
0.210719888907411
0.210029884379724
0.207167566636841
0.208682694402541
0.206477715079758
0.211276424349964
0.204897990364709
0.201285876185198
0.199787452317218
0.205187528391826
0.199417746070845
0.20229764504792
0.197384627611397
0.200143538699061
0.195230852957642
0.200516371088598
0.19613880633425
0.19686786115599
0.189643296316964
0.196194261072074
0.196067637699733
0.194362711543459
0.189786327595181
0.192056388510049
0.187633646517517
0.187369976334531
0.185744575829558
0.188358706468526
0.179842941590115
0.186758310367922
0.183404999136379
0.181088468448354
0.176281622948534
0.179980803099448
0.182204359779943
0.182426694160549
0.177982030999463
0.177279385005875
0.176358207283778
0.175811974265546
0.17054663258019
0.173832670419268
0.171860824899813
0.172303273450091
0.166898868033668
0.172524670742766
0.170606326874816
0.173816995903302
0.168770327663994
0.168095589629168
0.170302722907033
0.167743535329563
0.163144837992638
0.166730525225005
0.162546326059242
0.164567662254174
0.161249983673003
0.164300607193324
0.161783033975008
0.165872336960529
0.1568392092519
0.159162837455011
0.158470991053543
0.160758216726129
0.157624487027875
0.156489527296338
0.153263209019767
0.155223385670556
0.155315872911042
0.155581105536766
0.156284747747899
0.152499899798302
0.151407894777237
0.154792670791561
0.151335185255951
0.152325699961218
0.151082068449448
0.151978218256953
0.150455656764587
0.151391348452506
0.149375523702311
0.149555428116059
0.146182076371363
0.146734082586843
0.146012454014456
0.148451244611754
0.14611662300321
0.143546218523657
0.1440836938647
0.143792176586382
0.139959790045393
0.145355451554574
0.140267089862442
0.143330655557084
0.142649870615323
0.145495653431743
0.140762190396436
0.144446947318449
0.136049610111214
0.143261684990337
0.140112502639065
0.140423684278801
0.13740781524991
0.141713337135539
0.135581732831775
0.140797060753278
0.134102061685455
0.137663406800871
0.133679241861877
0.138137136785628
0.133467847001698
0.135536889237048
0.132282586865143
0.138338948377309
0.13675515505288
0.138678938087811
0.130780514754292
0.132186741412671
0.136256415050053
0.13446254674622
0.127660041915278
0.132933745987812
0.132371440916802
0.131713012907038
0.130679765018299
0.130447792072112
0.130933840157585
0.133752226086525
0.128994913738743
0.130649230781102
0.130426364720004
0.128672581410833
0.127253792726047
0.131710258208144
0.12726907409572
0.128759704476314
0.128156557968315
0.130815539809534
0.127249812082993
0.12803659473514
0.126179318054086
0.127187994332051
0.122862982920349
0.126884034628468
0.12377757957303
0.127457055650353
0.121236131789032
0.124532121083394
0.121418785600861
0.124724448714746
0.125007277553042
0.124251857362948
0.120949562250714
0.124873638759739
0.121483992380878
0.12256258609786
0.121563503745106
0.122502475389525
0.117307370475318
0.11990441965676
0.120904413809191
0.121031242963191
0.118535296304654
0.120714479741044
0.115213324475708
0.117959053834453
0.119747068139587
0.12071331405631
0.117334224107315
0.11887749563251
0.118657550664583
0.118699910214992
0.113484591816268
0.118561650535498
0.114861462831676
0.119964336941692
0.115073419456071
0.118913849175567
0.114136071234267
0.116110176840578
0.112079024032381
0.114116448343588
0.111220047278859
0.113155472817911
0.117240734080827
0.113368833975059
0.11388599122422
0.114260146132093
0.111312238387417
0.117090842769656
0.112030375054022
0.113097681149516
0.108886248376004
0.113095770276347
0.110654778284323
0.110214124152835
0.10923739983554
0.110554524638186
0.107596118814729
0.10868549425828
0.110100609777817
0.108068264793006
0.10820042671969
0.106732250070014
0.104067362591624
0.0996379167118388
0.107800082689409
0.107157250940974
0.0997631719629817
0.104184024809972
0.104057650284274
0.104228397412997
0.101605774426809
0.107069546950336
0.105329308025754
0.0987415601341781
0.099688179587312
0.102369010347168
0.100058415494709
0.101021605176046
0.096598810148557
0.0988537129429465
0.0963272011715241
0.0964810780389355
0.0947666700538221
0.0992740978275016
0.0960984383809516
0.0991100315682236
0.0965322360718396
0.09919409123883
0.0915538363687123
0.0963470407799653
0.0953928945948267
0.0920041246821863
0.0925392552974296
0.0922889214877986
0.0921707582381049
0.090446750669128
0.0907767111732197
0.0931406609475342
0.0921094116280396
0.0924579973767516
0.0903857975370348
0.0917607162902003
0.0884928093898389
0.0893830915037838
0.0882090576793797
0.090508260704997
0.0874809848313105
0.0890157123604131
0.0882748771032001
0.085398474907483
0.0866432973802928
0.0890072255669334
0.090135804269372
0.0871564069001657
0.0854709630784039
0.086053603473969
0.0845925862915843
0.0858779118418656
0.0844013267703104
0.0824322313963765
0.0830796457094535
0.0856980880170385
0.0827397131157117
0.0838864632741206
0.0808863061161843
0.0854441248215454
0.0800628862414895
0.0817580144149902
0.0830218477225869
0.0830911604814185
0.0789961692488845
0.0800564238981046
0.077518166937638
0.0804623853974814
0.0782678569211569
0.0790943781055894
0.0794574952591749
0.0814546388724787
0.0767069063285705
0.0760259924133626
0.0746878227620879
0.0771456166316553
0.0759800795759349
0.0801106690311457
0.0769017186590405
0.0757392517387441
0.0749157110395445
0.0762467797055689
0.0752732753547944
0.0783028459962884
0.0770918538092312
0.07737416473781
0.0737990321634155
0.0766551597729
0.0738758956937564
0.0759188675121598
0.0731893081938493
0.0746283460862122
0.0736549602655164
0.071844570730224
0.0694591522780055
0.0740269248564518
0.074323536035624
0.0741631586936143
0.0707936576581913
0.0744529852266762
0.0710301551388997
0.0712096052387743
0.0706469329047083
0.0761250881339736
0.0715280303416128
0.0757653044906688
0.0686451662181072
0.0710413805591591
0.065631525697726
0.0690415896615853
0.0653749705284179
0.0769453583961267
0.065861220571501
0.0712919010759412
0.0686499084196092
0.0719526101638311
0.0631594579655963
0.070248748564963
0.0628438242249339
0.0722232078751075
0.0632775551314821
0.0708709020318705
0.0678772970436194
0.0706726529265434
0.060377421912336
0.073421928129259
0.0658212327800638
0.0704808800650185
0.061075270696961
0.0692692904943777
0.0639530647243735
0.0713475551694894
0.0635102344872614
0.0694706673433471
0.0669361881286689
0.0681790647890683
0.0589148933187737
0.0712787011088017
0.0602186149864489
0.0689647687120572
0.0632763620218624
0.0682570399558412
0.0553833682115569
0.0700280982242589
0.0612086411645499
0.0719424997934916
0.0560758221673593
0.0753150551341624
0.0569799780727255
0.0818720766965759
0.0575685441866026
0.0793468095293157
0.0521468360122419
0.0838144792195877
0.0522622657564136
0.0829857385670236
0.0491816498408266
0.0873690612744453
0.0490712320838674
0.0815782414972491
0.0416892454416959
0.0858635169784285
0.0453376412080011
0.0852288714444826
0.0437129308924154
0.0845826198797957
0.0522683061075104
0.0765853802517326
0.0494933347060092
0.0733758396178364
0.0614886354191343
0.0633980992604038
0.0625484458358663
0.0571841645913313
0.0684127524816573
0.0543735489867877
0.0734394536544716
0.0551540322593177
0.0686631875890732
0.0572045883993218
0.0676290748140768
0.0619808670538751
0.060136351258009
0.0633359089836162
0.0575641709513203
0.0636028256162225
0.0631437601217354
0.0600791643467387
0.0613622277707604
0.0637997715006336
0.0628459449325987
0.0587126680496434
0.0627275635456211
0.0610018085717405
0.0635465946664426
0.0638042410053839
0.0617075213216842
0.0603517255935552
0.0582012158040979
0.0631629400782764
0.0613956973108765
0.0597266906649496
0.0627772667442948
0.0612196065027867
0.0622494523076629
0.0619632472813612
0.0620269530698037
0.0630905041201703
0.0606903282114876
0.0616926577899086
0.0609650558170276
0.060174069800838
0.059438746545408
0.0625490817813272
0.0611233554369804
0.0588824278966554
0.062961694381838
0.064599041644064
0.0632614674599126
0.0641633629114707
0.0636959482690938
0.0653350814062276
0.0602078415714686
0.0616441554296022
0.0582475129405708
0.0595325338992852
0.06059181903625
0.0633105733793468
0.0635135218009783
0.0625438872511943
0.0612423150555539
0.0608285459940904
0.0629699442392499
0.0596424118329318
0.0609569298692847
0.062273357424445
0.0618703552643712
0.0620250187100643
0.0617701828127813
0.060383062767847
0.0626353254311312
0.0621235503304225
0.060827329850596
0.0609478837525919
0.0605720505357015
0.0660373766452208
0.0627195918096624
0.0626357936590158
0.0623807251857639
0.0627729242244203
0.0628618970136863
0.0641642328369095
0.0616687318223269
0.0634376199410497
0.063132733800978
0.0630817145295046
0.0609630977567836
0.0619401044976504
0.0609173630297327
0.0620650827019357
0.0630888534435869
0.0639108229198221
0.061693689886027
0.062258085082046
0.063294258386065
0.0612454747078012
0.0644227614774827
0.065565937153942
0.063935504150959
0.0638082974334864
0.0647692628362539
0.0639619746229859
0.0629569578083213
0.0632245804923295
0.0623138492914592
0.0642538859783089
0.0623513557756249
0.0650912218165883
0.0639369916834005
0.0636598482362238
0.064482188803952
0.0647633483521576
0.0657501396205202
0.0640307713417873
0.0645129261025313
0.0642890442443699
0.0644966973137673
0.0674843933022352
0.0644277519978473
0.0661732371795522
0.0655814452550916
0.0647073301018137
0.0643350769805948
0.0648401613103149
0.0632216226465856
0.0661882538527022
0.0659662928889366
0.0652187795715937
0.0660806657611899
0.0653263740650016
0.0641676963740152
0.0665558020033542
0.063999724994297
0.0678648712958587
0.0646261742632504
0.0646683570826635
0.0676388164419863
0.0668825726145911
0.0662943756341549
0.0651512448572384
0.0630244312735449
0.0663132420371906
0.0644610164916646
0.0668347536340908
0.0643852592469078
0.0653665253334416
0.0672597565591833
0.0657189907638154
0.0655881023600095
0.0672750427161068
0.0669821626897428
0.0684307675197068
0.0666620732555513
0.0692068382926951
0.0684444612590161
0.0672314423941147
0.0679659870033305
0.0675376326438672
0.0685491552220067
0.0706563177936118
0.0664153783489988
0.0686830425756123
0.0664403802356559
0.0691685306607285
0.0679974635697164
0.0705684894353414
0.0683489561784764
0.0697924310008192
0.0676087406860337
0.0704048476889663
0.0677187086844665
0.0692087273062777
0.0703208166310918
0.0709761808164776
0.0670751703803539
0.0702074476322254
0.0722753816893594
0.0711549735245939
0.0681549270567559
0.0711742379634963
0.0675953989192486
0.0711731516197935
0.069645045817526
0.0711786431430892
0.0688086502335166
0.0678779251560776
0.0683273723231096
0.0707500631659889
0.0706335060042716
0.0706307881952623
0.0665678431343886
0.0695124783912139
0.0689358185015087
0.0698789027267254
0.0678217724931257
0.0696960836945165
0.069020880379234
0.0708004726640991
0.0665912024695895
0.0651344370658642
0.0677523874346834
0.06704478821661
0.0658782026993303
0.0681026015316864
0.0653599355727182
0.0663749365747744
0.0658706592680693
0.06632838734674
0.0646292333174598
0.0639466116047328
0.0684134714782778
0.0672787780276386
0.06419082452749
0.0651740573572029
0.0624830638128543
0.0670588569301643
0.0667457445449128
0.0674160684070913
0.0640377079019267
0.0656564958212626
0.0642112492596023
0.0655905692344203
0.0643567439533916
0.063571148019176
0.0644262569821834
0.0666340622831351
0.0671603879228968
0.0666407799956406
0.0659745504664072
0.0658212735472582
0.0637850926956032
0.0646082929492453
0.063103267489141
0.0658205618039396
0.0642454865114156
0.0639436924186999
0.0632525128315328
0.0646376664332149
0.0627730766043311
0.0636074934710161
0.0620829398052009
0.0663705118508835
0.064219700893338
0.0624042899553517
0.0630459930729307
0.063126537437838
0.062880883418245
0.0639769397897942
0.0641944022470531
0.0635993457356644
0.0647314694045086
0.0648692629191365
0.061374179392689
0.0641243523021755
0.0629327481905231
0.0652615378318171
0.0636388445855144
0.0630215818565511
0.0644234554450696
0.0635384127788275
0.0643473075241722
0.0651753393170141
0.063378482571202
0.0642681935946758
0.0624238374408092
0.0624394538961861
0.0619880287511422
0.0634187464205936
0.0616618664919874
0.0632501667861728
0.0637209585568158
0.063881409388626
0.0648166024090774
0.0634991154856265
0.0612626789884231
0.0626513237590749
0.0621447084612456
0.064135467472842
0.06202521229567
0.0625606065914703
0.0620868870924266
0.0632708770291743
0.0633648491575932
0.0608491826047107
0.0591940159741979
0.0615358970084511
0.0600620398040111
0.0603751954876632
0.0606241671432136
0.0638516513056448
0.0624602778414668
0.0614217389537282
0.0609307091687396
0.0628366465780632
0.0605325637029805
0.0600228123270141
0.0613274257103617
0.0606179452895265
0.0621903591409637
0.0611977197450744
0.0591369203087107
0.0618743480981104
0.0620015901030993
0.062418085897717
0.060220839953821
0.0606734421765055
0.0591750964810327
0.0584971907532682
0.0582932521041678
0.0600284558552424
0.0581917772070472
0.0612219955471206
0.06049500288113
0.0588494533715042
0.0567949625500742
0.0572131699922623
0.057390105338211
0.0585911197835675
0.0549449692279805
0.0576495896323462
0.059250834285103
0.0556235392468982
0.057177781900284
0.0573992903635898
0.0574050526295648
0.0550495143368958
0.0538773759235312
0.0548505315609441
0.056003882115351
0.05630414745
0.0529764460432201
0.0550113530730792
0.0564912380360815
0.0543582599573994
0.0546509722447313
0.0541851373938311
0.0553336151258189
0.0540976157404244
0.0526925929516766
0.0551652339161987
0.0524488502888582
0.0535330979773214
0.0540717771807466
0.0498882254881604
0.0526958479390009
0.0551119622208978
0.0526277155699633
0.0512482130182349
0.0510555112880647
0.0535956508592777
0.0507977775114519
0.052744066419978
0.0508719887578994
0.0531038693252937
0.0516063716072889
0.0539550129587735
0.0514022706667814
0.0531532168365673
0.0491370388811036
0.0534972117754535
0.0521864775635701
0.0523454080327397
0.0504592363111499
0.0540075994772813
0.0496200574263372
0.0489556500654172
0.0511829236007349
0.0539483914535118
0.050310168928688
0.0508900180464016
0.0511712476177757
0.0506046696223793
0.0516857811460121
0.0521862689595373
0.0491150454673856
0.0534890288706304
0.0524756962430011
0.0525114389785695
0.0497592348250764
0.0512110623204147
0.0511811901557806
0.0500172486743063
0.0506184462742718
0.0493808489196618
0.051337071795635
0.0524920733350064
0.0471186481056212
0.0482284214864689
0.0512324452221923
0.0494369161752748
0.0472058202881692
0.0510873988774998
0.0465641338428816
0.0500551543953696
0.0499939470474132
0.049703012807911
0.048357715369401
0.0499131113865021
0.0499612068866355
0.0519182732195565
0.0471789013292577
0.0470495232234806
0.0536274213129461
0.0473266013510399
0.0480319063911948
0.0469459138162146
0.0488478759393132
0.0491174141180449
0.0467429863237581
0.0478482471132499
0.0497685559164264
0.0496073268947649
0.0501831837292639
0.045816912155226
0.0483531666066324
0.0480077734231393
0.047837257386641
0.0464564880126259
0.0475456819391364
0.0464126719300876
0.0487439253542588
0.0474890375429766
0.0465242433393106
0.0524054781363004
0.0478625580037543
0.045356283694945
0.0500027338236432
0.0411940250131105
0.0519467382507728
0.0463026103851948
0.0478796546482953
0.0463636761500621
0.0459562125257429
0.05047807932377
0.04650133030006
0.0483453072681723
0.0461251772756338
0.0499214297124754
0.0448513107401514
0.049898149809839
0.0464255104293448
0.0505989168140859
0.0470278080408439
0.0477006080082324
0.0472766243221083
0.0508685940469805
0.0472625079153017
0.0478287182491387
0.0472195180357828
0.0486976815683907
0.0485704987309972
0.0463718615783253
0.0453431980839016
0.0496669792226092
0.0448695798159869
0.0491307807450409
0.0481967100426218
0.0460253253073534
0.046360425865157
0.0570913375518453
0.044804660487195
0.0520395402870208
0.045194504566173
0.0515767945040189
0.0489556723976022
0.0495703059571686
0.04605200318783
0.0487035727434015
0.0461815011750803
0.0488354106498875
0.0470406219423208
0.0484991211510125
0.046521328809243
0.0479300723549433
0.0471466646314716
0.0473009627217044
0.0506706735298675
0.0476518975431027
0.0486062308925299
0.0436097979900649
0.0463888926974668
0.0524521817154524
0.0477231958501403
0.0523507934500965
0.0478418897678604
0.0486702760074951
0.0439703094984378
0.0496943054590952
0.0468269852126342
0.0518473452947381
0.0464732911719948
0.0499839536008802
0.0472202009798684
0.0519320691315057
0.047529030770262
0.0517126798948923
0.0461576520301097
0.0515005500876875
0.0427273989960281
0.0494082336883475
0.0423879520293027
0.0530709361179827
0.0434022095154968
0.0524981233226468
0.0440794082006626
0.0524547498021254
0.0388162845751396
0.0543962624291215
0.0542659580057023
0.0456741956512153
0.0528490572577729
0.0466240550867154
0.0501725598459508
0.0488550095539665
0.0498839924622243
0.0509291108754915
0.0491616459408097
0.0492910897639556
0.0501851779424731
0.0502436827794761
0.0533759907396435
0.0464855671774043
0.0444651057057658
0.0558626216346861
0.0501965265879706
0.0541759051102681
0.0508511457576121
0.0474119854755141
0.0584957949224979
0.0498582564360377
0.0533889716742363
0.0508208455842937
0.0497283614917718
0.0528876803451482
0.0506073462534319
0.0493685281448463
0.04981527890015
0.0532309871559794
0.0482689260083654
0.0527507381791809
0.0482243516665008
0.0521998508709445
0.0512849070756928
0.054882339150348
0.0548969219959432
0.0520403801079905
0.0536345865354335
0.0551316796237108
0.0513737909062293
0.0532154404793929
0.0542398410145361
0.0528986334553491
0.0512925551082893
0.0583596258295904
0.0512643329388933
0.0559919753463427
0.0580652828987462
0.0541448833145878
0.0559183222414148
0.0555847844807838
0.058201364667764
0.0530557095165795
0.0477550014429329
0.072110207262429
0.0492240465735687
0.0698015738189308
0.0533429456407147
0.0629602310001792
0.0523765476790622
0.0617057392313693
0.0502494240756523
0.0648824775405702
0.0556010781924392
0.0627971802307076
0.0538106047335361
0.0607762058331065
0.0622372242072097
0.0581094679015156
0.0629978334231542
0.0618009331061099
0.059336941444852
0.0617709523777394
0.0620680129506496
0.0484332140476751
0.0631746515214712
0.0669654296783964
0.0668257022263708
0.0648248820145541
0.0545366605507802
0.0797681309472819
0.0599389544801809
0.0666831075247618
0.0624902290526937
0.0645464529263975
0.0640027335368181
0.0582067168885506
0.0718287206393808
0.0663309041559036
0.0625755630106178
0.0715325910172951
0.0571640491831266
0.0714661064858747
0.0683865004162744
0.0685085167816992
0.0657872514377517
0.07219939997941
0.054914449811774
0.0820610934462121
0.0786466505376501
0.0700448526255134
0.083177147997471
0.0730910884991167
0.079392021868532
0.0733375157609892
0.0776259001502682
0.0762398349256212
0.084092403486548
0.0803528116154648
0.0771465473490814
0.0797789474608148
0.0938718582658925
0.0751615442350424
0.0883709860068036
0.079317992993147
0.0756370041687471
0.0866392633078833
0.103632883140913
0.0949293640114443
0.0950297474910718
0.0880772803895142
0.101226354788589
0.0952143840272344
0.0947910049710719
0.0963604966352563
0.0975729078449659
0.0997535455836213
0.0949879123091006
0.104498858050843
0.104687076879555
0.102723737804905
0.104883737056089
0.0971225047177321
0.106099174120178
0.109658715732549
0.129655960901639
0.102751975546547
0.128012068381711
0.117403560603267
0.116417065983128
0.115158420245652
0.112639401900197
0.122470716851023
0.119879679359661
0.12268860412256
0.118094595422653
0.127793847751626
0.132707841402258
0.119149235989743
0.145205782583009
0.130073051654142
0.143266518655176
0.102798072549972
0.199766379755342
0.146767989554169
0.15121384880483
0.151058782636695
0.138137803135993
0.199103696430781
0.167245645049282
0.172515662008683
0.179190202617743
0.178747026495284
0.182814854123336
0.190719307656026
0.192782997721604
0.202085232586457
0.206987176441588
0.20411336240359
0.207488850823846
0.240611236633074
0.237969355685028
0.25151852465317
0.239075486141886
0.253390555037531
0.262916982858465
0.263676897260916
0.267238749727819
0.276692955900426
0.262939569453935
0.325371125046429
0.288716291674617
0.306965838957539
0.293147217279189
0.32914064396085
0.301628383827903
0.345204706909632
0.343766029984239
0.337594428080917
0.353788842936413
0.349563066337916
0.364422661141931
0.355584707165443
0.385474244000521
0.382522863406727
0.380379732302961
0.386897247893344
0.389677823296434
0.402821635578098
0.402866959884402
0.408682191932176
0.391216280369363
0.430267329685956
0.418613107685055
0.474611883481007
0.442095925080234
0.419760679014946
0.427548075588908
0.418416008898113
0.442320221274251
0.419332763072362
0.44410595481253
0.452116535600476
0.425663261163206
0.440286373940668
0.42525205394765
0.434547897155418
0.428367707799216
0.437918187722115
0.418545998027719
0.43411699449656
0.420376086152716
0.421086554490444
0.469935604448
0.435826027306138
0.436510971353452
0.418321565658992
0.426603608637811
0.422693708698042
0.426073244759214
0.415957452700966
0.43249192831821
0.41251822217755
0.416486751510212
0.408965650136331
0.425446036366386
0.426175243459608
0.399678093626769
0.412102736574465
0.399224840099884
0.39985728625523
0.392494630613275
0.379435680633184
0.424007612507966
0.388557096710507
0.390616987136984
0.381273607381807
0.380364614895634
0.378343930262978
0.380078219395269
0.381241350950635
0.380708917130066
0.371628999852277
0.378413786658877
0.36848733517168
0.365336058648437
0.360684045350326
0.367372400938359
0.363448893842891
0.363196077000878
0.366407278262779
0.359570165895861
0.35941483745128
0.366076828610748
0.362344268083346
0.36257351109621
0.363620262842956
0.358457403703806
0.357624700929996
0.367496376819125
0.355755629651295
0.350108230373495
0.355205281129584
0.356207307742717
0.355948312480426
0.355880855858017
0.358231286125075
0.346211894680054
0.351586070730662
0.350479390757657
0.350745560690984
0.351144533582991
0.352763974922277
0.340921648402759
0.346827131417109
0.323421983555654
0.357791025799077
0.360490022472333
0.331984173515466
0.342645914495756
0.334834327809354
0.339548791919999
0.317699607686529
0.342776496714687
0.340222173202404
0.320231070306441
0.322076997302535
0.313699985196872
0.310418185117539
0.324577790813674
0.305236266772064
0.31174489998754
0.294932562130216
0.314530032394215
0.335543265291405
0.293986251183682
0.33549202257731
0.303551078027476
0.301623707949901
0.284532785697292
0.320926709423528
0.291278588128003
0.301719679956795
0.283600665857562
0.298787909678715
0.298244195200075
0.286344785577815
0.287262517928414
0.276553322040643
0.284228373182541
0.295754096921364
0.271790715783164
0.271119713187221
0.297798780047594
0.271050118375371
0.283166929441289
0.301997967734384
0.279284257380674
0.26281924712081
0.262027425489907
0.259468263978759
0.249262754572409
0.276245921740658
0.256219655166593
0.25883361540587
0.2559294974964
0.244297049219733
0.248510081282846
0.244320981759908
0.24802489419387
0.227427758277856
0.256924176359006
0.230943458878159
0.240608636369515
0.236243079825405
0.237133475666885
0.245504871214351
0.231408353270955
0.22716371255883
0.228440144276976
0.245356554841504
0.221523353631602
0.231663655979904
0.222922506090228
0.214600106213919
0.226364085654116
0.220361816011327
0.212507815607474
0.219369474091601
0.206650709432569
0.223489537353427
0.224117661347731
0.239195639054831
0.22279517403858
0.209203838458501
0.214131361175206
0.207968918293724
0.217524095820115
0.207903484811661
0.217053314884674
0.227252982553602
0.193423773105867
0.23993266856236
0.223421898283691
0.219355029715032
0.223939337102714
0.221266996396534
0.217905514331142
0.233566296043728
0.236338894459041
0.243527618150267
0.23554471601303
0.254157474791071
0.241384178352596
0.253657731174312
0.252555760237091
0.2645305451152
0.258665043486474
0.271580699576281
0.273816422605197
0.278352252234381
0.27899854330949
0.288949570152287
0.291183148475211
0.319595373251569
0.290872953042811
0.327091394648179
0.322463545063826
0.34891898765859
0.342609572109925
0.333293816389913
0.349099993709751
0.350743735969436
0.357011029242372
0.358632733485094
0.35763610500381
0.399086352314212
0.375115685301925
0.38401448808252
0.382079059705331
0.39576734841442
0.389314646621731
0.405435719634185
0.394162043586951
0.418992733364979
0.443644588719965
0.411776187640586
0.41815068420185
0.407939309870961
0.425022920066802
0.425985023406928
0.423192467925879
0.424053245821847
0.42239139338687
0.437916920028215
0.436332547369152
0.437465634036853
0.441714987636188
0.44537499552773
0.449191646900258
0.451704787545602
0.451705458717885
0.4510040696663
0.4533357981121
0.466560101147604
0.444205713575124
0.495435708107625
0.474867552615218
0.472206463933521
0.482492191716956
0.481166811378725
0.490014307910537
0.48145651352879
0.500076308383491
0.50277002294587
0.499096837410304
0.506561611846744
0.508947914500833
0.516648412432319
0.506729938567749
0.528351582957283
0.520528094857545
0.523630089784797
0.516831844656979
0.517528428060423
0.560288682889771
0.526359805793967
0.540487091242248
0.535189460273097
0.549953459134239
0.539132987512229
0.543096826233682
0.547128111617856
0.547921671672696
0.539978875082253
0.546231382049389
0.545363470405704
0.543258029390201
0.548829441305084
0.542751715145032
0.549712285212839
0.550130653302415
0.545747389833403
0.547912658636804
0.544213908002035
0.54231105959963
0.550243601803206
0.545553029270546
0.538772629161508
0.545114109203928
0.533290842916549
0.55613493676508
0.553003731254822
0.532101562441246
0.538041401969891
0.542131331353969
0.542032500442038
0.546834417549606
0.54001719092117
0.561102101025266
0.548746436147597
0.553909341333443
0.558703576187372
0.564033776499208
0.558462545718913
0.557170841084085
0.561699767009051
0.567777523403786
0.564758953965663
0.576445820939117
0.572310157940022
0.572297760928018
0.576926389679635
0.578741457799965
0.583386593582547
0.572239493308401
0.565037175811804
0.567309026159071
0.560129822206734
0.566483863990467
0.562228312062824
0.551790114784421
0.547530009786069
0.547851465643417
0.530261355191019
0.539949283247996
0.525235614953244
0.524859378802676
0.526006276493853
0.519434078899511
0.523517568113422
0.514361283851361
0.50547726580144
0.500178717879416
0.503114490543995
0.497729257822012
0.494616202042738
0.493999834491741
0.49781970935725
0.494210187499355
0.490427085558977
0.487503502421266
0.49007150021935
0.492066100126569
0.487355577420518
0.486062773629785
0.48382534244941
0.485560146758014
0.482656252036161
0.483258437071381
0.486753225311269
0.487555762621136
0.488313213960365
0.483534399815625
0.485138016180531
0.477807445027752
0.485873417278732
0.486421801725091
0.483202758301836
0.481248756445513
0.482556155082658
0.48086852929638
0.485402387648936
0.479015263866631
0.479585769123402
0.479175537477601
0.481817405671575
0.480422704215858
0.475808142771638
0.472618193786772
0.475182846930916
0.479105648532194
0.482725448077983
0.480192368879606
0.475609784715435
0.478172051781504
0.474701974207821
0.478540144338371
0.477189965815955
0.478782359939566
0.480160934677589
0.478216783950249
0.474988058771656
0.475169551662494
0.477647994285548
0.475099370408512
0.470089598531032
0.470793099661633
0.472429976974079
0.4708300839606
0.469041476176073
0.463452545120457
0.456038689996883
0.454651729276822
0.451732646389452
0.445306019909843
0.443530624996954
0.440408815312355
0.435758743871822
0.429945308501846
0.431391861862032
0.424502219174487
0.42192266407701
0.423323605499934
0.419752088171652
0.412977766924555
0.410018314139852
0.415073169137196
0.415068268426203
0.411592509702857
0.410808705655118
0.406041743656981
0.406259739638529
0.409683179328266
0.410081528458875
0.409633413851364
0.406876754287539
0.406382418670826
0.409472331936363
0.409556068848226
0.411423073712004
0.414687186711841
0.41300466238077
0.414249911886996
0.415175148321903
0.417688788131581
0.420081304663846
0.424642377314571
0.427025731076958
0.425265759790351
0.430006562156142
0.431097273219814
0.427956539688288
0.429721893304628
0.434140002168851
0.433407227341573
0.4336754300834
0.441476243162088
0.438121881194323
0.435829500746829
0.434424649239991
0.43262523406725
0.433349731981476
0.430731589180653
0.432610429863216
0.433106631236513
0.431938123000996
0.426227990635197
0.428141469996158
0.428287362605267
0.42521609781115
0.424236620655251
0.422054752223265
0.42111094091928
0.419325906793041
0.418287984421965
0.414981667257046
0.415805117639908
0.416395887177164
0.413276243478599
0.410022112726613
0.409246226683316
0.405531747488776
0.40681298301005
0.409505054902619
0.405103952820528
0.402167420742045
0.401535061583958
0.398301192637644
0.397398286135578
0.39932728524382
0.398076419370291
0.396270422647566
0.395983530046062
0.393784268166711
0.393875022910765
0.392915712233678
0.389030026544241
0.387671229159916
0.38320557948916
0.383090009302692
0.383623346489657
0.379742680114074
0.37357868115935
0.37249993784918
0.36770722018945
0.36705792034036
0.368370176532984
0.362595800500946
0.360058831956138
0.356867691133177
0.35222396880487
0.353803287619332
0.351903877306784
0.351393951866871
0.350965093990885
0.349593155560145
0.349680585882975
0.345258317790573
0.346433739996507
0.346880121466717
0.343808125156842
0.34463223870684
0.342579836570692
0.339681961381891
0.336479307332352
0.333593362427628
0.329700485672589
0.325403958284639
0.320414905677639
0.317505247533921
0.316566798398988
0.311312569318774
0.306064880543642
0.3056716034933
0.306124291325586
0.308719248322996
0.312011683962396
0.314763059241393
0.321268595556814
0.327707179072209
0.339130062911107
0.348309128169518
0.357623733773955
0.371274614034116
0.383489111733988
0.402086041806159
0.416205193821978
0.430055946832171
0.450475094734366
0.463899425292644
0.483343554937201
0.500190309621821
0.515837469902121
0.532097556847751
0.546771501498151
0.56567660443972
0.580269419229918
0.590605027714179
0.600499446740368
0.618635559951578
0.634397701327381
0.645104819361471
0.656838673779785
0.67227522267169
0.678933896506202
0.689702006932189
0.690971485334461
0.702302633435924
0.715935925538136
0.722756585051021
0.727846115687325
0.734375966493285
0.733467882501532
0.736097046013379
0.743138442903504
0.744960315755304
0.737233533375852
0.738945148098462
0.742470747318306
0.740585333491499
0.738389507306017
0.745594837893935
0.74668089403637
0.746452305293425
0.752689260730353
0.755876598649697
0.761330624560698
0.765144280215581
0.770684062918381
0.773965882485652
0.776162296446571
0.788794310768722
0.797387315559223
0.802676144789805
0.811620911307055
0.816454475185484
0.825252623707994
0.837028478929492
0.853095567743022
0.86048577535873
0.872004384414165
0.889905509650481
0.894425472282428
0.908495463908517
0.931402960791963
0.936206387739227
0.938464709307896
0.941680864368024
0.946086004293555
0.952691968931367
0.956244416097846
0.960461757668312
0.955935803580234
0.951112043396555
0.954984021736098
0.946712449935329
0.945540494531774
0.943452910654684
0.936416983740393
0.948180854028028
0.950561164222453
0.961877173063749
0.958625893619596
0.965228640737059
0.978587127376051
0.989690115967529
0.99700586092776
1.03051427854303
1.05116283383277
1.05523946615024
1.07062683307831
1.07644064187403
1.07925697403373
1.11856803043894
1.15309697277795
1.14482873880851
1.16601561936314
1.20403175421079
1.20009532024252
1.22490626124884
1.23970442354304
1.25212986487685
1.2834698937711
1.31032723182701
1.32950315468892
1.35968047908132
1.35816696071895
1.38961068799395
1.4325609021647
1.45416521789654
1.4441170217532
1.53513568500778
1.51307251133913
1.50670353298868
1.53227160952523
1.55836596781431
1.56173800297442
1.54240064804017
1.65248431281535
1.64150972565215
1.57571254570367
1.66074771458189
1.65147005546559
1.60401892342596
1.54714408565581
1.56344960318598
1.57888912769629
1.57548126819706
1.57649366320486
1.59032176473981
1.57145074142004
1.58732314150642
1.53734930131862
1.56890396433507
1.61521593294853
1.55007103706251
1.58217609914017
1.65713629649323
1.56579347542431
1.66808971926672
1.70835040363467
1.65511066616535
1.67724879938715
1.71693914483019
1.77603486988634
1.77053108555696
1.83585498579064
1.86496390389256
1.69790446222351
1.82617649319748
1.77778103981777
1.73891881627491
1.82589868977496
1.8287644878677
1.76035251817666
1.94420015783104
1.90186413298147
1.91961995212498
1.84440702359621
1.88966203112219
1.88775961533895
1.88205473478332
1.86286240475049
1.86004301804001
1.84719252888597
1.91516770329547
1.77820031494762
2.01443927988615
1.89110364094269
1.8980048084547
1.91037050820917
1.83460018034263
1.87207574991615
1.81017241722235
1.88832796701768
1.93474740291761
1.74749329650608
1.71028055759089
1.69013847341993
1.70032305086712
1.65305353800297
1.57346128276484
1.55610402929007
1.46773991043517
1.40217260035707
1.40687615315673
1.29564924403041
1.25165297514101
1.23741216373471
1.2116581725529
1.14689188846321
1.11973160638059
1.09347680391383
1.08682925804274
1.08678671792149
1.05931506451506
1.06191245741498
1.06075479442972
1.0336807612092
1.04123750892253
1.02125996187998
0.998279946941619
0.985748726000466
0.983169403259675
0.961045758623938
0.953432999428842
0.935075987879744
0.919422140955916
0.895169685631937
0.874186508967407
0.851565460044548
0.826614666157285
0.799811110180957
0.779371267075575
0.732977283107573
0.714687869330555
0.689007734529422
0.650418726514924
0.619925522066644
0.599111122184388
0.572430198437106
0.54006210561151
0.510037618558787
0.490593457029411
0.467077483193568
0.442492285894898
0.421037833973179
0.411037586133483
0.394205945403137
0.378604467231746
0.36811391330664
0.357005341313197
0.346976918009782
0.339397397640447
0.332692050302348
0.327608945896219
0.321659516077127
0.319529603900598
0.317618752375504
0.314037204316861
0.307186588488913
0.312476848673556
0.310702815714265
0.313285605826679
0.313670087761907
0.315213511421205
0.314591948471168
0.318984087116229
0.325500153684282
0.327276527729807
0.3247217550871
0.328811156847213
0.32629968501121
0.32373950424712
0.324437784431866
0.317680438546558
0.31875940007669
0.314004324869029
0.311498157123611
0.312493559886487
0.303358893527167
0.303949900764589
0.298024913425772
0.300614203500777
0.297219664413629
0.300405874912555
0.298877020230384
0.301044483526594
0.306477419682845
0.307287114932243
0.308493792164569
0.306960716497699
0.314157963744428
0.315662159875463
0.319320829464478
0.319070295715721
0.321155212661841
0.329003708229675
0.324531259048271
0.328032096059294
0.336785665002784
0.345492429913713
0.339022910470138
0.330435782662054
0.341137761129683
0.342395623359277
0.345706886475889
0.345176145039745
0.337346696324995
0.34552760939047
0.346876975290245
0.350988922388359
0.352594049706578
0.358164703846161
0.36124881740435
0.366750769042903
0.369675124776455
0.378731736955228
0.384769571890432
0.402984785951113
0.410623921780133
0.418035752731289
0.432518374128461
0.444349275675473
0.453328456873611
0.474588833033116
0.471282918568593
0.468910320898122
0.480826686755728
0.48360905804024
0.48047927781259
0.473088861947651
0.476900190077953
0.464061023989233
0.455284359699737
0.454207314060683
0.439698410575406
0.43861406686024
0.42732555372355
0.428194689703645
0.422393830316616
0.418074063727909
0.416183067936879
0.419247229062058
0.418476541836091
0.417667153457052
0.426703786151784
0.422760857823325
0.413752397643523
0.420190732705143
0.420754398624317
0.413256980987067
0.394709464229714
0.394107967309117
0.402248845467583
0.389686094834984
0.394583821026965
0.386484155691712
0.373062328061404
0.375400415961572
0.381766806088694
0.363367772220806
0.366015233541618
0.370075517058684
0.366487282058498
0.36941112975028
0.352546426354039
0.353031091468332
0.353533113345293
0.353967465288882
0.350882816823586
0.341676121348465
0.338223821368641
0.341408026600047
0.339011137566932
0.344281109291186
0.345709627835884
0.340247516779336
0.341693745422541
0.337959579542554
0.335838999031634
0.335785608186718
0.325463665781636
0.320664505261442
0.317042959325268
0.323795211270791
0.311477223063227
0.320641974693048
0.310680590050558
0.310167383002771
0.316888378177566
0.308571108580036
0.317282669981324
0.311658452322053
0.299261219707909
0.307601294672854
0.315734978482743
0.303508842431945
0.306291921432839
0.312353144872903
0.322905625890561
0.310774720094867
0.309009351961633
0.310775079014405
0.309952586356709
0.315328627903382
0.329105523697032
0.330084812922367
0.32207534269426
0.326536178110156
0.330198736225639
0.332557874433941
0.326003740290802
0.3316694146618
0.330857477898139
0.349798750739236
0.342843671571538
0.340309259360524
0.327458069008817
0.365234420218164
0.360413399828185
0.366322448983567
0.35061721133216
0.369260058851895
0.381822503803411
0.384959452359726
0.377333688958688
0.401077880871931
0.394950681561474
0.413734676712106
0.426501518855954
0.431938549494089
0.438018400674579
0.441962625404869
0.45560662262761
0.498730927818587
0.492578013012379
0.520229545119738
0.536622831036679
0.531316526745708
0.552085836229101
0.566803738527362
0.566328817150292
0.579472229108221
0.57540711733605
0.578040577897582
0.584535324254097
0.572446689200085
0.582508864651177
0.630462338433877
0.586374787289444
0.604463838322772
0.57573573214353
0.577869551004207
0.573086195947874
0.575238837968995
0.556264264551944
0.594227058496295
0.556027364520986
0.582361251417339
0.557879189886881
0.546848744884112
0.545419507584792
0.57838164530785
0.546282420461386
0.535406073133271
0.522887806652385
0.518218105118504
0.523152667053024
0.511213727069079
0.50296490365416
0.532555688449872
0.51076808573189
0.505918087085405
0.511868378218943
0.499188720531213
0.484877657363126
0.495876223523515
0.481892610842618
0.46218182694839
0.48547184136786
0.521608916077839
0.489127782832741
0.497059640879133
0.507033087949732
0.520502130797127
0.484320400545725
0.510545452119532
0.510308132749489
0.497483748531176
0.521730176922264
0.498809990801822
0.507963556663072
0.523323825052026
0.495094057390868
0.484278367520302
0.530654826768382
0.503582324602122
0.514835926406176
0.544590301823916
0.540739720549928
0.538210097952448
0.525799207154729
0.51763896365946
0.512635214392787
0.513886705665345
0.550871717762586
0.557466213272247
0.560228707788175
0.547056242814783
0.558366610073398
0.567213401624863
0.501230404020073
0.53918312098792
0.553676936106192
0.527274178546606
0.612109806646669
0.639954671456248
0.67988452921554
0.627919790104862
0.613455534093929
0.738560623909463
0.743066854654528
0.649385736689897
0.662657677988501
0.724473148007718
0.720174411881973
0.783661434418278
0.743423983596405
0.8226607782682
0.749633140817563
0.811594145992706
0.684169468908442
0.76016411777763
0.739740982824674
0.722743491423954
0.64312499265214
0.689686811370937
0.664962668703269
0.6269321630928
0.617887512272441
0.733431267618362
0.675716788429253
0.809905018744813
0.670712375609457
0.628783871535904
0.650926944295627
0.670540435215614
0.677105465625481
0.672271732477167
0.720968789941383
0.720165079064511
0.762610463493897
0.798058327685922
0.621680726370721
0.6829324983591
0.602874418013684
0.604045134073812
0.573215212139639
0.729490902980338
0.787757968469088
0.819011515058451
0.51596495137215
0.831467172357094
0.46649882526139
0.696506215698266
0.663231734780489
0.615381802498624
0.684576176968027
0.979822184336905
0.480026808443713
0.73847158182298
0.824028909030206
0.820957775048973
0.539879225082487
1.09568181205968
0.583022496302208
1.2828755123891
0.639177005846538
0.668818240026378
0.450853405972235
1.16487601663543
0.686214225535415
0.726350798741594
0.620850144134727
0.768027778251692
0.455815488795301
1.20209792448988
0.823890946933299
5
