3596
4000.36533379555
650.420452594757
1
2
2
0.046299763059383
0.0405893993454962
0.0496876099736314
0.033807824431613
0.0503425247494993
0.0408369749023801
0.0483411876423787
0.0388667532492088
0.0489961709534222
0.0392704563645179
0.0593775086926318
0.0429824930147156
0.0483859195126408
0.0382735231424334
0.0586511688627056
0.0425672069947496
0.0492240979764813
0.0403976691573466
0.0545358948250709
0.0358679581626224
0.0481077084704359
0.0363790443632868
0.0523884572063615
0.0341903090918381
0.0477481320087522
0.0416372737543022
0.0456789996732887
0.0392664828247846
0.0571059712662813
0.0470175376796156
0.0634705952111247
0.0333011883427161
0.0470210657665433
0.0333982967983158
0.0510701460355156
0.053180258689119
0.0517341274592842
0.0338601091163801
0.0539515719276039
0.0454428865740487
0.0586328439374576
0.0372032844850837
0.048560214221647
0.0412529004929229
0.0498499490133967
0.0366793187372269
0.0559314643171994
0.0431398605231368
0.0469621669975039
0.0415143193897154
0.0544690964945858
0.0339384272142057
0.0481346763628184
0.0445610143160794
0.0480949313135252
0.0423774973299074
0.047753221099045
0.0383316377737293
0.0547329274400084
0.0385531643972386
0.048710897400307
0.047269441012328
0.0449654234358418
0.0411916744148392
0.0485850424408371
0.0376371445939672
0.0515925023161757
0.034698938115015
0.0432772512423014
0.0406731877664464
0.0443660761409978
0.038341165348072
0.0584157128396725
0.0375581569079475
0.0578091190226617
0.036632342738918
0.0541578647648773
0.0414941130211333
0.0395532249520456
0.0521980117794387
0.0592782440891523
0.0316945126503144
0.0542541520808893
0.0345770485670794
0.041679149194286
0.0433229457626257
0.0477810370633148
0.0282687792895986
0.0572122282980515
0.0458926694893703
0.0532369635202175
0.0342410714182242
0.0479938263388052
0.0363565384713605
0.0473027140397711
0.0317896399188953
0.0492543555559819
0.0316774446927912
0.0445145633764899
0.036932320680116
0.0571297058025948
0.0189569582842892
0.0682180292065791
0.0255086731805995
0.0618354682931188
0.0505113967435401
0.0191576450251036
0.0620387636451882
0.047330929781933
0.038650719705632
0.0443314289844338
0.0408261290295316
0.0448156170246305
0.0389960880109235
0.0418190128031036
0.0279927336932033
0.056032764351203
0.0343646018180129
0.050806608716632
0.033247835540397
0.0364685739074874
0.0185065523296125
0.0722935804798087
0.0296761856155282
0.0469973943450917
0.0403537287543258
0.0423601835528279
0.0337268649701747
0.069848733261104
0.0355394792111907
0.0533257112594871
0.0261927358248015
0.0460138933038355
0.0184024866539895
0.0646978042710191
0.0355276588848874
0.0454542447698721
0.0203740900220127
0.0317865381817459
0.0516076709083552
0.0559403618120145
0.0352734653055055
0.0373090918053916
0.00775489839255741
0.0538151884187668
0.0364555877215592
0.0425535202942575
0.0337531704222787
0.0588198765171277
0.0328206136296692
0.0403036160570383
0.0226079062321925
0.0500942962982772
0.0367188461968224
0.0180056274914717
-0.00550887151372562
0.0981247446178057
0.00200110751319754
0.0879282710471492
0.0343725813305565
0.0425531399740941
0.037079758491422
0.048471249506502
0.0330727104208709
0.043429216213029
0.0255393781454319
0.0352811022548116
0.0564517224372409
0.0432038437640978
0.0281969001087986
0.0419104645202803
0.0247682592104047
0.0148914861822225
0.046655900835885
0.0635540933189037
0.00800759894569971
0.0565112553992606
0.0427965006100726
0.0453118373912604
0.0211061476053179
0.0626161523064692
0.0289988054161755
0.0442881865462555
0.0297721309098067
0.0464857767580389
0.0367868626438198
0.0475612439502576
0.0248333740092556
0.0436555834035088
0.0149185968520716
0.0305849479956068
0.0420040216417358
0.0622449047636488
0.0340989123082714
0.0565962846049449
0.0104402354134286
0.0407051860092119
0.0622424806261098
0.0412767427399271
0.0288893720416534
0.04105278321942
0.0302786155604674
0.0457703892810355
0.0266581531013967
0.0399645306845481
0.00385998488626745
0.0543644209203329
0.0493579233023483
0.0431286633815171
0.0335692706205302
0.037247165606357
0.0221367595646917
0.0412090461895306
0.056630769259396
0.0405100446905625
0.0369033909919035
0.027437073224296
0.0253832148196294
0.0529864982612577
0.0348048298612004
0.0455927761174897
0.0363930980102698
0.0419818235108493
0.0406243520529696
0.0368981722038702
0.0292938667984253
0.0414884463285668
0.0367711413099137
0.0439729076323048
0.0343581442046569
0.0486749849466302
0.0348661186618136
0.0396931614538581
0.029590454884685
0.0404020378109881
0.0243242749523064
0.0580574273322437
0.0345987725846364
0.0465855082757125
0.0258953921652402
0.0440271167857222
0.0330774649539976
0.0444448374564742
0.0283959383304513
0.0432728409447825
0.0252934132051946
0.0635450489132829
0.04588038728354
0.0402467667112261
0.0333676538505791
0.0424712085918828
0.0549762054527286
0.0434962353235896
0.0378598007756762
0.0351329660607508
0.0360971119401571
0.0208968068968957
0.0498644289485427
0.0383674478260111
0.0311995002679358
0.0402163172082695
0.0438691198690135
0.0405474380277066
0.0322056688891473
0.0143951690015078
0.0586058191610731
0.0444394760821534
0.0130074913409094
0.0729244793842998
0.0546461535013992
0.0397157744806048
0.0377539462635468
-0.000625786921408318
0.0799480789432997
0.0786879900346909
0.0364219157195247
0.0357066354790439
0.0457735964333067
0.0499331573849005
0.0279027831001542
0.0438240208391881
0.023114111899038
0.0499127766558347
0.0275908690306988
0.0756700340189677
0.0378234804212765
0.0319126769679236
0.0655405494611844
0.0453797136940605
0.0454464444254993
0.0395225832772567
0.0348883768177441
0.0403989335247888
0.0473477482647505
0.0391468436887581
0.056831521136734
0.031460099445975
0.0499299164198151
0.0540907370009814
0.0393524308568712
0.0439671260600319
0.0463776330140398
0.0425323371041608
0.0399318046849055
0.0447551884642758
0.0396243737067907
0.0435028270091981
0.0212353775395793
0.0682109899393619
0.0474163247874843
0.0423565825236085
0.056907852558762
0.0582997231843968
0.0477523179034087
0.0474827347904447
0.0430945588220449
0.0492732447333473
0.0422133360296265
0.0380918927332174
0.0519097078203727
0.0627351284074113
0.0450469883394464
0.0530677834825164
0.0452622468503871
0.0564954683150953
0.044032969215517
0.0536387224416138
0.0443261735003715
0.0523948987003828
0.0464557789607798
0.0558028378948452
0.0645390016186381
0.0437251244414691
0.0467430310754868
0.0897196949130709
0.0485713599284745
0.0696246832347023
0.0543062055779746
0.0622729713481476
0.0529952368734551
0.0629252997113272
0.0618360066304784
0.0624812378390422
0.0581009543534546
0.071039946609125
0.0522868839202542
0.055094364025273
0.0693059009849466
0.102802932719709
0.0767266507864534
0.0708420986696598
0.0549192394771258
0.0665545321757409
0.0985370612093242
0.0725565768017519
0.0884601730412905
0.077398300916032
0.0809405997904445
0.0881571683521803
0.0813190117590636
0.0853118374882415
0.081041939584769
0.0856019783437325
0.0785520989363656
0.0955135540972482
0.0860681674356085
0.0905176487800635
0.0760274219790083
0.12480483986557
0.104554012984031
0.0981270886040892
0.0983958376442669
0.105632685819702
0.0896634370373023
0.128466447479221
0.0995063355360037
0.139198941094416
0.10167869164555
0.130841335260817
0.113906657064821
0.12019483784072
0.113837127609974
0.133521772717133
0.122045334178254
0.135461025435789
0.127194737588592
0.137024355288568
0.125003998154226
0.152723661415048
0.142765357748819
0.142024216283291
0.138643188451151
0.156464444905555
0.156483124076308
0.151162631830489
0.147908607447816
0.156941351901095
0.166998494357729
0.168099872236373
0.180889602086982
0.172126587040852
0.17961026318107
0.179427518355004
0.181418103095912
0.178385256597026
0.182697106129658
0.192898367846321
0.190985671665525
0.214302193490483
0.192918487910989
0.214080523705235
0.198198187609088
0.203249271583619
0.21134806864053
0.20563864883724
0.230399405182035
0.232869128001071
0.225590451602107
0.236541163683271
0.238182041245846
0.223371921719768
0.237436691398368
0.240383033139092
0.231780103538791
0.250852172460291
0.259244200292116
0.25753031441657
0.255939401256112
0.267668736095322
0.263376840828861
0.275520318281927
0.274605073770189
0.288672874208984
0.278101347028461
0.289278193756745
0.288602451320573
0.29303093985663
0.279320837636255
0.299189564080494
0.297758400448493
0.296248639690607
0.316195006707782
0.304935385982818
0.309438550807869
0.321304641186618
0.319035700734271
0.337554845705622
0.328642649112889
0.3490714156824
0.335542041432907
0.342428618763528
0.337221360765479
0.340863470981945
0.359680975169378
0.381285002321369
0.362190033405772
0.357082757871146
0.363023556560459
0.379815054059598
0.373078319085636
0.397128610265465
0.403507177166334
0.419965505081345
0.420860420296131
0.409761901169386
0.421896120781082
0.407799750912607
0.430694140887921
0.442233533968323
0.425342628921484
0.443894037894914
0.433736962285013
0.455953305602257
0.438831881686883
0.440146233815995
0.456229214967855
0.464238315952215
0.455089651137095
0.473398665396814
0.449521548261414
0.477199918949349
0.47744126721842
0.494934314560084
0.496399532520568
0.506786721285409
0.481909841757669
0.497123832014241
0.494006364483843
0.537156276544775
0.541064167321389
0.540641195240232
0.539389425192793
0.547658012193356
0.556709435690311
0.546590674137718
0.54092158739808
0.566208062296974
0.564580760554537
0.577763275859103
0.572121906606794
0.566365357153426
0.570367382074071
0.578067893015836
0.580657882943582
0.614117602529916
0.618961836451309
0.627646593454518
0.606307883972232
0.620982577590971
0.589498859769218
0.578952820283069
0.641744624617266
0.634443394758657
0.624062013021027
0.646539717992601
0.683895944973816
0.679015639300939
0.672656031099819
0.669289594865921
0.6590794580393
0.664534354876543
0.663424237147986
0.688670887084281
0.713617746592535
0.70550897929859
0.701052540123163
0.71802181995443
0.711269353692276
0.737214001511453
0.7113343671537
0.697319684815497
0.716474851150749
0.72849483901172
0.790272246420692
0.804548139702444
0.736576802220954
0.73801468804141
0.757545063570547
0.744888666857072
0.774880503740389
0.792870938116438
0.784900247523652
0.79943931045597
0.809557835542471
0.840008093880104
0.829969498627215
0.818752278859334
0.861244986315552
0.852650908317752
0.838413695727502
0.85553006495193
0.891519527317741
0.829168109343089
0.862632138493917
0.86000728081415
0.895895092463702
0.847177957162462
0.84987531467208
0.898916968799301
0.91325387637187
0.927952274144941
0.891597849939485
0.938524173912754
0.890663278941161
0.853390715048528
0.948780419369474
0.940937154153426
0.918741667813225
0.916049804383086
0.925112082411013
0.902409305762343
0.944729095972818
0.993776515634902
1.01896183493584
0.983389752153499
0.957216200694949
1.02955618069558
1.04947341916262
0.915267286212994
0.964853175578495
0.974387349368886
1.107187461858
1.07772565419747
0.983343312165845
1.02844420116672
1.06414904257389
1.04305245124895
1.07166441155333
1.15506305705275
1.08806072767854
1.01444388148068
1.12749161684025
1.09020182667099
1.10981553077883
1.06648501965729
1.06832790669872
1.01043705603761
1.04411967642852
1.07747285592563
1.07535261963457
1.14832839646656
1.13989435904626
1.07064996506621
1.13835441921786
1.14732427883339
1.13950217414006
1.09604197133531
1.18350340056674
1.09848461706682
1.17478885112303
1.15383511341764
1.13175278001003
1.16437469588557
1.13123379678629
1.16120500892475
1.2972466311295
1.25469597175556
1.31948680895535
1.13245097271766
1.2664309007803
1.23053903975938
1.21618633539157
1.20253406673964
1.28186409025767
1.22507262930331
1.2826231471312
1.24222584896798
1.27166684514827
1.13667729405987
1.16776215574689
1.16099971693823
1.16741543285127
1.26149172167447
1.21167607875694
1.20553931143984
1.25683090425829
1.18117062077579
1.35739626008948
1.32092469085093
1.17944825911929
1.17075992843665
1.352519579702
1.2652348633332
1.30530635114282
1.38334455069428
1.40131238136902
1.2743738749702
1.36472336836263
1.27706569255402
1.34319227992937
1.35149506581915
1.38609564701056
1.35672573052197
1.64425501393262
1.40816895790661
1.36188164565594
1.36455578521171
1.25275027716566
1.24295615161418
1.45354439596285
1.36035628743851
1.38840266930937
1.34863249763188
1.39823270657049
1.37996614092734
1.34687918336626
1.35508505208453
1.39618510140136
1.32638935912641
1.46270231826716
1.43422317426452
1.39692907553599
1.42339169267719
1.54877318254597
1.32029803361841
1.43787384667394
1.31801468958457
1.36383841059961
1.50717441878508
1.40592795609361
1.3159335644846
1.42784598673353
1.4246135866974
1.49582543958085
1.46936205775096
1.35776884703194
1.32101929548418
1.43550941435502
1.47972587879597
1.48245017798062
1.43989434943094
1.44977342524885
1.43899275534878
1.58894854449413
1.46673159424506
1.51373764714793
1.38823232864627
1.42766925935336
1.41200713557929
1.52067930385259
1.55222521356004
1.51985766406244
1.3752592920343
1.58066013029362
1.40923565366921
1.4209499987599
1.51626414797849
1.53149779081057
1.52281614792065
1.64562766333466
1.41899781975019
1.49408572304836
1.57843224102362
1.54593162509222
1.41814610150429
1.75253146803519
1.51250894713226
1.44664776917132
1.36956232113107
1.40175786995682
1.34006788867358
1.42705503849793
1.34674914178188
1.50813248113666
1.51477502352165
1.67049741362552
1.53173252200183
1.51382026561445
1.50212980532554
1.48772588303504
1.5784393202634
1.54668052722125
1.41442913216714
1.56101763393396
1.50614577161734
1.6546096843029
1.39218855085516
1.44844139786072
1.437908759429
1.41508057757114
1.47676579127151
1.41875603630471
1.39675982565314
1.42512284288396
1.45207475265744
1.57432602275828
1.69838059945446
1.45429116879677
1.35713528960329
1.59235198148912
1.5257217560009
1.64569494234981
1.54733340359853
1.51603643410668
1.41185450448051
1.53122178274834
1.36861257993622
1.59134784566439
1.59244160487167
1.64765536235151
1.5814559073813
1.47344985607921
1.46994282865111
1.49783474937169
1.38474732511112
1.47159405535805
1.39707678503446
1.43816639116553
1.4034632818949
1.55921817435784
1.35488521866806
1.32688499757441
1.45941113970556
1.71262128648036
1.56979064816804
1.56256005068911
1.39551864501328
1.43900726529379
1.49335865607268
1.47592922713588
1.44855964690563
1.52875093750249
1.48043389154345
1.48258185664749
1.45335898306025
1.55773057626706
1.51819713056021
1.66391703298174
1.42399050404131
1.49956290967884
1.42666191318668
1.51359658226894
1.39299560695778
1.47308683269062
1.50845536308611
1.47832163775454
1.36573900292914
1.5270017245002
1.3982738540013
1.5044768396357
1.43216030461288
1.53251313405112
1.39777612682829
1.38673184635942
1.39296414017561
1.43200743609083
1.39830620091801
1.44989650524842
1.44479533611986
1.61192934163939
1.31853440444673
1.50557827210124
1.57134930559175
1.48036149634505
1.35913292558783
1.48307937407947
1.37454938533593
1.55986228815713
1.52809382162762
1.49441347686462
1.31798340555722
1.35519838932331
1.33610162812259
1.3639423366558
1.38204808428091
1.39364042525578
1.35399019101524
1.37847681555323
1.35160309008935
1.42978566189754
1.35213350683548
1.44023048344488
1.36502608236833
1.37186443645326
1.31821758771865
1.40148669604067
1.37696748852257
1.32935703393636
1.34432514563612
1.33762905965235
1.3287716065215
1.30664020961829
1.2946532051975
1.32079527257277
1.23689779057252
1.46469494727596
1.3910448257517
1.32574985347361
1.26501888067763
1.29483876909396
1.26457638239687
1.29494444931762
1.26955397921784
1.40090900069961
1.24795095794161
1.29433869031481
1.26458633563806
1.30047471971623
1.23345307515144
1.1990935188503
1.26745737707791
1.28967426985159
1.25864548566102
1.28500333233632
1.23946589360715
1.23467259493254
1.19081238808512
1.22153544113551
1.18917263157753
1.20491634793529
1.18630358752123
1.28162568832159
1.1813855799647
1.16291959968156
1.22005687006783
1.20899009949082
1.20350827717094
1.24266043604416
1.13934345336651
1.14251285770394
1.10803779635176
1.20539778654738
1.17942946257879
1.18260809062897
1.11820553903484
1.14092052672921
1.11676879989702
1.11636407106473
1.0786521128144
1.12424441694797
1.10366140568815
1.18930566495489
1.10912695219757
1.14306692638721
1.09794415742001
1.08555225531802
1.10391746296429
1.08962457627316
1.08063659544075
1.08518994492945
1.04871040039216
1.07300272852239
1.03742719594966
1.06487047474717
1.02809289877911
1.02460129999228
1.01146849962282
1.03886554045003
1.01233724482931
0.990789614251894
0.994878281522914
1.02925161363218
0.999943765893262
1.01355693252437
1.02053706675912
1.01728739793868
0.99269299496346
1.01376260028155
0.989052265485152
0.971949458790261
0.977811332127795
0.978243780978484
0.94056180393793
0.955014748145795
0.928581217171957
0.949768043241376
0.917904964214199
0.942022803036083
0.907129453871228
0.945137705504449
0.906391953861325
0.928905873397067
0.906395960190993
0.87680320247174
0.886386411432282
0.920333535025214
0.894737988315335
0.884508877889472
0.858326446939409
0.902670882494013
0.858368328305664
0.883572859414117
0.852726322516783
0.838516852536968
0.86084405411138
0.869881280655646
0.851089847157801
0.834351380056968
0.822096829792979
0.824702242133564
0.823140814144182
0.829956910172034
0.809374482637946
0.822794472461781
0.800200168959176
0.823154268830221
0.809376061303121
0.799434580151111
0.788301326567651
0.803973606893299
0.790238614197296
0.782879919261788
0.760196258220245
0.785923789895155
0.755016494609649
0.784566453525685
0.756995918952145
0.770700889722049
0.740707547833966
0.743320597536719
0.743912747435515
0.758208115099647
0.72535105416117
0.731061046965435
0.714871451179895
0.723642515849779
0.70632521323472
0.727991796528325
0.701978348681123
0.714171503698318
0.712514760355438
0.705877299386755
0.698281127806035
0.706557530762011
0.691248355135848
0.687218377058104
0.68807949841989
0.691105290850956
0.661987130596185
0.682516338017735
0.6768103391524
0.66130189928833
0.660879139274445
0.656408501294273
0.643449828018615
0.665519808100892
0.648192053714582
0.667381251276479
0.638401929088356
0.639697064934164
0.630186880771468
0.628455959324092
0.61304321957594
0.646502788471204
0.6210811867647
0.626560905979455
0.627201210219245
0.610641807869798
0.60385275522744
0.622578737304754
0.594709334116182
0.607475293244602
0.609526837869121
0.597370973967031
0.58212271030404
0.589980179840062
0.573115212199452
0.581033497491871
0.582367409719543
0.583360732617499
0.576094800259593
0.576469648192458
0.573540507523098
0.562202069970879
0.561464089463827
0.560254484725123
0.548283462989682
0.550343568747534
0.542102459749086
0.543142301850073
0.543902215913802
0.555987212656129
0.543431353070579
0.535712813486712
0.522069259616143
0.529922887741461
0.51537955336088
0.523626578579404
0.52175338740002
0.516439534635199
0.513719263001239
0.51848388148273
0.517934009715261
0.507065628169673
0.505895175573625
0.511139589831757
0.496940983513916
0.498594717336237
0.488370527498054
0.493138214700798
0.488406535308669
0.486980843337211
0.480001597628391
0.481248120370434
0.479125621848355
0.47895998796615
0.467072649380043
0.470054523216809
0.456476106824393
0.473272891088187
0.460688053340314
0.463207487503882
0.465727457075475
0.458970134175338
0.458589523306405
0.467621114106151
0.454892391665574
0.457604758102442
0.46477390906135
0.452734753322469
0.441561490649506
0.455504747705276
0.445136991566689
0.440290262447975
0.438528711613985
0.443744402465247
0.445281877164925
0.446427120399887
0.444783768079408
0.443820489017187
0.432892137072511
0.442017636041454
0.44344858955163
0.437263140006206
0.447358674444212
0.450038517567079
0.440735073836055
0.437556329236337
0.433554497658415
0.448000751326951
0.442483066797643
0.445252074357807
0.441046396750847
0.445656896540777
0.448539320278201
0.447720351834995
0.462690378764047
0.462082109815034
0.455994526957477
0.471446729770023
0.462156132393421
0.465964231020434
0.461862748122421
0.475639265303613
0.467058149519851
0.477117203158578
0.465112351315959
0.477127075788131
0.465613398509239
0.479064122204442
0.479867154494227
0.484090509980811
0.476933616394874
0.493209053608278
0.49223301836889
0.493764839309349
0.490408566126999
0.500079738545495
0.494844443374038
0.500924704994534
0.504466751897114
0.503248818755825
0.495703523966871
0.526295268299785
0.513237696016186
0.534271563569187
0.52189619743574
0.519657719079512
0.527055065793583
0.526422843396089
0.53146849713669
0.542184924002717
0.539865157128523
0.544497019253066
0.552390540395055
0.562178938518106
0.567393840330753
0.561657853118988
0.556694663711694
0.562924114043894
0.5700759330199
0.591895895424968
0.583030095030542
0.587183558561152
0.57433285754231
0.592010069987655
0.579252498101879
0.584115373721999
0.592612679610798
0.601515713029277
0.573912659565681
0.605935863054908
0.574869729425463
0.592006579382235
0.592712492511406
0.602262882884654
0.600517058097591
0.597033761808511
0.58010690357097
0.600614713429202
0.581554863897203
0.589517155965039
0.573765975781905
0.578168281112848
0.591974148855864
0.585629216873055
0.584627130826279
0.59264748735854
0.56903437717548
0.587219531884457
0.588698169713233
0.594831027667321
0.569646644108083
0.578610539305331
0.584312435447025
0.583431597194148
0.574045464550947
0.592847215881448
0.587312580595159
0.600020142466909
0.578338194282472
0.60026140741762
0.586167349763664
0.578463871690706
0.564154744876178
0.594032439531334
0.576762118673311
0.588550874580925
0.580444303957837
0.583311812840564
0.585043365142626
0.601712364910225
0.588535959203663
0.590026970331551
0.574176640277216
0.595018059539825
0.574488361573514
0.571906794767286
0.565884727059073
0.594794880066223
0.575887644480733
0.583788702272763
0.569182984572388
0.58144894485069
0.562520025358578
0.571521770377543
0.565907219456817
0.565382677435255
0.556618985338905
0.570577278041343
0.557926402176929
0.554441736509009
0.558141617204137
0.553920059848501
0.551964364639902
0.559171098232136
0.536024362751895
0.53871967462893
0.536844529520454
0.543457288783943
0.519492270606151
0.520232631596448
0.515429591058176
0.514977480662742
0.513549521375453
0.512495131437564
0.496685579301331
0.503747318983932
0.496527311469913
0.502838410897694
0.501674512664615
0.488111151831464
0.479355718195513
0.478609517424304
0.468584650452888
0.473235577894652
0.461054474580262
0.4667276408944
0.458444083897346
0.447908156065393
0.45100108438626
0.457344898994331
0.4486378759501
0.44721043758396
0.436698895455321
0.437584558442418
0.427004959969199
0.435081553082958
0.425573978309643
0.42629091618169
0.419601729449503
0.415894629213819
0.403164031870078
0.4085665230502
0.408979297255949
0.407000648712899
0.402474124259038
0.413868429990544
0.397034122017037
0.3980317219571
0.399454981179481
0.393593945833212
0.386447808434806
0.395047345039713
0.385582583147245
0.391648451392907
0.383746013391236
0.386955595087725
0.375234106947199
0.38276065733051
0.375965774393849
0.381312195446123
0.375227853272127
0.369812248833871
0.370056171483518
0.368829680517937
0.360042932679454
0.364475125570543
0.362328801399362
0.364225702998367
0.359870346632458
0.360150242884819
0.356347910034398
0.358153864350935
0.356744374399517
0.352878688571516
0.349690263529887
0.357970600304256
0.348518816275276
0.35810982004045
0.343838435550205
0.347327499384268
0.33703836010739
0.340249550725511
0.334699098443877
0.336325099143851
0.335843175623849
0.33416727755327
0.339107564011675
0.32997243058232
0.325723518795384
0.337078693067949
0.320049381751024
0.329173274654831
0.328355657285247
0.321480799797901
0.329624194000545
0.327705224661382
0.316002353207021
0.317769539850447
0.319234359066376
0.328598018562137
0.319025388788787
0.317984627930192
0.317045092417074
0.316887316581291
0.310940620503577
0.310534084975836
0.311081790249386
0.315943149302463
0.306405016577403
0.307605884635129
0.306463111560158
0.310491038708121
0.305992808369529
0.308817675470686
0.302773614431507
0.306899210483362
0.306634890184972
0.296415847249471
0.299902606556655
0.308099114732928
0.295665924292756
0.299370910899726
0.295342757457988
0.296537253015728
0.289957107812334
0.294685481683819
0.29048840197375
0.300210374394328
0.291249590706304
0.293600846404208
0.285579492856041
0.291384438243139
0.28650454806488
0.297496296335611
0.285693138638354
0.290129073292748
0.288271870692171
0.28957037703476
0.286341731497393
0.288111435956086
0.287040236744458
0.287209248813617
0.285233348845464
0.285940841414076
0.280729842273311
0.281685726110628
0.280558038294067
0.282694199895686
0.283845935497994
0.284423739919078
0.285213865050448
0.278760327801295
0.279247836837192
0.280796890865399
0.279332762928022
0.278121112134478
0.275208975684513
0.281729517500924
0.270061170581591
0.275860619872481
0.275050554139843
0.278303674342214
0.273519205705574
0.273316505242264
0.267654374515708
0.271661285596356
0.271820592256997
0.27258335680213
0.269453671736148
0.27048953059995
0.265082005065278
0.27090701319406
0.263719825692239
0.268671451622772
0.259949880889175
0.266216621673995
0.260266028388067
0.263189451667773
0.261026357991823
0.263674892999867
0.263749999989614
0.264307526776762
0.258127441708262
0.259232220093304
0.251974085271313
0.258849727255348
0.257287840388252
0.258755268422513
0.249161256793074
0.258088862720169
0.253085765803152
0.254812494708501
0.253286899565079
0.249073404586766
0.248818183685863
0.252523426539569
0.244872201240177
0.251096207213449
0.240723838881248
0.248471328941828
0.23837415353729
0.246956936444545
0.246369424450582
0.242682488988289
0.242047966419165
0.242977827034749
0.232469520779183
0.239942799349419
0.23485514594764
0.239514697244767
0.238213487559008
0.237391731417335
0.236595631019439
0.239192998753661
0.232811449019777
0.232452380029207
0.232261293881574
0.232703820895628
0.229308434531554
0.228023331473065
0.228433329339219
0.230948500756956
0.222480691202517
0.225715290762589
0.220439570426112
0.22291381429948
0.220339461331256
0.217332876248407
0.217620804892278
0.219010582843765
0.214203708422108
0.222485019459622
0.215314337336305
0.213727924263673
0.210551944441261
0.21238092220424
0.205411250580295
0.213467616891796
0.212725847469393
0.20888627302637
0.208051439822236
0.210110884190526
0.206187386420118
0.210935653076256
0.203153781530038
0.209719742467281
0.19666346819538
0.200964241152357
0.194240862624604
0.200363172175556
0.196722691786747
0.195695513292127
0.197550697831644
0.197247652853389
0.195711200588317
0.196241386792266
0.189300122641707
0.188700828682933
0.188714806323136
0.190982445837913
0.185109122515128
0.186962384555068
0.184434126456599
0.186733147395359
0.183684433932239
0.185448651829631
0.184387030010402
0.19025587648005
0.184342058722706
0.182832300317905
0.182081717913008
0.185781376994958
0.179317980373265
0.183283544666067
0.173890721333772
0.182456256636509
0.174197575384517
0.177145392148498
0.176735000069483
0.173155407642304
0.172482524988789
0.172596221045383
0.170706937626476
0.171398446844317
0.170952143203606
0.173191650910825
0.170910182018118
0.167794908964303
0.16382780430068
0.16802156026935
0.165051687496313
0.169351422063315
0.166088299239246
0.167825070259697
0.164348699848479
0.168960401412546
0.16242817448868
0.163485126298691
0.158588435381891
0.164481096292948
0.160646634145014
0.16634160399141
0.163248753885977
0.162969742274331
0.156827747428971
0.158005394328633
0.157347465548967
0.159587680262403
0.1572629959788
0.160184430984671
0.158193274598985
0.156790408968224
0.156072278174965
0.158550581071252
0.15124808280129
0.154397809398375
0.153359405885739
0.155608649701689
0.151172181659823
0.153304167863841
0.152828300685457
0.15536708576108
0.150857490436154
0.157684776660203
0.147434392446993
0.15008406991722
0.146554731666355
0.149458379622391
0.148526046300133
0.151405931711001
0.145997809330623
0.148555521667615
0.149078722922882
0.151866411290982
0.147693618987432
0.147470971001109
0.144370286023582
0.14772419700328
0.143304609971231
0.146692292582541
0.147320812075359
0.143774992049833
0.14775819102469
0.148177866920237
0.141676357914622
0.144872821906316
0.143909121398665
0.143977513744344
0.141093994749355
0.145578060230984
0.138855393196048
0.143211563463701
0.139533262044095
0.144031167362947
0.139731831972621
0.142553335464947
0.140667271966249
0.137197310045758
0.137807641865395
0.139987031914169
0.138879542930331
0.138884536780319
0.138189713839198
0.135474861057902
0.138482346100354
0.13959926780282
0.138340516614736
0.137676959831631
0.132725721723243
0.135841495351662
0.134852432061913
0.132728390343478
0.12913984472857
0.135048598477873
0.132277942464165
0.131206894648215
0.133033193706651
0.129480511306362
0.130838635274637
0.133148694983931
0.127126551135044
0.130513547787794
0.132537622831599
0.132185727343539
0.128196347859292
0.130805898859511
0.126258108426795
0.132992585295484
0.127239501679427
0.127556868289427
0.125023450005462
0.133333180025134
0.126310367942065
0.127764756614099
0.126734521699188
0.127051271451283
0.126821957210017
0.127688161242233
0.127571426597717
0.125745539237869
0.123424131915721
0.123937314118718
0.125234615540034
0.125436633599537
0.124207515066713
0.121502793068709
0.126405265982544
0.11782315390317
0.119680211032597
0.126679286297212
0.118053674077386
0.120723718404293
0.117840910928133
0.121712916579762
0.118948107923523
0.121515853720629
0.117749936708883
0.118624187040066
0.115312363970117
0.115079665650288
0.114574942898286
0.116007687804363
0.114183696689733
0.115718589783941
0.110490435566152
0.115699378091811
0.111117516875358
0.115259057164257
0.113193763213914
0.116848460228415
0.114078662839654
0.112478177390127
0.109636781400931
0.11042911618128
0.110940819764981
0.111571063268572
0.108106076025571
0.113983105695732
0.106653202291268
0.10519574522729
0.103799200325229
0.110026598926011
0.106608055131973
0.109120512692613
0.10403723579819
0.106626955939403
0.102701381095384
0.10758253963362
0.103890075534048
0.103858883343215
0.10087978136503
0.100981556537491
0.101655558323151
0.10317739918886
0.0991032314754776
0.102750059865975
0.100070549410644
0.10036938334836
0.0976661515669263
0.101703707404434
0.0968679227941733
0.0992139584579362
0.101719531601244
0.100206351070472
0.0973730490971534
0.0987630443531116
0.0950869340192236
0.0983923311633097
0.0944937902890043
0.0962857404044457
0.0950453680154843
0.0997167421538977
0.0918814103245998
0.0956514786422724
0.0921833042555436
0.0940461159963439
0.0919496284769137
0.0914381930120307
0.09276598047307
0.0969756093569868
0.0922476965259276
0.0944436573535757
0.0916798940351418
0.0889226245359121
0.0891276944951612
0.0922847692556046
0.0895357051614402
0.0908112682642626
0.0860486569312649
0.0864201472243823
0.084542075720827
0.0866041083602051
0.0845258475480621
0.0887059249287073
0.0859165539005707
0.088549729661843
0.0842424228208346
0.0847604768077364
0.0817957837801229
0.0844512493159496
0.0830099756589367
0.0879920096277287
0.0855317813774776
0.085204218592469
0.0840315367779641
0.0855224038945599
0.0803714858494783
0.0845707451312977
0.0814488696268879
0.0835117691237016
0.0826707489047841
0.0842759561657974
0.0825711433652113
0.0845288903926302
0.0795058691654911
0.0823997868086457
0.0787465653478817
0.0795817191758117
0.0789592286177478
0.0820629981401306
0.0802976579627847
0.081726168193044
0.0776630181510594
0.0822178598207506
0.0799054717127161
0.0821361020319444
0.0805248719269096
0.0833794950754353
0.0780383317597858
0.0812011975653577
0.0772391329380616
0.0772252382222891
0.0761826614310473
0.0758011331696126
0.0771674783811269
0.0769097023524125
0.0794160410779184
0.0828344553058685
0.0807775356904165
0.0809969708421408
0.0721833374192891
0.0789602662979251
0.0759355567025716
0.0812249723306023
0.0731660369788972
0.0801322126176121
0.0748269981244224
0.0749614256439798
0.0753680367843268
0.0807693366116221
0.0754903675635858
0.0819792530297622
0.072154036091777
0.0773941629311599
0.0722227859630776
0.0777623972063257
0.0729899372173111
0.0741475119491821
0.0740808593460384
0.0728554407515947
0.0673093559901999
0.0760392436619138
0.070499919030657
0.0731431979909805
0.0704507383686267
0.0743929502857882
0.0662369828491319
0.0808375925382956
0.0672164430784917
0.0786367563851135
0.0648999451205251
0.078072765543921
0.0633589207766292
0.084421911897733
0.0661677816048027
0.0854941864898609
0.0588394043629808
0.0886612332206962
0.0536573418095025
0.0889825733884882
0.0568460655205673
0.097992556646725
0.0553355442321
0.0967774938985111
0.0483578097281479
0.100750995240178
0.0507518333154498
0.0979363249436829
0.0454106266902039
0.0994870931972549
0.0545037547442579
0.09438431913341
0.0539300927853878
0.0839161515373539
0.0685074704130972
0.0742929920404097
0.0693875615189665
0.0688648953598688
0.0761510204142885
0.0652476014681466
0.0831885725375136
0.0629215096934653
0.0783573927795315
0.0643010202599772
0.0726561116545228
0.0692319875548829
0.0685425592771885
0.0726837726819445
0.0700817580747046
0.0751931362226222
0.0675485448782179
0.0709442436695308
0.0690439796339236
0.0722154791547322
0.0726235621940799
0.0699932526350084
0.0706663596655952
0.069826919035831
0.0701072329239823
0.072089980762034
0.066311128882394
0.0734594702436824
0.0692692842736714
0.0704377179729673
0.0680765979874445
0.0713070779676307
0.0723804281049282
0.0709434493481865
0.0685764327435895
0.0719367919653882
0.0688605963770176
0.0693414792017035
0.0717405530512715
0.0703123375044284
0.0700496363262668
0.0716515141566862
0.0710337391067365
0.0710139785650606
0.0681584219792834
0.0693901638910118
0.0684708532223843
0.071249359686737
0.0712887072874131
0.0718146817703492
0.0686775437030508
0.0705011751207567
0.0704854103833971
0.0710633785628357
0.0711956427725717
0.0710514339692478
0.0688122295818829
0.0754147803853813
0.0719026665998588
0.0748423503042421
0.0714967610865382
0.0714002452488394
0.0702330840877262
0.0707183672946341
0.0700687527271348
0.0711527674179134
0.0717994493516486
0.0690556347649083
0.0731048957244278
0.0708685789013544
0.0694003166721864
0.0711341484546896
0.0726625675975432
0.0714296906643671
0.071307155508631
0.075459664310113
0.0731990136567012
0.0717886452282608
0.0717420236857637
0.0744915655345248
0.0714519279297333
0.0725399700717174
0.0702109580386871
0.0733150175253387
0.072770157013919
0.0716040032662246
0.0702839688609993
0.0734916361939361
0.0724892151351186
0.0707186518720497
0.0736892580190373
0.0753954462480295
0.0717295264138239
0.0761579563037549
0.0739039435290541
0.0734260886757027
0.0746430494452881
0.0739925862540877
0.074506437971794
0.072865379766113
0.0725119057523201
0.0737522796381267
0.0753095091562107
0.0730500602535479
0.0723732140003903
0.0756133081196566
0.0699943387369763
0.076282501028386
0.0718963502619835
0.0751571642462341
0.0748677556700166
0.0770531047758183
0.0747391283513224
0.0756615534671226
0.0750356716617604
0.0759428391116334
0.0766903909671862
0.0783715201875021
0.0755508616527557
0.0781026534520717
0.0768337313616366
0.0739194102084013
0.0775476868890362
0.0773551745969211
0.0746921102618272
0.0777785711164599
0.0763397076696108
0.076969034421834
0.0778566207318579
0.077869875309628
0.0778937650982814
0.0786882691031564
0.0762188944118702
0.0799414723230027
0.0773734532434977
0.0749053864615377
0.0773046185192206
0.0779000156952179
0.075046853511334
0.0749629715444033
0.0763587765253265
0.0781699538561866
0.076848865426367
0.0779217678655498
0.0789962856518666
0.078157576780179
0.0769102346096838
0.0787170734365397
0.0772607909446662
0.0788674795106445
0.0765394496281425
0.080691610904888
0.0803798787380192
0.0809839323469309
0.0806743135509689
0.0792997515607754
0.0781293491986651
0.0805665530211285
0.0798686962432873
0.0799781328546767
0.0801114405052201
0.0809544750853203
0.0805887070310128
0.0822097653694207
0.0789614407785665
0.0802973119426287
0.0826697986777142
0.0835656749686802
0.0827111118742702
0.0819285166693361
0.0817591530630771
0.0817651268893796
0.0847256417219666
0.0835039930414242
0.0817862566886612
0.0821571985553186
0.0834104718927019
0.0847031111980078
0.0823102596032869
0.0836072337386174
0.0796143354625675
0.079186539508467
0.081653829196456
0.0840112585271264
0.0823392953112303
0.0821247278479301
0.0806815327875378
0.0811165528345802
0.0822706209162624
0.0845619144522169
0.0784699382975735
0.0802170311277928
0.0823352380853766
0.0829558989313206
0.0806446702720649
0.0812052703747119
0.0807140560535545
0.0839594701053217
0.0801824915032141
0.0799534734081111
0.0801235037123751
0.0801985278930996
0.0795723768643483
0.0794173995294754
0.0792580247211473
0.0792463349793408
0.0781156634147327
0.0808669506279566
0.0773870740492543
0.0798676459605099
0.0797886055422201
0.079440899158999
0.0747637664470316
0.0776520355991967
0.0764474924666207
0.0803341597024402
0.077246078114289
0.079044241179653
0.0771601808882973
0.0770149578772052
0.0780795980691548
0.0773244365023097
0.078042568584105
0.0771133011269461
0.0762224092231057
0.0781283274590364
0.0776448458734779
0.0769468736325801
0.0767975585948567
0.0763399499788704
0.0754407022090497
0.0774647889778122
0.0760484098374449
0.0773068048184585
0.0777911147219863
0.0782924073191777
0.0759589724233484
0.0787008101376328
0.073814054475284
0.0766794983537147
0.0730920075920991
0.0764331672451362
0.0778568412069201
0.0743532271491103
0.0743102821368329
0.0764631692873518
0.0757759946783731
0.0758817093912318
0.0751771329728903
0.076726850339433
0.0728184388272991
0.0750707697708175
0.0734829596277951
0.0765720071537695
0.0718769082043712
0.0743272887730253
0.0738285574785793
0.0755923596574617
0.0775670033215148
0.0785559299515391
0.0738980344535296
0.0784787592157535
0.0758129582431534
0.0761575584681427
0.0751425481789609
0.0723206376454446
0.071927637487732
0.0735170324877974
0.0740440501359573
0.0750076585150615
0.073537899190564
0.074962459959628
0.074691778954045
0.0753080916472073
0.0699978125396146
0.0745581609559086
0.0742486446023914
0.0751911842597444
0.0710491312711723
0.0730370742642201
0.0691381039398197
0.075561094092472
0.0721117804621824
0.0718579912389457
0.0699754701643967
0.0739735675503303
0.0707995329703913
0.0722141732119539
0.0717771144911838
0.0752945996535426
0.0712340530519711
0.0749274265834921
0.0712801099198452
0.073734157779174
0.0702349272751386
0.0721816731215632
0.0709596294234662
0.0686619099152642
0.0705297456743701
0.0727737002098715
0.0683369595580056
0.0695357074628895
0.0715022208780274
0.0727688067679626
0.0688578948812061
0.0717628114695672
0.0681435069679416
0.0658363646590636
0.0669804462490105
0.0690713852984269
0.0674686879588512
0.0703971512322357
0.0698893295432274
0.0700337838057238
0.0670722652528052
0.0685857407980744
0.0648110157693108
0.0672265179943445
0.0657639929957687
0.0675208884929986
0.0676122418248605
0.0656289079873792
0.0664880210061694
0.0673935615841443
0.066240666675508
0.0636892022540333
0.0649079644665345
0.0661542058838344
0.0649568800095753
0.0650772253819873
0.0604408158330395
0.0629334433612829
0.0640237645719267
0.0642915509139496
0.0634829885328419
0.0636336787785795
0.0616618824132448
0.0610465669851789
0.0600587343096265
0.0602938296730695
0.0608702849842222
0.0625049493497209
0.0602280508772798
0.0600287723109246
0.0613089187159053
0.0647049455966163
0.0603123504732133
0.0606296391165297
0.0586757754767115
0.0627104856295807
0.0599728686295405
0.0633460843185265
0.0581011905878306
0.063663323864914
0.0591071074732245
0.0616269761465799
0.0587769003056208
0.0616028796549408
0.0569234511860629
0.061500208645687
0.0594537844589715
0.0602048591596273
0.058185325110037
0.0623450881744972
0.0580790200158214
0.0578211485396919
0.0615784531438711
0.0584320672654945
0.0581970860689166
0.0602945998571531
0.0577730532036647
0.0600014761425399
0.0591802866635431
0.0590596455544643
0.0541578239545657
0.0584469321357319
0.0591939325720328
0.0602274590797846
0.0554966727248801
0.0594536672200034
0.0553465483323036
0.0591746270673572
0.0576574431700526
0.0581683112472002
0.0584931708574748
0.0598255685094355
0.0564954553756377
0.0562119678810605
0.0562443480765226
0.0566902935735929
0.0532941844797507
0.0590557054252921
0.0545845225987649
0.0566868598427543
0.0559761743930609
0.0576244909364052
0.0557597674880343
0.0555501010576924
0.0540498189291111
0.0574796962679099
0.0531803204190871
0.052706107617787
0.0624172034453676
0.0534085440003916
0.0552332917693515
0.0532220597491479
0.0545822557443609
0.0549494468107735
0.0535934487861248
0.0543149464545571
0.0544134096107451
0.056090964654539
0.0570380017007661
0.0543178877500268
0.0534774693418733
0.0546916995273223
0.0549825576977845
0.0521218060956039
0.054250439917285
0.0529376498599921
0.0560082969312423
0.0539277547641943
0.0546773208107938
0.0599605964772469
0.0527463929247438
0.0528173272949804
0.060205505193388
0.0459551294761277
0.0593007955831869
0.054163569437981
0.0544422747289251
0.0566034750221586
0.0531539994960243
0.0556940577887922
0.0538070257129001
0.0549500828744329
0.05156766599344
0.0572124544167295
0.0507548570472513
0.0585947597804998
0.0537748809718235
0.0547613104123876
0.0526814090163241
0.0547893907813419
0.0542972108732918
0.056534633098122
0.0536736129489005
0.0532552522112841
0.0535412548449161
0.0528964947631365
0.054537411348245
0.0511319416911679
0.0513022002917353
0.0575177134661085
0.051958686569673
0.0566221279908299
0.0548633373132192
0.0536383857662753
0.0507615706193739
0.0650262789789138
0.0531990552422903
0.0606649279001995
0.051320665669039
0.0574391083112787
0.0554678785805181
0.0558872769206342
0.0500436008258162
0.0559617852075621
0.0548466742533888
0.0564912422047408
0.0530847296999606
0.0553451862812949
0.0530577403724595
0.0538877356314422
0.0532650441269762
0.0553346437465929
0.0562932677200784
0.0503630086915044
0.0555992853686013
0.0485674141992159
0.0488424666493114
0.0586137575658517
0.0547566326135482
0.0593798462939818
0.0542766024765757
0.0550715222084885
0.0503934448614951
0.057705023677896
0.0547788936759962
0.0585663157869015
0.0505030040367578
0.0567552659724601
0.0528760667567801
0.0584414938391999
0.0522186037538869
0.0593547458720634
0.0505693340647865
0.0593722478066702
0.049707147161325
0.0560857148651694
0.0488126957783253
0.0604680955682861
0.05019319384715
0.0627687661463862
0.0487273219046293
0.0620279065421807
0.0407742039551789
0.0625876242248326
0.0641371440187427
0.050255164426268
0.0615795107395619
0.0545994590578398
0.0569444468206785
0.0548574768337445
0.0547866557722755
0.0584980636668666
0.0555923982976775
0.0539221571507868
0.0573850482663323
0.0575119665690143
0.060638448232837
0.0533435626395673
0.0490379533611119
0.0645174035885556
0.055727317205077
0.0613953514456925
0.0591074344659887
0.0524818764956653
0.0685779989478541
0.0562715879376493
0.0614682847823881
0.0588782929693797
0.0572828226750272
0.05914788287431
0.0575103480989204
0.0570924774187112
0.0573313561758639
0.0615728029727723
0.0571746037056861
0.0603585917822577
0.0560604853835548
0.0625685538274546
0.0581117479648895
0.0620360924501671
0.0640377353891162
0.0587511880879431
0.0627281643886557
0.0624629424175801
0.0586872231900967
0.0616496070591542
0.061248477904092
0.0593057762296861
0.0601762175431748
0.0705386169697894
0.0567926295747899
0.0661018866413575
0.0669588407544602
0.0606767530077265
0.0666427575353307
0.062904097504027
0.0712469552959075
0.0601897860557548
0.0530161697140763
0.0831793481020012
0.0586156202794609
0.0776662771682318
0.0590360918729593
0.0748506491898001
0.0594388269276556
0.0739266014016211
0.0571925818886635
0.0782408021517558
0.0620995712402802
0.0735949306240155
0.0601726040334549
0.0695326029924271
0.0750931074210441
0.0702960268998506
0.0717760078053425
0.0730052567630573
0.0680088130182793
0.070680676545845
0.0732593512537296
0.0564358081690634
0.0767098315918679
0.0748344440430511
0.0784476430876017
0.0782336745220813
0.0609685160516091
0.093231141295926
0.0692728348979612
0.0771540700004132
0.0694159056341979
0.0790412092289481
0.0753211313731655
0.067502180670577
0.0857728741580056
0.0803517976601965
0.0746060275499381
0.0841431615525418
0.0666188109499798
0.0844113540998491
0.0797165666079992
0.0841197331006581
0.0783150815283063
0.0871905334776988
0.0660324511088031
0.102983176006051
0.0912366283841061
0.0821392218162068
0.0950441029653719
0.0866686192973294
0.0958244960994577
0.0867078750791802
0.0906196188752536
0.0880840958408873
0.0997065528506347
0.0950938795792688
0.0909085914284225
0.0925161477417005
0.112439614559452
0.0886504557064315
0.107384783674675
0.0929430260754131
0.0879273554482334
0.10240199729672
0.11721912237919
0.113149993529583
0.111740431055454
0.100016062354219
0.1212783310693
0.111380097294035
0.111249687202256
0.115694280734683
0.114860983364068
0.120576416341353
0.114484558991245
0.123256861624874
0.119732010769205
0.122489482242602
0.122938773877651
0.119520560893856
0.129174135780811
0.125267144161063
0.15542830001912
0.119634677377875
0.152852722683965
0.141237071263873
0.141040534000343
0.13903099612797
0.135067083695642
0.147741953810523
0.146784447553122
0.150128507555057
0.138879669630021
0.154367203404821
0.162119656200978
0.146287480731857
0.178376725901413
0.156655924093772
0.174039496552873
0.121381240143764
0.257706584049865
0.182273915348732
0.18840135472055
0.187192902123375
0.169855794843369
0.249802743029326
0.21019479009659
0.217496239905639
0.225974908512172
0.225962108462965
0.23164643516843
0.240678824078725
0.245823566429569
0.256164198635927
0.267272440588794
0.260198042046916
0.26368193306417
0.307774065909414
0.311010334239314
0.317426023773982
0.302549875046738
0.321446493553845
0.333575631586767
0.336540995083155
0.344871559046147
0.348559189918732
0.336751700517735
0.415228278541349
0.370431704221076
0.394610768909413
0.377852607325179
0.427751914411884
0.389236091138823
0.448936703391904
0.442061725782778
0.440896421617485
0.449797306009302
0.448547502955224
0.47745034156778
0.46276295633459
0.498053650320811
0.501220648205254
0.49942097988867
0.510611952335796
0.508731161763507
0.522686002616475
0.520828158921613
0.534583938615733
0.517354522316793
0.550743816628302
0.526835945086023
0.612640603540524
0.567729835410768
0.547983889983561
0.566146324740715
0.548856698195178
0.580875202176806
0.568150554272555
0.582353639982553
0.585222411298962
0.552865925887103
0.565479182303255
0.558761438396142
0.562563724921175
0.557897103596636
0.572283746275399
0.555635911633868
0.582578203222289
0.561900404980721
0.554471288300257
0.60772616691553
0.55066129233812
0.564140331934942
0.565679822726776
0.559332892680555
0.55467207168434
0.557931693662552
0.544652264483857
0.564461604822825
0.53368015750281
0.539250923730496
0.523854569177885
0.54940127437326
0.54907672457018
0.50574995898671
0.520788959559763
0.51032921179818
0.509832833677569
0.478567361555551
0.481633587304121
0.527607563318697
0.478144127579906
0.487305638583207
0.469226319366709
0.468585235564056
0.469282775976619
0.469646875269171
0.471665997171197
0.458727825067288
0.449528043856003
0.451708572142757
0.445494559714436
0.451722707607244
0.439995088492717
0.444067391849573
0.44223878967504
0.439257386181917
0.438404668046143
0.435203661706801
0.433123339961222
0.438474180951922
0.437031223340035
0.431997991140089
0.427130478706771
0.433833270194492
0.42906011461884
0.429184139987616
0.435874508435039
0.42308053246541
0.426246148370587
0.429112311767553
0.428154722684968
0.42871705640546
0.427407255947441
0.422400495283063
0.427648596768249
0.415904313686639
0.419288359708863
0.414677966332285
0.424773599561589
0.41482749258771
0.420533787581485
0.391055114354141
0.430062551029695
0.435737747889898
0.400215353798519
0.414539416735192
0.410064136354541
0.412515079199422
0.390823361367742
0.4265747007838
0.405306576601896
0.393866924051158
0.403012155680249
0.389848692093329
0.391227264020978
0.402899060952151
0.381288074313771
0.397428775635657
0.370349575775989
0.384405347756608
0.4128224783102
0.378714913445396
0.423954449824369
0.383827829009415
0.37948167645487
0.353879920520964
0.40665615403595
0.363336586599075
0.377671856555047
0.367788886995205
0.382496210924635
0.377752373505605
0.367282351158306
0.369301462190393
0.358041064787954
0.356293278453314
0.373934225780587
0.354171203774894
0.345627454523479
0.373739509749508
0.344196130909787
0.35056104387082
0.382573451351958
0.359009059640767
0.337884980114122
0.341544454719596
0.333517053658579
0.315057435621245
0.35519734930685
0.32284412241971
0.325312117933564
0.323125094343853
0.310792553853665
0.320846381616711
0.308733260973497
0.315183654527129
0.288306259930692
0.328044432341246
0.288898909685346
0.306552710153383
0.304772468677246
0.294359794810095
0.316739085612297
0.300850674023566
0.287911521571622
0.28538636163138
0.312748817237694
0.281888989572996
0.291191009800955
0.281284339112291
0.269240891796904
0.284035296601831
0.273063948969954
0.268869745995635
0.2752768988516
0.256355244733639
0.282408706573748
0.272452222615063
0.27609290241718
0.263683308180092
0.254811697521844
0.259676684960589
0.252787560185416
0.262886408802937
0.247609241205217
0.260636934738602
0.278027877934669
0.234756408784387
0.287120195870361
0.26482630965379
0.262172483837931
0.262214165102425
0.263769041864879
0.26212164625698
0.272495658825823
0.285768489650803
0.284671032162675
0.270720281634156
0.29654846739573
0.280681767653592
0.294836259599521
0.291223376576344
0.301531669233714
0.295052430297615
0.314416799813031
0.315740697397859
0.321723894169645
0.322810617786052
0.33354885870859
0.328267876122833
0.37327047156838
0.336052747851508
0.375743931947314
0.368039928320235
0.390537293763286
0.392525832616182
0.388471992821297
0.401988553068865
0.401632910760256
0.408278797180244
0.410706185345693
0.403899394192427
0.454324559276398
0.426500477869844
0.443486371118089
0.437097004578013
0.453248073498897
0.440188745755617
0.461008456770692
0.452004436201444
0.472723837233887
0.504710093782034
0.471880520863014
0.482650738641942
0.467980548137173
0.48560741871984
0.476739708108138
0.4822715176823
0.489130278389736
0.479354429618581
0.502875345666871
0.496799100128597
0.493630233096083
0.495659292934136
0.498635643325202
0.502248404417911
0.502570163276202
0.508308375367525
0.510425640262193
0.511017324916717
0.52199606694989
0.501771416377759
0.564480139965008
0.531805794544303
0.526109411449053
0.538258470226147
0.546787774436761
0.554656398097843
0.54174208266973
0.560614274154823
0.566689260172212
0.565950007426284
0.570605788642239
0.560340411943148
0.573202108679791
0.568192817857834
0.59207969505702
0.572076812632056
0.586678151099179
0.580768241691663
0.577173923667759
0.632071125155944
0.588087481798452
0.612924560793789
0.601269354460862
0.608874231244967
0.599433153603483
0.611852549756463
0.609893068865379
0.614934264786977
0.613587789134085
0.620791165845253
0.608504654291658
0.613279354636193
0.613236735107271
0.604633083921012
0.623740656476632
0.617351685292575
0.603717911046019
0.604459680421464
0.613723074307311
0.604764551946032
0.611359116575069
0.617820425233916
0.605810902312959
0.608716051917488
0.604829467613332
0.618983392314253
0.615789213043344
0.597219092622352
0.604225349039247
0.617234726332867
0.61288566730362
0.615212852610536
0.601961585708717
0.621301242799072
0.620872084779833
0.627797472895193
0.618117172584812
0.628214343085616
0.628416675810366
0.630008744879037
0.629009039204521
0.639737552442174
0.633027663083416
0.64176308547139
0.644200597940053
0.631927197431046
0.646327786723115
0.652080424083866
0.641660791039324
0.643409714448667
0.640098317635626
0.624658640499701
0.622240903496848
0.63598760503575
0.62351292323265
0.619325155154309
0.616386488513294
0.60562491418038
0.590571761632512
0.613685348487084
0.588590924190919
0.586071513336126
0.581595946574137
0.578511826706069
0.584076344876732
0.577868556971983
0.567862910215879
0.566702155428603
0.569501019375426
0.561807552244185
0.564291120529418
0.557066512444934
0.55363381603907
0.549989262058016
0.552045065339305
0.55244606499698
0.548417444843376
0.549008476220552
0.544473130063654
0.54549784273231
0.545852045096719
0.543304388455037
0.536785100442579
0.546378428772547
0.545327865908495
0.542799706755456
0.552592308374646
0.543552507948225
0.547810716318731
0.537706424728601
0.54577119363764
0.546166878945759
0.544105597202327
0.541285462313943
0.53919615976758
0.532719879949136
0.544350296084773
0.543860461023705
0.541770911703397
0.539548063602962
0.539217938951548
0.543140178154075
0.535545113666714
0.532752352891
0.542097910548119
0.538220876785429
0.53593179278064
0.537958924701273
0.530698835604586
0.535353153488596
0.532075251790709
0.533498516289439
0.537105742290482
0.539059551656
0.541013813974725
0.540810153758283
0.537211044443033
0.535932553581316
0.536713950445264
0.530916904139368
0.532699484347977
0.533587618140008
0.529705814196445
0.528990483326041
0.525162083643239
0.520971826031612
0.518095347353902
0.510368090702531
0.509523057602294
0.504891966863028
0.497273194154011
0.494893245821328
0.487673262308313
0.483922819749966
0.483798795874033
0.479685007315271
0.476472322375396
0.473863653370616
0.474154084100939
0.47322225198763
0.465984929099588
0.463021809666623
0.465808698829946
0.463118563157218
0.460540116472739
0.459403273861741
0.459256185088318
0.459700681601402
0.462850055835831
0.464489418758277
0.462828851165927
0.464173401364627
0.467457913697821
0.466160908316286
0.465016807414054
0.467761731628138
0.471812117612027
0.473062420599505
0.467880805856008
0.472666372361571
0.481795072650603
0.480545178468588
0.481954311957949
0.487586288712561
0.486704446082844
0.488963089388607
0.487976452129197
0.486531747080415
0.492595875272777
0.49326989400446
0.491744614241843
0.493929234585637
0.493224554227805
0.488781091655227
0.490362078973298
0.492757920760797
0.492719902072321
0.491791799178312
0.489575046962011
0.489389306985713
0.489274964119248
0.484451454209354
0.48058122190993
0.483203114408068
0.482691745668039
0.481592536648683
0.480371428945387
0.476995263775163
0.475170467555757
0.47332517399595
0.467773306279756
0.466842660138229
0.466443428472583
0.464829163682736
0.463822238034976
0.462799849444198
0.46239135985545
0.46123257124944
0.460391883886881
0.4547254380283
0.450975074885861
0.452263290496091
0.450579115659663
0.448341858305806
0.451150543534909
0.450037141172681
0.447131117176248
0.446072099561057
0.441123902950577
0.439813410796731
0.438179499802543
0.436806978559543
0.434342295215296
0.431881247429563
0.432013033806352
0.426687576026003
0.426339674687557
0.421782133471441
0.418443227569529
0.415966706400855
0.410735802367618
0.409316120971126
0.407984661672839
0.403474845920992
0.399547068153026
0.397520115638358
0.397658937805553
0.396096773946821
0.392550263827145
0.394755918144029
0.394082630317824
0.390316110392047
0.389982601196489
0.389884585948369
0.389096752444695
0.387416910982794
0.386128811593503
0.384870526310566
0.381269751078604
0.376948706214834
0.373203865563623
0.368073182596697
0.365852875713651
0.356969293792579
0.35378766253328
0.351612767146109
0.342540016889471
0.342216740964206
0.343463853142976
0.34328222642999
0.344921266632315
0.346774898433496
0.352006866495209
0.35906309721439
0.364950886851177
0.375729466246867
0.386558363028385
0.398190879051658
0.412868983956314
0.428202762459228
0.443114845477124
0.462001748677761
0.482425499381877
0.500726630765818
0.51563468948155
0.532651777152128
0.554198201909323
0.568921423777412
0.586779006035823
0.605625674536816
0.621435021797217
0.639557143779701
0.660760796736721
0.67543706968856
0.695413687955392
0.708740264445368
0.715201758769753
0.728416455905021
0.740157153366465
0.755646026068014
0.768956417802016
0.776963002394484
0.786128704870036
0.791749808059359
0.799985036662046
0.803002112901979
0.807345929353931
0.816282071383323
0.815947220381717
0.817226421181752
0.813880798890176
0.804251557821052
0.814111322725997
0.821630494213164
0.821479277789942
0.821090381129798
0.821651766752082
0.822736281384
0.82411990787889
0.831832558198529
0.833292534407881
0.835621928654519
0.848636197368854
0.847954799691323
0.854700063573576
0.856042507343885
0.862754249467233
0.880543037692514
0.889029549255216
0.898813486530893
0.90159334122226
0.910557866445247
0.914298799080102
0.940376832146273
0.962523751941547
0.962222062398248
0.980877985782851
0.993009323285224
0.997783938511242
1.01643005149445
1.03196932481356
1.02837882237591
1.03537396702908
1.05130833184688
1.06960288182978
1.07909715345936
1.06482239263414
1.05970362870692
1.05408749270002
1.04322601717597
1.04849286530532
1.03797676088914
1.03375903755184
1.03547830272725
1.03555133703066
1.0262870408312
1.02921158899763
1.0522121774454
1.07120670865255
1.0863192098797
1.09240436756415
1.09798063624955
1.11977286134829
1.12926270849059
1.16898839144118
1.18079658820518
1.18303407346505
1.23356714685569
1.23058998852359
1.23837799415991
1.28126860554669
1.29353552858513
1.31566660463224
1.31356087278222
1.33889053441988
1.35608975463391
1.38940961595494
1.4121598480506
1.41944512383159
1.45584983589984
1.44922530656689
1.48203626228678
1.58249923649573
1.56739436065285
1.58193865195376
1.59125218518107
1.62517800509512
1.69168454630805
1.71579457699676
1.63894379317959
1.68109644528276
1.71638338736915
1.76380945657093
1.77174037936223
1.77413695782327
1.76585325232108
1.80517716288366
1.82193866910813
1.73424438780312
1.71763644288178
1.79428979519307
1.80328624344737
1.7465845813202
1.67529343023471
1.75373518910415
1.73679574994427
1.67991597387027
1.7246502138376
1.75308579128684
1.74123054399571
1.76343742666841
1.76476685029135
1.83282758881119
1.85620181286594
1.84691065664354
1.86986589988812
1.81795006778778
1.81164696752666
1.99362430983584
1.96473000963021
1.9334765481988
1.90893132312948
2.10046596602528
1.91087727321605
1.81980724566091
1.964732481091
2.05130842177814
1.85341844666277
1.96569967471158
2.07890280964306
2.24684356679394
2.11211375689091
2.0047337772136
2.0356819778703
2.12306129314274
2.08014597724482
2.03554359359757
2.10142769043005
2.0420803178365
2.06200815811537
2.29238631255499
2.15884347289058
2.05635184193919
1.99466135591333
2.0049625996855
2.09089884837388
2.03224238427624
1.98084723680795
2.24797058295988
1.98547717028618
2.10585001901362
2.01346493105108
2.00366025576462
1.94055811940688
1.81779638277247
1.82130646527639
1.80014766584975
1.6845259012978
1.67450909571817
1.59353264072939
1.51641478299244
1.5118691075615
1.45675812492832
1.37602385548052
1.35907462881248
1.32490710166853
1.28273797261639
1.26772562976647
1.25610578418617
1.21483843867521
1.22769544704005
1.22225775831486
1.21682882973433
1.18903134198897
1.20567722310452
1.20878734999283
1.17014715928613
1.16001717413193
1.16002036261221
1.11421349584289
1.0949713038643
1.09139204055676
1.05816909868559
1.05232777095622
1.00721722323565
0.973474354623212
0.96078007612688
0.933462504487098
0.900409134907421
0.858971939419925
0.831584592273277
0.791952165062093
0.767930953539286
0.727161201477401
0.695321186020071
0.662931501516018
0.629227187798268
0.610641721566006
0.580445158093734
0.55089094469275
0.532736584829666
0.507654639715761
0.489497806506998
0.473116243636175
0.455161931415384
0.440360094079062
0.432436594923445
0.422505548030917
0.410058579843
0.405465817513736
0.398607049935882
0.392482448840153
0.387697345160933
0.387927955819551
0.382555133862375
0.38104958584755
0.388573797049458
0.380267982209765
0.381992559623457
0.385499884475849
0.383090328470803
0.381235313721795
0.390682386587623
0.390976424620034
0.39754314874828
0.394693805699048
0.388207251505276
0.393553950392202
0.394992812817914
0.393155521329642
0.391912793058396
0.38733579479398
0.383620536221342
0.379590857703749
0.377502014303431
0.372052461776921
0.366639373901008
0.367949791299364
0.367119576211353
0.36331271497902
0.367974176944376
0.367897858879608
0.368934427180684
0.369351118726116
0.370980934544305
0.373338200612066
0.381917969518684
0.377642759157165
0.385637321620929
0.392761119585867
0.385584316821464
0.388622644170161
0.402008109448543
0.402099044029062
0.402601149591028
0.406917900654127
0.410435919802587
0.405308860178269
0.411550852073771
0.40783275293476
0.410270317242942
0.415017455855907
0.415173765202326
0.411020307325995
0.419116606838695
0.411199785095611
0.419595452073086
0.429559946066479
0.429101194468667
0.435163956799831
0.443979179889268
0.44202513380119
0.448145094178574
0.456118151556722
0.473550038868898
0.488625391687396
0.505000352492375
0.516453171786982
0.536950867184673
0.546223952424879
0.550930528475825
0.567922684937088
0.571330457127209
0.572718670368445
0.57494813778906
0.570678049701017
0.561845164571178
0.55811503637804
0.554590005088876
0.532402209484103
0.53630098828966
0.530053797441978
0.521190720778742
0.514888779903708
0.511264432345915
0.507442625837007
0.512350344177417
0.510440523583544
0.518865382155115
0.500254352301277
0.517310542366916
0.523246299722222
0.518661142689579
0.513968120413642
0.509609047966783
0.50290236683091
0.49774709874561
0.497886263121143
0.49891304470853
0.488983505437912
0.483151723865912
0.471761000828248
0.466417739883941
0.46373427936211
0.45651671842315
0.457904007665271
0.449604086587861
0.455076690471357
0.464746792355689
0.458225187926346
0.450073812881003
0.444999024853909
0.448437236037881
0.444905180783707
0.441951469906489
0.428032854885612
0.428324502040287
0.4342059569529
0.432298504945163
0.432502934937147
0.438600946263442
0.433556278278801
0.416108532488606
0.42799216956292
0.428120528574765
0.42506700953074
0.418771685206944
0.413964661205885
0.434779895151226
0.419169008284993
0.416088201009069
0.413031719990053
0.410306708836911
0.411217448858889
0.406041343806651
0.412009005644842
0.407836558111585
0.410161853387189
0.428930473402369
0.409620474735762
0.418328012900961
0.420506544167163
0.394638801116655
0.404093687183067
0.418290744118635
0.405679689063723
0.405950945369403
0.419705639901641
0.422256670169
0.415921451909046
0.414248336402993
0.421477477145037
0.428267008020363
0.434258943495297
0.421103194106842
0.439834481408974
0.44586200474929
0.437368825158477
0.458078704485149
0.452833280178248
0.450456657709617
0.456439907027628
0.446595794291094
0.439166131165714
0.469068302233994
0.458888730359784
0.468160397207128
0.489829221635399
0.484042238233915
0.491551577420794
0.493918528121803
0.496398629221884
0.516097060365936
0.512465686195791
0.522603770013181
0.531416730579888
0.56458117235622
0.569994468420189
0.566629935855139
0.587586391185717
0.615100262483094
0.635482592071462
0.646639894879293
0.686934026704238
0.68505637335676
0.701042042231064
0.692286680058246
0.689370426239047
0.729523388648337
0.728488665050451
0.732633048425428
0.728590282687334
0.754119062603536
0.727696929371483
0.7486915900753
0.716905679991066
0.729013008412406
0.725658498645867
0.729542065520246
0.728527809014914
0.716939750274072
0.690384322982368
0.736390219601596
0.670078526985361
0.706588400551821
0.678842089656622
0.698788787569571
0.755554985658117
0.696155174110755
0.715407114286698
0.693428273361987
0.662499739784611
0.693158655266446
0.691586101294992
0.657116652032974
0.669696248727667
0.678172649020651
0.643191858004044
0.66057290481748
0.644140381027374
0.672493980303371
0.665240194556695
0.648481151901166
0.632596513339388
0.641343008307293
0.637299587887655
0.686810458139903
0.649909121790075
0.61052507177607
0.617008426861175
0.650379215776005
0.624558977910477
0.711389934043259
0.669607460225752
0.672116698365586
0.647609183271506
0.662817823853775
0.647133112916536
0.698990263958419
0.69515612719808
0.668904311503677
0.6327475938018
0.660740286113769
0.637154614873646
0.686810734843103
0.733359546569632
0.744897485009735
0.676489369748237
0.698276976357391
0.710449404457566
0.740569230645592
0.707373853125253
0.708982708844293
0.691243758636183
0.760190431135101
0.683828194354724
0.761116489568296
0.79442670093899
0.776077790154379
0.704298834392251
0.69918465997593
0.682775175121236
0.791783034355113
0.758066024122961
0.884212097078023
0.779575043550858
0.752222849850065
0.848294689254757
0.931747790245455
0.811852582660433
0.85201991084321
0.740683628720265
0.927242265547962
1.00821375617561
1.04048276372838
0.877231462622585
0.899036425328943
0.869779299607534
1.09251653808822
0.921162166251663
0.955002001618024
0.991840240018324
0.938042978578576
0.794875944247907
0.848320451660667
0.900701281130435
0.897123282108958
0.841884632925344
0.993725716843791
0.915180951491917
0.897596127584846
0.843583588652122
0.819585194779846
0.739393019623577
0.938596951032135
0.672717422080334
0.830018812757568
0.786423779813277
0.819042859257452
1.01940712224029
0.820519629926211
0.836552518959251
0.834924023817605
0.694443634081117
0.979913600248384
0.657299828981766
1.12236036816729
1.14095499920783
1.14407047389367
0.689103746872417
0.927717821591618
1.02975666755462
1.00563850301249
0.858019449673067
1.03988992626285
0.706001535177446
1.10067930612038
0.913620098851624
1.87113121190848
0.993271696991637
1.33956688682386
0.861500615662644
1.21457467657556
0.88328900488639
0.6551226027829
0.667868443184479
1.47902865403259
0.708402358627005
0.636176228390598
1.15875237257373
0.920659079155874
1.8264258452148
5
0.567544027526455
2.48845200831124
