3596
4000.36533379555
650.420452594757
1
2
2
0.0548763867529716
0.0481296491071398
0.0607258858239676
0.0421000768967713
0.0600397028847144
0.0441269473489895
0.0626100461799625
0.0504166816902948
0.0591449077569212
0.0506141834810023
0.0638580229549803
0.0451090488079969
0.0547002287595538
0.046684614258285
0.0649053749622641
0.0469770300188447
0.0581736394763832
0.04425653434466
0.0638266560969716
0.0480234948680302
0.0603195290939396
0.0452723483242109
0.0601542119354314
0.0432068343305811
0.0594938751419445
0.0466368195327258
0.0578120098922797
0.0436737274498692
0.0644860012694805
0.0470068189690355
0.06641013933118
0.0384341895718024
0.0606633191580741
0.0478712320710502
0.0506064114802061
0.0548086985597385
0.0627214802306651
0.0473917856804714
0.058528937886632
0.0469098175360656
0.0689039132112766
0.0487327638050455
0.0587802713123149
0.0547742216655253
0.0614085385300157
0.0425046516122092
0.0580259689626235
0.0493077647396084
0.0549219341453626
0.0387845143626151
0.0614663484487992
0.0450709045961799
0.0638544849427303
0.0531088738771408
0.0563220781904839
0.0446102225095138
0.0548274878325647
0.0458144305882866
0.0609044152771434
0.0464599066804002
0.0548754697302087
0.0495088649823908
0.0539670865729438
0.049614522199056
0.0556977994015887
0.0478104402727368
0.061756375866905
0.0425654203852352
0.0534969445656456
0.0488714502372951
0.0545742236315528
0.045496702939102
0.0571191254513614
0.0452570870671481
0.0664948436131925
0.0437632393251916
0.0539724242539409
0.0396006935435029
0.0469748401820341
0.053820574357674
0.0667922704117161
0.0366426113655775
0.0602533289191295
0.0427523988760337
0.0515345400762106
0.0434166036963616
0.0486806775600461
0.0321347070435346
0.0584305518120552
0.047086266343017
0.0569913952754818
0.0435604890088995
0.055747550476556
0.0459188439743015
0.0514730410234216
0.0339285413315858
0.0609011909093764
0.0451063287798714
0.0559232603636527
0.0358430097124277
0.0573952382165591
0.0278218437312528
0.0737646054249635
0.0181659289248171
0.0670901590754434
0.0439000213507874
0.0286853536675004
0.0755995217606007
0.0550221632506913
0.0463715926263684
0.0516252718158019
0.0379643715256733
0.0492136603563277
0.047122158409166
0.0410388987151739
0.0362312379080798
0.0748409482812139
0.0400548822033788
0.0521362950388273
0.0407259259001959
0.0386957826586092
0.0300156586098891
0.0789258420174122
0.0360722566953345
0.0547499249923359
0.0390339171246082
0.0495850577395488
0.0407469608737149
0.0710997748091294
0.0398751586454692
0.0523052655902554
0.0355256849532781
0.0582507465965441
0.0219966685579842
0.0699856172638312
0.0416185755837253
0.0520147295156475
0.0280331396873162
0.0472863960482724
0.0520210954965251
0.0596871906265125
0.036163412688309
0.0422799609400117
0.0172662994918567
0.0607236733739535
0.0440545784922785
0.0477971670724042
0.0372302312613003
0.0667926336224972
0.0393545257757096
0.0490713808426963
0.0238809192916296
0.0608692231587875
0.0466397594511005
0.0161611976853118
0.0172981474445671
0.105963018643064
0.00290704295758511
0.0930353556721025
0.0272551247764837
0.0605795822100762
0.0363907591767244
0.0537011535358985
0.0380257577818488
0.056292952192174
0.0365249397363027
0.0503631497038772
0.0543207691349359
0.0470249698757339
0.0365960608526886
0.0596930318838559
0.0367038087134973
0.0248881243170744
0.0573401622266317
0.0714032585146556
0.0211305931153816
0.0617000947859784
0.0407335233219503
0.0493994353761292
0.0345966592290899
0.0670805032288141
0.0332021669544123
0.0536171987912737
0.0300482805730195
0.0496116962123864
0.0437575281275436
0.0547441893356349
0.0307884565108515
0.0507692172373779
0.0211050062125051
0.0519405964282553
0.0474929159011135
0.0717306604933529
0.0331797472267158
0.0570696758299557
0.0094471246617601
0.0586831217245574
0.065756097105277
0.0507712261909073
0.0377228920360037
0.0576890736968834
0.0371091855232861
0.050511991451993
0.0334081033886069
0.045088344471009
0.00982412412179053
0.0837610367606434
0.0510663992734998
0.0481345094492939
0.0356860103649351
0.0448307459955824
0.0278314100929055
0.0660177541060759
0.0663708268967893
0.0506695608032701
0.0450503983473025
0.0406393876585093
0.0344481932679251
0.061219637697688
0.0405703456970412
0.0524150074550338
0.0410471472503483
0.0520842948013898
0.0471266190048292
0.0496750366456832
0.0352703325510536
0.0499188173541949
0.0409081045831564
0.0589028138475304
0.0399291974731335
0.0569711359397585
0.042213569935588
0.0453157183505668
0.0391719381816978
0.0480092357192959
0.0337485464258818
0.0698078563979552
0.0379278623835347
0.0550721929413111
0.032405354903642
0.0475986863993315
0.0380274943597843
0.0561411265082062
0.0400193616078876
0.0592224190114586
0.0243549462299047
0.0773532143312269
0.0494723698135568
0.0517023636051087
0.0394622444845397
0.0552817846395984
0.0536127838704418
0.0468449728760462
0.0414673007727694
0.0456502899465558
0.0407514521681266
0.0314041164859478
0.0579201135984427
0.0496643889552297
0.04284974631706
0.0552332021266989
0.0526634605471982
0.0429313646105712
0.0365988041236374
0.01469669413222
0.0702989331348394
0.0546853385536271
0.0106679522004615
0.0823760289080007
0.052133724192475
0.043066533787636
0.0469601547132278
0.0120254354190481
0.109032966231424
0.0860186419812344
0.0378658038664472
0.0453126637519713
0.0557815022948165
0.0515566880700423
0.038401326836155
0.0561103102539124
0.0373929775215789
0.0698807304074787
0.0242577554390728
0.0848254879547992
0.0388082392552796
0.0484162547235364
0.0739368464842341
0.0590891528939922
0.0518841419941804
0.0477828497916361
0.0411895309278624
0.052118788415342
0.0603441613857475
0.0537180322164881
0.0588903390770228
0.0409665076195702
0.0627063533011737
0.0607636505342066
0.0448866121023275
0.0490694510382571
0.050818916293229
0.0488816196798056
0.0527995114418529
0.0543217257142097
0.0524704359811822
0.0619108043799289
0.0339637032972854
0.075251777015571
0.0551509559583918
0.0504443029669893
0.0666573985274301
0.0679242813228749
0.0523673356892371
0.0574957485357547
0.0527934774974745
0.057791770592272
0.0525343971741587
0.0443651023563504
0.0590879450947227
0.0690172381770868
0.0568338124194203
0.0740572369859807
0.0521833334393968
0.0642616224776316
0.0547070317979903
0.0670369794719352
0.0581325126569089
0.0681324686328494
0.0507770253163024
0.0659014545980599
0.0809189781555219
0.0514118569664806
0.0670528454739224
0.100560166099204
0.0530087772149967
0.0774290575540552
0.0563691619725456
0.0677377809105833
0.0622761256173023
0.0738576093167927
0.0684082735210368
0.0735822165263144
0.0672340710410149
0.087321988160053
0.0678856589510834
0.0599997404102745
0.0763580209626359
0.123219933142164
0.0826930146133153
0.0875605775298833
0.0692069488488763
0.085713406805289
0.107336082277949
0.087660810107273
0.0972707832967223
0.0814753948149778
0.0815874048573579
0.0931038918502589
0.0948839377243555
0.0875970124447366
0.0906574465672138
0.0971552264738779
0.0947357422519027
0.110079858863032
0.0977336325277835
0.105327161527056
0.0880884222881355
0.135453394194699
0.115381082244515
0.105984340878511
0.10186272782625
0.108430289060255
0.105880265561216
0.142908434439825
0.112355409347721
0.160186884421148
0.109966306456537
0.151677705373798
0.114958098302155
0.13213907556557
0.119051515206302
0.138474747113075
0.13047199761078
0.143977660966529
0.138425548197237
0.14797675857734
0.12955377549564
0.162455744592761
0.145939412709601
0.160306358146267
0.146194456287058
0.168277710104961
0.16811238360116
0.163014052697785
0.159971312327834
0.169129524945145
0.176167376493769
0.188944663320392
0.17349688490767
0.166697162902696
0.174409928848859
0.184034378627721
0.191348430283148
0.180015960298358
0.184792364693276
0.207629351779397
0.201521811298598
0.222865921429716
0.201889023839764
0.229437132499789
0.211772276833614
0.217931455190342
0.224274313627525
0.229048639032173
0.22969617768532
0.23312268755795
0.223917487734349
0.245790922335862
0.238325226783987
0.230187242564124
0.254693234227136
0.255297254365815
0.251230891726869
0.258751701801262
0.249778439989345
0.254043316424538
0.257379152344819
0.271104276247292
0.265608960384386
0.284734083138462
0.27623534419193
0.288795137737372
0.279050077109636
0.30724468605674
0.289779331789355
0.302779437369164
0.294873591107953
0.307587384605562
0.308073928341709
0.321941634896057
0.331611673289885
0.319991059384063
0.315595285995385
0.337191673549053
0.329551742380816
0.334154651601437
0.321538641012655
0.352965360732285
0.343729852337263
0.363270287628461
0.342957939120726
0.360659467580914
0.36473981565346
0.380909112673427
0.376271093865575
0.387410436476574
0.381747490303445
0.399345282167699
0.388944082112582
0.402124816925737
0.389009293165587
0.419703021688768
0.424898920200243
0.416686530359534
0.426832580571503
0.430793346408925
0.427218443537767
0.443090527709415
0.419711441437625
0.432798628306968
0.434451451953994
0.462722781811278
0.463541263314687
0.467296417178457
0.459653902028901
0.469850897432391
0.463802651130445
0.477410270594627
0.472483314726304
0.527381196189979
0.476513979949106
0.510008558307319
0.506246697158756
0.50546727403594
0.511369121369697
0.544236775622647
0.514487643044548
0.545437534405844
0.518526807083647
0.533805417408932
0.528390967826308
0.564959790545855
0.566338513053692
0.577821043491023
0.552652497753912
0.575743230874995
0.587830215071815
0.599305055530827
0.57225149615099
0.610267414960141
0.618528511313983
0.609567323378927
0.622196629096591
0.617862041115387
0.60640242347571
0.631406551651901
0.600768337128329
0.640442060137388
0.639378303843705
0.67014694725562
0.655480823655943
0.689478166052817
0.670273948410738
0.684715358017508
0.671796782097969
0.672783688355494
0.68619604997532
0.692600903879984
0.67495958532512
0.715639105825482
0.708591054661336
0.725472224076798
0.713606047119731
0.710228873160147
0.725104638382478
0.758243378432691
0.730751950546454
0.742868699296718
0.741066416260703
0.775109628083599
0.749780737077757
0.739581285835075
0.784486610057142
0.820964032090226
0.778229802462085
0.778602056452566
0.803170010356319
0.89085436823773
0.854676056550394
0.817917511803915
0.810351543015669
0.820198029583442
0.82308268539293
0.814483013869805
0.808718648017766
0.83621033900126
0.828085221006107
0.906778104565189
0.851036625133188
0.861466932623927
0.887634612422129
0.894614777411509
0.880745767644175
0.884143756565622
0.920010790321514
0.950573159831708
0.917259260711646
0.954777856947563
0.913721415372575
0.93836253784897
0.987373147134961
0.943235926105677
0.956210957332692
0.955431327225438
0.928957412525926
1.01926741937568
0.91585649456231
0.918042315242218
0.968407317686798
0.982618042886425
0.963346812767771
0.946345112526331
1.00104023548345
0.999770404586706
0.972921334154967
1.08752957424135
1.05866442277668
1.06388758192741
1.05477511228779
0.998219870686293
1.01630232066797
1.08620479238254
1.03631965648101
1.10938298948436
1.14237486406443
1.04877971040309
1.09096277958664
1.07990054106193
1.02841773764798
1.10687005465669
1.06694643310108
1.10910438811678
1.0840880443263
1.14685197344379
1.10728004596372
1.0958906140288
1.12496999621528
1.09070031554085
1.11873353865604
1.1180907035037
1.09463741809119
1.07580779735372
1.11367494146765
1.144882004744
1.13146281389021
1.17953080760059
1.20825398816716
1.16667237555292
1.19397302916819
1.28307769690245
1.28638768985379
1.28891427952925
1.2455102226371
1.27023093426402
1.33547846235017
1.2284884000442
1.18770076898002
1.32595000156731
1.21813287494446
1.25697470107554
1.39401828309135
1.25683924833824
1.25049520101332
1.22122373609846
1.17233018723825
1.28367130939578
1.32359372416675
1.26136328149096
1.33745592725652
1.28458356496963
1.24403931589119
1.30013586559251
1.34748516603102
1.26552075300473
1.25514290028328
1.20462058624711
1.27006282544698
1.47653575221856
1.4424390252946
1.45240512189212
1.36054994084785
1.39998791050756
1.38534552827153
1.30697298821934
1.45808345976636
1.44579740740268
1.36080476673655
1.4970594087424
1.4497355062791
1.30382732127312
1.30756444318238
1.36338784090822
1.55491384754352
1.53896035493588
1.50401353386259
1.4332113663142
1.40111685450384
1.47285299440102
1.44531469998181
1.4397264005995
1.43909108121601
1.40182750592704
1.58850888665696
1.52112800600965
1.50869845940887
1.51970010834152
1.42092524642578
1.38699126210457
1.572320381217
1.54085340783188
1.52656850068497
1.37251315645985
1.33641756173236
1.42145688845862
1.5934807030365
1.5901660737999
1.42044899353042
1.42601924129291
1.57960406519746
1.5500220747122
1.41089746615818
1.49337964901251
1.65953940889715
1.39212111231016
1.48156987194907
1.57765978806774
1.48632417131274
1.5232410248002
1.6394833138496
1.5371154973653
1.55604327846256
1.6066690109183
1.62142413055728
1.38075669208481
1.43729748017739
1.49320999004186
1.48095999881789
1.57689113539625
1.54072499843231
1.51085018842262
1.44898141141299
1.54532666822153
1.63487882504945
1.47727966473657
1.54954883403061
1.51457625172345
1.61551836184505
1.5132569768073
1.55491090959213
1.76916724171426
1.68044628170936
1.74702845291784
1.80859416256585
1.68394317060471
1.52451410363598
1.4976345716671
1.58289247587917
1.54202732114851
1.4936151988873
1.58155012124986
1.54661438575188
1.51037129086797
1.5605859870545
1.45864381572424
1.57482971175476
1.89758208552372
1.75856194221018
1.43140850968613
1.43204846516711
1.650172721339
1.72207053863942
1.50243423047409
1.59259501809325
1.64395529310386
1.69958255442156
1.50273627545356
1.68419188975815
1.80377001512568
1.61499435343025
1.49147577512665
1.51210008266608
1.62626204791807
1.68689522134692
1.51623170735762
1.43473556899206
1.59955925246152
1.68044144552591
1.51815813217824
1.57491512853056
1.5810105970611
1.77116153595717
1.52272516254763
1.52234922455305
1.58164317830907
1.70898812759864
1.46524149292832
1.48197207313829
1.58965521652368
1.57497977048712
1.59034107744144
1.64631199295165
1.53201400290725
1.56210262255549
1.54773542280101
1.54926926281576
1.49795776877394
1.62944086146308
1.69415291868446
1.62808138028782
1.70093835268846
1.66687114088534
1.6270062709899
1.60251283937933
1.5331141701863
1.79802956677671
1.55482125996767
1.52750369350931
1.44648300039913
1.65647824676405
1.67158820156243
1.45915552667516
1.52749088503983
1.64512407021925
1.67992298984256
1.75392589101596
1.53519160080209
1.66191511801139
1.56887966454893
1.60884340530064
1.65257690401588
1.60762060651188
1.49553757582747
1.47992778035069
1.47648062807246
1.55996627452457
1.50355268369501
1.5319413912814
1.56764470948363
1.68754825975203
1.50455167353409
1.54054647423336
1.53527170036795
1.63329155080455
1.58458910633602
1.6500225872246
1.53191173291782
1.6773610424798
1.4387382901116
1.47953328473465
1.54554148620704
1.5406579889672
1.50709369131335
1.52739690900138
1.46597607919644
1.4718620539596
1.55171948196619
1.48500882907911
1.46927588192087
1.60079375772158
1.48470110213567
1.49843047977111
1.43642774242264
1.54942487803898
1.5278139285256
1.47616359135079
1.37752324894084
1.44483693310813
1.43636973489745
1.46429427029849
1.55426438981832
1.47223290433472
1.41532366179979
1.51059580438514
1.49136354276251
1.4505955794197
1.43645981837967
1.45715943979972
1.43080523871787
1.46626066763793
1.38820432897098
1.43201119770598
1.35271239542841
1.37368716106108
1.28660146750403
1.37420396239142
1.37474628955766
1.39845959106267
1.3824726678534
1.42312500866819
1.35813155280735
1.40568977002801
1.44280935045404
1.42777828797102
1.46159429597396
1.38445183721155
1.33176615251214
1.34280078319449
1.38770961903873
1.3817861342597
1.33661591532307
1.3955163544601
1.30155319721914
1.30733297657977
1.32002415401302
1.295554025373
1.22700630534329
1.28523204070049
1.28049635080867
1.31006272606465
1.27933864492871
1.26594628302373
1.30385986304868
1.38673887707524
1.26497161600127
1.29397501507746
1.22542496420904
1.17415440967906
1.19925612738143
1.29627014317983
1.26198618744429
1.25591512652771
1.24381665637388
1.26297569323887
1.27219880203644
1.26715942579807
1.14746431594829
1.17200731418819
1.17839759574788
1.21569949464161
1.16981861415472
1.22787051471029
1.16305507556728
1.13974333105464
1.1846236199016
1.19838608239107
1.16724892911671
1.15497439142902
1.08372881448762
1.17142135313889
1.12961344103545
1.12711723592124
1.13107141569346
1.12656850146306
1.06916450395996
1.11441933095682
1.07525659719282
1.09789941612518
1.07530502170651
1.07840154832765
1.06877102182913
1.13984272121309
1.07497790525109
1.09119500018973
1.05830677910147
1.07149710652253
1.0525231691695
1.07006924253442
1.07221695213102
1.03619962953406
1.03195551145144
1.07400474328224
1.01103822671283
0.999846045334415
0.99552243037434
1.00782943425205
1.00693417703554
0.991333606771998
0.988856691053172
0.980802714033846
0.991463564320852
0.984475097146134
0.955746138736233
0.970380003479163
0.957432299278523
0.968203446780704
0.980248568854535
0.982088575997647
0.947882629742581
0.947171310526989
0.948711536319279
0.918168034441251
0.915529886568497
0.920984788412352
0.92695895250741
0.925130856640453
0.884110466744043
0.933874276755985
0.901411752450375
0.902209442511186
0.883809953486729
0.87609465481499
0.870626878116909
0.909079310090437
0.868923616350571
0.84943798941614
0.859563360131969
0.865910048024957
0.847592342209688
0.869364949470335
0.847560781189897
0.83224385485677
0.846225726209588
0.852725179863679
0.837408921773647
0.815797538922786
0.806376767390817
0.823255142847695
0.813874394876746
0.805994541989989
0.769750012087446
0.779993201105994
0.781461949554146
0.770951676217128
0.771469304471106
0.792669103913569
0.782310766189217
0.792866536291111
0.766594278995274
0.777772098769091
0.756149992967968
0.740578468509205
0.75432595490308
0.767361701206322
0.760609250024131
0.744309767943626
0.740132365963383
0.750979331357478
0.730050692879605
0.740124095096756
0.712338648965473
0.707534686503234
0.726480319135734
0.73677104289933
0.717528632638856
0.717295139363783
0.698805873223606
0.687297572866306
0.690981253217758
0.691339344684074
0.677929234210738
0.677354556481698
0.678201319325604
0.679030126032743
0.672530140348216
0.677054159903273
0.662487687420422
0.659051042906633
0.660161645159009
0.668473852753638
0.636462997397594
0.645669108667575
0.656537838240679
0.653399540339907
0.637912141680027
0.639560343931238
0.63093749070475
0.63449560881587
0.623443984995228
0.622728946874845
0.62742059571818
0.608788211325591
0.62361300773917
0.626477247957458
0.609912830671751
0.590782862450831
0.593345409916831
0.604790710498087
0.58394110247231
0.590632080693
0.57465838138705
0.592001284970963
0.603694025844626
0.584337784155108
0.566260253098425
0.567698672499145
0.562715328890344
0.568803062573288
0.565204915932001
0.57234681093402
0.545799316094605
0.55677145262898
0.554575880319143
0.553804252972122
0.538654078471693
0.54518472055475
0.54152789868597
0.549922963227278
0.537277188141603
0.544371195149888
0.531619780912752
0.524996778963035
0.520451240780391
0.532806065643186
0.517357904929189
0.522955410532792
0.510060763726637
0.500919399512513
0.516830586340166
0.519117989650496
0.499245051467444
0.50237954914105
0.508342618766998
0.508382490865431
0.500013374634996
0.495016429169547
0.500637856525805
0.495399958737614
0.499969747512305
0.503653648356407
0.496642515704292
0.499110090516019
0.482046364037927
0.486659111050143
0.473931325308227
0.482830918549359
0.487250645626506
0.483748173525827
0.485333400112561
0.484677700751488
0.479137762602164
0.480727067916788
0.480824140210729
0.489586036110185
0.490684443191697
0.487912803331818
0.479682949609194
0.486884414921382
0.481588150062351
0.488656937872793
0.488623104811774
0.490500087232228
0.491894223173186
0.500388902161618
0.484417292339728
0.496588480620836
0.505894482963459
0.505196121756311
0.50609846091851
0.510598767812849
0.509261497907151
0.510434295404925
0.507174390835568
0.512862516505029
0.510905613396618
0.516239445697504
0.523352375718738
0.525279385822344
0.523426990202794
0.519913774348307
0.528426197521201
0.531637840427018
0.531831020403289
0.533731309886789
0.530325556900222
0.537568377590097
0.544148155054797
0.538564109621367
0.534129607462566
0.554328002179216
0.543359395634836
0.548705643181009
0.553998790912502
0.552123136176132
0.572784833847478
0.568237956948674
0.575312397965783
0.581517129933786
0.575930267621781
0.578829903844161
0.580586969453358
0.592541651369223
0.60036319486978
0.597051863706029
0.600238365166045
0.617432476763172
0.606807741946914
0.60651876936802
0.607154398223902
0.621699329379176
0.627980189936656
0.644188213643957
0.643030386435796
0.640753239524829
0.638420406983405
0.643176332580661
0.637790140385303
0.64429670019985
0.652456762419256
0.647579460619842
0.644661532378311
0.645239204568628
0.64486573431198
0.64884712222635
0.652366250096737
0.660521815967081
0.661095683026966
0.64637458731256
0.646057341991245
0.643970310799513
0.64328719582391
0.658165693249499
0.650422796995188
0.657842644256758
0.636953279076167
0.649247445040314
0.633926285301788
0.637074888239686
0.642524448545732
0.644739964089322
0.632577888122106
0.640283020253335
0.636403255619467
0.651651556644479
0.632603291272132
0.639665895433044
0.638402069155292
0.642866665989327
0.628530983020194
0.641452842208878
0.648650746630776
0.654071892280023
0.637697178701868
0.638640118082171
0.636721497968388
0.653906751321958
0.646537725741793
0.659351576369001
0.645406945449147
0.645068398651489
0.645979462767975
0.664554764171647
0.635423777246263
0.640334001465079
0.633116814292596
0.643588026767299
0.62258354682452
0.651451474624933
0.636151470971206
0.641678249870784
0.647108611131841
0.650934010150456
0.626619813206501
0.636579832725772
0.633019715307414
0.632373165929738
0.631235967499982
0.632031157866487
0.621149414008759
0.626027571181053
0.614986150222871
0.614924488039278
0.623242407076444
0.625652407855287
0.599249226223846
0.6082746215008
0.604855037050649
0.599482692984085
0.589496178491587
0.580673900637955
0.578233460225759
0.582051167120647
0.572969310086491
0.567928819651403
0.555234788686989
0.563122773876906
0.555441770595303
0.56134555139221
0.5427574522348
0.539673392623003
0.540410227660873
0.537069725400262
0.523491203632051
0.535720612163762
0.523371857694546
0.528969474824809
0.516374526529599
0.506539657365503
0.516654994123222
0.506766757610285
0.50483267191175
0.513092879122528
0.484690240984957
0.492185803463067
0.484701063354756
0.485510410675836
0.489929480362092
0.487682219867836
0.470559702424505
0.477423745105848
0.469892952920595
0.472521780983134
0.459540609164728
0.465310123574406
0.467133803976691
0.45567105883106
0.446752842890436
0.45780929086094
0.447964281645572
0.447240694299778
0.439437172552999
0.44101709183612
0.439512562863411
0.438169679186993
0.431204667282667
0.437255617482204
0.437318275493852
0.438988111510691
0.424910075747367
0.415368283042387
0.426739599110849
0.434917653648472
0.419436824251392
0.424632352290215
0.416035489025324
0.411332711746573
0.410567073852701
0.406560006996177
0.408247371331712
0.413782238602677
0.398208013368511
0.401593897804688
0.402725200879214
0.401522203426328
0.402950295485408
0.400277311469346
0.407870489972221
0.398372952448441
0.399899967170251
0.396798041116712
0.391037753021418
0.386813245925174
0.389853815382825
0.387204553242586
0.380256619481986
0.382991651763532
0.38398119419579
0.381475421870072
0.387135954325611
0.378805797401708
0.372066124401974
0.378021303315209
0.370612619722272
0.375464621727427
0.371378278765751
0.378035754382173
0.366828702751328
0.371846910114507
0.368824907720482
0.363558812087918
0.367430193715574
0.371184085646297
0.36515802354546
0.363089916739166
0.364276816194538
0.359625667209883
0.361107767004444
0.362070720778081
0.357764233305695
0.356254948664463
0.35623764681786
0.352095009436184
0.348397510673456
0.356723574057892
0.351143165768396
0.354843741564543
0.354545760069457
0.351698580626202
0.343091829307099
0.343829130933189
0.346425989655951
0.345484835356149
0.346047196733907
0.341593271192288
0.346200912403356
0.341399211015336
0.340393700370638
0.345825974486336
0.340987939946738
0.350705335291817
0.340838684701105
0.344637067179479
0.334114379588096
0.336077339279271
0.335386223275465
0.339608605780015
0.338871990064592
0.339069862889386
0.330541604263088
0.33625643929497
0.327792347776936
0.330385060960564
0.32346312677704
0.332388461729784
0.329401389290367
0.330748289240721
0.323528887106762
0.334580501753407
0.330526366780261
0.331203603996308
0.332815290684073
0.328396154920096
0.329737219169496
0.327044395195277
0.331834412151274
0.332305935088801
0.322565656716746
0.327950748467591
0.320805576754379
0.321851557182754
0.319851088382148
0.317510675113424
0.318075888644933
0.320741455000144
0.317367301061947
0.316753846854684
0.31494657124879
0.313416948490093
0.318645233773575
0.320443910027118
0.316303178395488
0.319234104570248
0.314573086339389
0.314872663321293
0.318217798917112
0.319390294896059
0.306158529118777
0.313106317812206
0.307282914330989
0.310079950252674
0.305905770076932
0.306917994956427
0.30838830940562
0.303801508701587
0.301837842963115
0.307288974975299
0.304644901361907
0.311792341268453
0.298354170119518
0.307177714694371
0.294375919068827
0.303416659313277
0.298812713765454
0.295770660693867
0.29552042087918
0.294197657153527
0.301141091524524
0.299188430550207
0.29287773162822
0.295031024442135
0.29361145362711
0.2937131230009
0.283045094188412
0.293881235259414
0.287044336798622
0.286759526820133
0.290624583808325
0.291374729648726
0.289470568937169
0.287515845840383
0.286725400119168
0.287361351026179
0.276814331509898
0.284534732986564
0.275559531278191
0.280883059206945
0.277410708430051
0.274462698459478
0.278596559625878
0.279682354221797
0.277604749575403
0.281366310358067
0.272360954393437
0.272826940450025
0.27172112727255
0.272628899327034
0.267898443787011
0.273998568559432
0.264018806655414
0.263434882967627
0.264472950864263
0.266655155979728
0.25825364362257
0.268343850145951
0.263696760038432
0.264194065787702
0.257109302682879
0.263713545491108
0.259001476524169
0.263935262327615
0.254617543422004
0.257730175136504
0.254352828969523
0.254383289647593
0.251681257793081
0.25046786076397
0.244821832204463
0.254735999951191
0.24363091597401
0.250489884423684
0.244524902786125
0.243543434517566
0.245028813091377
0.243945907137667
0.241101487180121
0.245746211257981
0.235535223971208
0.23781002691299
0.235194904029857
0.237234756405197
0.237951660348687
0.234106949300594
0.233119696845705
0.23680310347494
0.23075175918749
0.23223810663165
0.229064493655606
0.231397449449028
0.230485311291213
0.230679492503541
0.227086211960442
0.223324422114118
0.226070317897263
0.229516304054688
0.22091572688315
0.229893159225039
0.223083371088581
0.22396276770955
0.222723343508979
0.222433289935076
0.217736669895431
0.218840472401896
0.2160384513867
0.21751557302794
0.218121279562144
0.216330995650025
0.214685698875666
0.215434824680593
0.214700662902181
0.209438697646202
0.213439187077232
0.214766536143049
0.211966471891446
0.212696403504419
0.212097301737922
0.207940510990936
0.209582959593478
0.212194684596283
0.208355027911287
0.211127201894793
0.20669656481941
0.206498128613805
0.206120500458725
0.208258963519974
0.204521150460827
0.201408176728379
0.19931426661476
0.20198764600323
0.202203101532318
0.201642493627042
0.200928699529259
0.201920547631426
0.195563287938185
0.200904635428445
0.198373956858164
0.201795035947345
0.199094689307897
0.198692698073576
0.198800521484955
0.199294554304615
0.195439277279922
0.198698079602779
0.19525685098597
0.196186708371983
0.195476508746352
0.197423513990635
0.193503527797149
0.19463710663828
0.188881216566318
0.191954441948599
0.192610758325251
0.189654169338048
0.187692508351456
0.191261159232599
0.18939249563201
0.191636021558788
0.189126787321782
0.191894542870633
0.187812404464595
0.190010799659464
0.188579367893834
0.190613092956099
0.187613887023894
0.186921327685562
0.183419330603441
0.185434429629667
0.188874490495752
0.188402687202416
0.184357972426564
0.187127217574918
0.184101939340491
0.185458352160973
0.180612829967906
0.184384790310136
0.183334486346912
0.180894783459864
0.180127507076643
0.183128148291643
0.181790427167633
0.18030917453692
0.178240478196065
0.180663850224302
0.177644501214269
0.179613613606465
0.176993855201515
0.177323769217842
0.180584866797589
0.179678437559746
0.17792107013771
0.179495934899126
0.176632158416817
0.175491986652703
0.17615085933105
0.173403887405677
0.173260833076638
0.173042154150497
0.16934009664603
0.173020163014674
0.171161916554676
0.173525219684487
0.169349682392122
0.175430493504106
0.167046131650123
0.16790536160092
0.172121718028895
0.169957979896609
0.166167556181063
0.174655691200331
0.171032369354854
0.169912996724346
0.166989460828324
0.167947147334279
0.168503284741467
0.169426847303791
0.168255415586619
0.169821998452554
0.167603636785867
0.167883771568821
0.162748701197236
0.167332010583949
0.165354457310409
0.166809877314678
0.165150042973601
0.167485663164469
0.164886866796765
0.16721451845827
0.164600926058835
0.164581424831409
0.162557568302769
0.164419796127881
0.160834866691765
0.162928609401205
0.15784832200024
0.159243993101448
0.156939844132023
0.161616954778222
0.154010715497854
0.159364544871495
0.156430944327656
0.160391839429063
0.156636989165097
0.157538680735467
0.15207988138036
0.153896577216324
0.151576716128464
0.15513237986779
0.152447088775063
0.155122219717317
0.149882681876894
0.151772375700607
0.147330059273868
0.153904096973063
0.149977582401576
0.14794660735657
0.147174989858158
0.147026860566729
0.147844166276283
0.144120447655388
0.146401556619733
0.147150397370878
0.143567166197122
0.144063935407929
0.142852273610988
0.148172097176759
0.139467828122916
0.145019660861051
0.141825425192757
0.14240162636274
0.13956992495927
0.14297581698041
0.140618418146793
0.139445421199226
0.136453261026146
0.136627949227011
0.13630573022153
0.136948655722124
0.138267451019428
0.13745741085528
0.134115047380726
0.134586014756411
0.135748935630202
0.136684859607911
0.134133035031512
0.131266879298392
0.132039132058964
0.135988899525999
0.132391776085327
0.133226244696766
0.131826200882299
0.132022674935477
0.127882093059046
0.130130629879012
0.128384458158523
0.130348046108227
0.130999280990307
0.127068098032203
0.126196109783837
0.128835962664101
0.126050486635244
0.126886760087125
0.12447474551971
0.127161646130112
0.124644837899112
0.125863123396022
0.126376475461456
0.123219000287075
0.122455338046606
0.122278581660323
0.122610299317807
0.126491736656922
0.119293261702095
0.120830929603413
0.116291909342335
0.121184761703512
0.119196255643072
0.119256473661457
0.116891016119262
0.120559033311367
0.11578656022859
0.118291033618806
0.115825826630997
0.116439860744686
0.115957860871489
0.117429016699015
0.115938712117089
0.117735814816241
0.117798692247765
0.118063567305974
0.11336319859308
0.117370762974493
0.113750777899596
0.116313501946453
0.111484156166145
0.113310035413041
0.110085490321907
0.113616323968779
0.11130646603296
0.113332827002648
0.110183710546799
0.113670538152392
0.109740522976271
0.112949178040863
0.111276043872662
0.112894793742107
0.108192788468176
0.111091662323584
0.10984812973565
0.110474707141661
0.109626048920941
0.112757070958003
0.10675800103634
0.11189792819243
0.103992148487424
0.109390587123067
0.106924111744335
0.107066804937362
0.105195494939172
0.11102865472572
0.107256215373926
0.108405629671019
0.109915179493076
0.109580246020474
0.106034184080237
0.0996284581101081
0.1023195754454
0.111672834033005
0.102889845177358
0.103974564427877
0.107468516621948
0.102446011652911
0.106624391096249
0.104316653001583
0.106448150120259
0.1140115738607
0.101500861389719
0.108757724838441
0.101475484385603
0.107200506903972
0.101785055558034
0.106590246197573
0.103567468743942
0.102125139203744
0.0959722611632528
0.102509511650809
0.0999641070242367
0.0997319602826124
0.100268784421947
0.104094649372987
0.0925575180077088
0.108182120400312
0.0966518504334562
0.102064310795274
0.0904714024716272
0.104400178732604
0.0910069763898452
0.108541411479421
0.0900379732187744
0.112112042259376
0.090641037294819
0.119282636177963
0.0857638054789926
0.114488818086264
0.0848592731309018
0.123794282359261
0.0836792006460917
0.121993722684427
0.0702907724132041
0.127658633775256
0.0789506604188863
0.13077942410691
0.068650124407655
0.128062726374105
0.0776766040648571
0.124681058386016
0.0737523483719018
0.119513517343466
0.0888636637857794
0.107932542218593
0.0884758071234736
0.0965346881494428
0.100228971412624
0.0941501361728164
0.104182028692057
0.0895029255546658
0.102184478289953
0.0914506634320292
0.101128421183639
0.0947234663689413
0.0962594351563366
0.0996374958996616
0.0920079251506182
0.0989561857452208
0.0921356426004088
0.0985681129904336
0.0937108874523171
0.0998082010273212
0.0940055921736687
0.0947153431919088
0.0949374208418961
0.0928314922525643
0.0948783350727524
0.0974901037080747
0.0926455516784327
0.0956729735843615
0.0909914812279269
0.0990328345440789
0.0912683427208955
0.0977377640228915
0.0935306030473177
0.0969340096796637
0.0962642105462506
0.0966715033104581
0.0946080882569593
0.0949235913234013
0.0930759953426364
0.0944408906031299
0.0960945445377668
0.0972971212466878
0.0935749998188365
0.0954229966143294
0.0916624688316414
0.0947745935799269
0.0964987281241802
0.0977131396221197
0.0972371224428229
0.0976073611504512
0.0945306430413253
0.0976904037577267
0.0929967692850695
0.0950221385481995
0.0933365556013768
0.0957212511230076
0.093029030600267
0.0962150569796594
0.0954872866026261
0.0972832099012694
0.09455005954709
0.0964315081500688
0.0948498383895229
0.0940188618434691
0.0938104832513207
0.0969355780205461
0.0931267097841287
0.0976809008875751
0.0958420069986156
0.093808333904136
0.0949643169098337
0.0943984170046027
0.0942248604448371
0.0940462579527409
0.0932660910880524
0.0981967590350685
0.0952447516617791
0.0962675940571413
0.0939772979679696
0.0998147800211
0.0953207747914467
0.0978694579646939
0.0931896436805585
0.0962802426686323
0.0940805835338035
0.0982152138051693
0.0951312281622204
0.0965889949438292
0.0950389956361122
0.0967063759941426
0.0954531516244952
0.0971981598382088
0.0933597106587841
0.0969442339810131
0.0935536501340247
0.0972227789766937
0.0961951645189504
0.0958315042419615
0.0943423508564229
0.0963684000109304
0.0982362724998996
0.0983005907786282
0.0966589294410324
0.0944306705469868
0.0949052428340329
0.0998590854263397
0.0940113402999745
0.0972070012838227
0.0964665650250464
0.10009260191474
0.0983603529396291
0.100456910643532
0.0979203859397845
0.0989938106172207
0.0958987089238066
0.0988504475070318
0.0970596151521665
0.100452394387233
0.0967947995899237
0.0996279663515086
0.0979760034081996
0.0961849934793229
0.100362058602418
0.102100892513026
0.0978912074354567
0.0995540484193453
0.0990185729929423
0.10314345788093
0.101351726739637
0.0986035637534235
0.0984265835010011
0.100327383958202
0.0975939596943452
0.102977874012532
0.0994654061087731
0.100697291485158
0.0989183204826926
0.102316178194306
0.101716268636768
0.0996897340541046
0.0971476746301567
0.103463563282591
0.0987697856430534
0.101450188903407
0.0979293917959723
0.101411262344576
0.101205470420027
0.10081741292415
0.10139883844795
0.101387465046445
0.0991566045711803
0.104228660410229
0.101735484315791
0.102442967748557
0.101314653994373
0.100580132487147
0.0992862592625934
0.101896091991502
0.0999418925722319
0.102581422696709
0.104025044076496
0.103587034967427
0.10319269478597
0.103975544256065
0.105822770826369
0.102117947628727
0.104037252496727
0.105692526853362
0.102894385893403
0.104246509409898
0.102713461486324
0.102610128104215
0.104971774663926
0.103542111194378
0.102742024805416
0.106176638351535
0.104681865200776
0.105715244320241
0.105988559898233
0.106286142761447
0.103000135952013
0.103750687735862
0.103106302311273
0.10631193212047
0.103799117602706
0.102712554764037
0.105244779867261
0.102917639916787
0.103658749470745
0.105227210908334
0.0999894725580292
0.101573743930509
0.102493269666705
0.104482142770399
0.101036144447784
0.106679217623985
0.102851421814197
0.100887721606429
0.0996654366401273
0.100646815637494
0.101030212147802
0.10212218771552
0.100701774987274
0.101166054246329
0.100778294621348
0.100681171182842
0.0989133702463418
0.100265808002066
0.0961134937377581
0.100548921443828
0.0993961388712812
0.100164352477952
0.0982259954060244
0.100121366795426
0.095221853015386
0.100596567621688
0.100364866367554
0.0984118715616807
0.0961381073835276
0.0995563907994939
0.0971072521332602
0.0990664252665046
0.0965158044141167
0.0951887090519528
0.0971092903432906
0.0979844893923205
0.100719560920676
0.100239994176052
0.0978800776688183
0.0978745325282588
0.0948871997058238
0.0974991552415539
0.09494772931363
0.0966550327162005
0.0960790951461977
0.0956040565478076
0.0969471046369602
0.0968856795731801
0.0943719151110229
0.098865725668998
0.0933587830481771
0.0972494550066806
0.0968641079774403
0.0965278978657674
0.0925224952063017
0.094410503728884
0.094616196706886
0.097583016626578
0.0965006910767869
0.0950985517293969
0.0922747562016243
0.0950573254945516
0.0923794068088921
0.0947627850199403
0.0911934837163462
0.0946737101750783
0.0930547983481003
0.0946220671469692
0.094705445338898
0.0953639363252692
0.0943504856636002
0.0962872212839016
0.0933657061269007
0.0948507418620956
0.090893101178283
0.0932247515328495
0.0917920158297227
0.0908641250348518
0.0912594181767422
0.0929639382126167
0.093662478118101
0.0949244705137184
0.0934987202241856
0.092854744541544
0.0920300614831308
0.0924882137338797
0.093144476235387
0.0928801219378134
0.0896414561270575
0.0957731955341553
0.0899222441843571
0.092037490992638
0.0905511366808058
0.090819859687162
0.0885563637280212
0.0911280983501166
0.090250278398319
0.0905996590991953
0.0877143445892525
0.094595712331815
0.0886851576243426
0.090504153328055
0.0877264572361983
0.0900354469887018
0.0884490940327692
0.0911350379078036
0.0899570949563736
0.0895939090656913
0.0871541731783953
0.0884573996424887
0.0861388087637824
0.0878710575300783
0.0860562554559162
0.0907105705636888
0.0869562560001351
0.0896741363501636
0.0860306051196419
0.0857128687627512
0.0843413646293857
0.0885291951670083
0.0846463316903352
0.0871681440263999
0.0861581373907719
0.0853892483577199
0.0840687882744324
0.0855833937594494
0.0813091064864911
0.0845728777258152
0.0836681556290873
0.0838089900943868
0.0848662287953726
0.0817428190458741
0.0835088667947128
0.0809988069787008
0.0818388378780398
0.0817094916704877
0.080143511051474
0.0814709281382054
0.0801742592118953
0.0800156781543725
0.0778788872172133
0.0793980419118764
0.078596985680644
0.0769440945681388
0.0789808251024304
0.0783871134593742
0.0778796118301795
0.0765186388184364
0.0774152465116522
0.0785561673510033
0.076045234139499
0.0785968863993487
0.0764446440921932
0.0775660953979424
0.0783263571922615
0.0760205581472407
0.0771193111970349
0.0753043244013216
0.0753576792890189
0.0780231646118896
0.0745943718044395
0.0769045879473124
0.0724164610671057
0.0782513890649694
0.0738383675921893
0.0759903273683376
0.0708556652258929
0.0764400863412987
0.0725951535816892
0.0735585743936461
0.074787722975004
0.075123863671912
0.0730661674263174
0.0780776109954539
0.0714025695702582
0.072625676187117
0.074136345849607
0.0739921665169912
0.0703742438035133
0.0759023597580425
0.0713051541597956
0.0732674969136013
0.0699117961860002
0.0739591314253401
0.0690828053019671
0.0762588911875507
0.0725437562265793
0.0732805758753119
0.0681951800994539
0.0716385311241615
0.0701767832276875
0.0739392247544864
0.0690197072307489
0.0730279940510132
0.0699208486593571
0.0712030185308325
0.0705575329656634
0.0695204634321884
0.0703393222474088
0.069544588588128
0.0677570633436007
0.0739473123401102
0.0678521929898868
0.0717198958437311
0.0679103369790875
0.0697991021050632
0.0665785326125082
0.0701771383589462
0.0661121080125338
0.0713637702762344
0.0651671517131681
0.0659962826286599
0.0743082304122298
0.0671620018763043
0.0684048244267211
0.0655877244016923
0.0682684678309205
0.0687186915834953
0.0675834877284038
0.0659884791041504
0.0668441502610321
0.0686288752952174
0.0718832552834733
0.0668603993655431
0.0674939940228253
0.0645277332776958
0.0652165993145237
0.0658316734682243
0.0656170574193441
0.0640287740426661
0.0700245302724463
0.0653894591188745
0.0631078003438706
0.0709360466645996
0.0640269706312001
0.0648805864101212
0.0682315821956054
0.0566950301427917
0.0752209537815473
0.0647145163186759
0.0683743205770442
0.0646810846688256
0.0648090782860465
0.0649031974039522
0.0651774407100121
0.0667716604725549
0.0649295099558386
0.069072970032813
0.0636236809981718
0.0697423942484505
0.0638135730503535
0.0669770860605431
0.0660532725742306
0.0655721102882719
0.0631544594984622
0.0690435808532051
0.06536717941029
0.0659066183940833
0.0638889501059014
0.0640431204003442
0.0661790129909016
0.0644986958090342
0.0640738925707685
0.0675303290197995
0.0624926600552126
0.0659335937603898
0.0670749692709641
0.0630097649010667
0.0622311443973358
0.0764341288232246
0.0608684268026671
0.0716116403049107
0.0614133144120957
0.0686983706061687
0.0648813587769708
0.0688345089554094
0.0621044393458483
0.0661324697620685
0.0623090657054375
0.0660991749300937
0.0624167285445483
0.0645289649591694
0.0619221416871274
0.0678047538881877
0.0624668457410966
0.0671094400910651
0.0660689555119448
0.062572156057821
0.0674094455641357
0.0586668070992009
0.0643479640306152
0.0715901688982859
0.0659125250952919
0.0672424079715495
0.064778592021567
0.0664325115775502
0.0623292547569248
0.0695344418466385
0.0628657193826233
0.0664052513530252
0.0632069400307704
0.0695507337189582
0.0627739690990126
0.0658004436184691
0.0625565788843228
0.067519980036101
0.0602216102743859
0.0706706647810265
0.0586377609062886
0.0701689321307817
0.0602811866655658
0.0709369278144499
0.0581229674154901
0.0718650451954587
0.0606890189264772
0.0736040404020979
0.0485339402405917
0.077699341841717
0.0733262777224093
0.061145731619815
0.0714651358583335
0.0620599740847321
0.0659319746497669
0.0631135670884035
0.0649248599910522
0.0708238414178904
0.0666667480607666
0.0667934671193073
0.0674472514130749
0.0682599928000899
0.0692974306182646
0.0637372133138047
0.0623632027667382
0.0776201056784445
0.0632071493906678
0.070999404219977
0.065648272806754
0.0615011548017466
0.0811990940534276
0.0661581723806009
0.0722594876770495
0.0672144248706712
0.0673182901424419
0.0710404912898642
0.0699188403338964
0.0668769670705652
0.0671793235602007
0.071677607437724
0.0684418256201198
0.0714381829228171
0.0663913180166368
0.0726665747128553
0.0680326717446798
0.0753200608695745
0.0743259584735594
0.068415206944552
0.0724018956444491
0.0718871075730246
0.0664641657016546
0.073585489823329
0.0731647504409033
0.0717435910388188
0.0718353346553294
0.0803631267720764
0.0673777407992253
0.0759563820579769
0.0806681091649656
0.0723011276091056
0.0760630163398068
0.0716523800750319
0.0805753452278614
0.0694813473343989
0.0662244248873892
0.0944366510718636
0.0704335033862019
0.0958628322656983
0.068601431714445
0.0859942675405922
0.068790295973384
0.0859578702092517
0.0669810047510716
0.0916539704102738
0.0691268785559671
0.0845047300251896
0.0702122885526249
0.0835591151491773
0.0834551549301248
0.0786920914429351
0.0803780949294507
0.082635306418134
0.078583706484492
0.0838209001197141
0.0840651519557117
0.0678611841383744
0.0916971064942217
0.0924493796345309
0.0916259274458933
0.0894488879118931
0.0694309254592994
0.106669645963799
0.0799986836316636
0.0911918766287752
0.0826436430787454
0.0882900790046974
0.0854030864651121
0.0793072463698997
0.0963003112152331
0.089796021505617
0.0835016527941737
0.0970683829215776
0.0779478682571363
0.0980472080787241
0.0895474517868823
0.0943107115701939
0.0871820411359173
0.101611761684737
0.0730386410022948
0.120665277680435
0.0988873980423382
0.0960527639139026
0.107900161402332
0.097804899747948
0.109280159088316
0.10321014650915
0.103996379760296
0.105110731602359
0.114915537805994
0.108915924125863
0.102836072629367
0.111584706376952
0.126391189029405
0.102344275649262
0.121836622059106
0.110258502747889
0.105371455534094
0.118822158729979
0.140441307331021
0.130325359351266
0.128698018099207
0.117330387661854
0.136935107420019
0.12616137288185
0.128704178751145
0.133293567519112
0.128533174181362
0.135296497235887
0.129116115356006
0.143351947819843
0.136501499729794
0.140507985574555
0.139645884559146
0.135880670983669
0.140231652512511
0.146979146806955
0.177034570381145
0.136590702329188
0.177613208068968
0.155924197995326
0.160045379380398
0.155247025328548
0.155442653175533
0.166976738043451
0.163192688011373
0.172224202644355
0.16147700535669
0.176110321256245
0.181886347325556
0.165561320629686
0.198408968763852
0.175259040297436
0.196616441242441
0.141022724779308
0.29077432251952
0.201009327780346
0.218268156403574
0.210199965235306
0.19630947673815
0.272312086372366
0.2335188702287
0.241832940928841
0.24974285837876
0.251662304179173
0.259462276462299
0.268465611404018
0.272771530581706
0.284305699410588
0.294607282709462
0.284414123564175
0.293867234913725
0.336726179455227
0.339368981647404
0.34833166932791
0.329102462618104
0.353604099785112
0.362173845384681
0.361424794628064
0.373036324538632
0.385085515440514
0.37169712535371
0.458455923156896
0.402196184549607
0.425955981711207
0.413207005153782
0.467837281153087
0.417864709851239
0.491167689049502
0.479372005423257
0.476224375242974
0.493935052778175
0.489431368048398
0.503314877935957
0.493539012530755
0.538516013078683
0.543122447481393
0.536450941207553
0.549219355370609
0.541092248251779
0.559975343813151
0.570954598635436
0.578412308651275
0.561127324859356
0.620055049501678
0.545279023995762
0.673623864282273
0.616909369797867
0.588280186384006
0.59885403444016
0.582113781003795
0.609969147207281
0.594697236013689
0.619113021398374
0.631686079503759
0.590195916964987
0.616020003861264
0.606352768157963
0.620192866638397
0.61117891110603
0.629289417352183
0.595513257076693
0.630087800791991
0.600034017394223
0.609175168706732
0.65676764683905
0.602728330775284
0.613686950183132
0.602686085805131
0.589146732717897
0.593055942719726
0.605450654259208
0.597780000095753
0.613201768707609
0.579128934484907
0.598875461392889
0.565976781187888
0.588170916987962
0.602617474080105
0.558911809578593
0.562430423481877
0.550445884154589
0.550176040202334
0.534518042164924
0.530795734723771
0.592472516134514
0.527863076565466
0.528566000712751
0.531882789963072
0.530057090402431
0.512702604708565
0.505816881640413
0.518168295130828
0.521212818363581
0.496208148155071
0.503735372424405
0.508063506476299
0.504003837262248
0.49348870662441
0.498910971478742
0.487219002434407
0.486561622947211
0.49211446201537
0.480243022094608
0.491454581667716
0.490596476278484
0.485310974156622
0.482637395065996
0.485589583897095
0.491814223077977
0.484456959119763
0.484802060660814
0.485070214836379
0.480267922118253
0.483831628038814
0.482626474521423
0.48422255679737
0.478380469347287
0.476484881738811
0.475228597670505
0.473793418580754
0.478086617782559
0.481003807845472
0.46860409452111
0.478750816430764
0.465303306956175
0.474986591066494
0.437304187888887
0.496604356915134
0.489851486222619
0.459076971184607
0.477064000070769
0.455538075997831
0.460713861679051
0.442119810578584
0.480184544246295
0.467948796813882
0.453395859312619
0.446680061376666
0.436219172749778
0.444006298297749
0.457644383839291
0.434473339478604
0.447500193548005
0.410628795083364
0.439812155136283
0.466119343510267
0.427901601747164
0.489443186356084
0.434394543535101
0.429262455910977
0.403571744188079
0.452249864656956
0.408044227328427
0.431305835575231
0.408477327876397
0.435618744235312
0.426591684719069
0.411087016500671
0.41358480999564
0.404134206119696
0.412970633559857
0.426817396748114
0.400339455818768
0.388287822207536
0.420387072927471
0.38828091178548
0.410903144959847
0.415586630102342
0.404602957579966
0.375280292657738
0.373728044960343
0.373850468607329
0.360948481465452
0.406918161127239
0.366664491347869
0.377625327612166
0.366020064724402
0.348543860036262
0.354852531272188
0.352096769118232
0.361210586821415
0.329432982473176
0.370589449594694
0.324616012923706
0.346682782198749
0.342983516077722
0.344253001149644
0.351866445385476
0.330102425135984
0.31966150738074
0.333871597126231
0.350803086918493
0.316374482459943
0.333994858812392
0.312205857713187
0.302671108159092
0.325920033472628
0.308454898893241
0.311207617795428
0.317605406991248
0.287701269563404
0.312620295632497
0.315055624812082
0.325968384959244
0.306346426841244
0.289954635710526
0.295381121940384
0.290003251713537
0.301329955443751
0.28494528626
0.296746554087371
0.30746743667684
0.266607151962352
0.329861024506287
0.298974464220416
0.299833558787663
0.305902130758735
0.300106277622625
0.298453300949911
0.311102790020242
0.32238160900675
0.322849112012354
0.314927908708754
0.33793377888614
0.318330800954798
0.333581940622185
0.327472285975059
0.346215590443509
0.340159997801346
0.357555735653342
0.35267077090719
0.361017263091882
0.364891050824177
0.371589605074642
0.374067978874159
0.421383652906226
0.372215354417622
0.422308803520791
0.407531262299606
0.441523397128393
0.436743856951606
0.42910634568049
0.448842212657355
0.450387343161558
0.456641689637436
0.458805927451725
0.454318780110157
0.509633675301594
0.474411691929761
0.492265736607475
0.485415024932242
0.500777267925987
0.491381142714314
0.532532556457889
0.498993475914941
0.524038243221794
0.566372798312822
0.518792838737398
0.543055207699092
0.52500840958543
0.539137231895414
0.538414145691786
0.540710872720306
0.544528595843635
0.530735289672025
0.562993530872659
0.549804740946121
0.549679971128977
0.55056315557106
0.554283720732666
0.560264196043302
0.566159712437863
0.571409821841251
0.570906079975105
0.569336852746318
0.580778376324578
0.540438864977126
0.620323776395997
0.596124062657556
0.589849382342976
0.600594315519766
0.607684864847249
0.620839316970739
0.598579734782178
0.619336738596809
0.625419257822721
0.619683726064541
0.633414588710283
0.626058907480883
0.636381415699981
0.63092417721899
0.655695451600186
0.639183275629332
0.650081705680156
0.640016462009231
0.649325536082702
0.697637546835446
0.659565660266861
0.678194479778053
0.666457868108761
0.676580377816995
0.666184180569366
0.67330621332647
0.671976628551929
0.686667687033363
0.667830043405812
0.68102204641594
0.685007797867535
0.678171953599886
0.683521683660001
0.67439961941562
0.683922036467442
0.682452587844159
0.676566056307678
0.673216601862205
0.676173249224475
0.671127407998955
0.68164915190307
0.687737887870787
0.669282534133402
0.68216251820847
0.667395279465231
0.678888753206536
0.685584680117059
0.675828717490348
0.674870333771323
0.676417977927894
0.671115820928815
0.677235714190971
0.67566349243045
0.711849761631433
0.692877266890966
0.68698218167095
0.689742915308013
0.70325062114789
0.689905449453391
0.693189211644532
0.69724764076736
0.708058440889353
0.710197342126571
0.713027515816381
0.70269858499829
0.709572793236358
0.724966771797641
0.715982430483436
0.714400348912446
0.712215205917356
0.701900141555822
0.700765113327818
0.695319436045381
0.702191813484887
0.698089633809426
0.690149483723894
0.682649548460198
0.680170011180287
0.667320530268388
0.691625917230818
0.652256153865433
0.659505351690525
0.662192157712594
0.643849529019141
0.639755875558462
0.638440056440455
0.63461597228387
0.630029920267724
0.635682228723917
0.62904660776763
0.625297368683718
0.625660698288964
0.624444991143143
0.62374650205299
0.617574230982122
0.615428345138754
0.619289037519203
0.616611492284317
0.61454893100017
0.615664535791216
0.611694961842021
0.617118504914357
0.607276687421192
0.607858229780309
0.607329702931142
0.617285718340645
0.614763741631039
0.612614902259286
0.617777571796931
0.612841161195386
0.61458170457268
0.602124875015527
0.606651616335551
0.604429746894826
0.609076370459129
0.600055245562891
0.610080076476413
0.605324608673253
0.602275072125466
0.60205654041592
0.600252579067684
0.604302800057476
0.60922017249862
0.600226676500387
0.601972794278326
0.601941706963852
0.603668729328743
0.602027173416679
0.596416660405462
0.601978927780025
0.596057295362032
0.599961599509096
0.605575546228988
0.606254051169879
0.602199001403173
0.60006956281104
0.597429477955813
0.599606414271264
0.604918178562749
0.595276543625583
0.592045152726028
0.598103260119309
0.598194817454958
0.594962756911176
0.585377112593527
0.588277306971943
0.588269073823515
0.581318981975407
0.576703706194879
0.569531213693858
0.563036110799875
0.555776620273487
0.55311016090085
0.548788725741949
0.545846959679824
0.542244492376636
0.539169329397608
0.533147513817586
0.533423881546717
0.528433013035844
0.527555668930685
0.528845760614993
0.524992450612827
0.527926189511819
0.526117764715798
0.523192126915159
0.521572202046521
0.518109201888028
0.520314559668305
0.525691807305783
0.525942065798193
0.525486642276495
0.523047008557802
0.524875202669189
0.53261990917578
0.527326421482697
0.530618634157545
0.539587353566528
0.535420960665363
0.537667199850161
0.542047437233375
0.541560963089503
0.54851428283445
0.548271280630463
0.544748922981314
0.551710237510714
0.547854038551728
0.548616532592512
0.553831338635916
0.555810026208621
0.559999901042744
0.554719304943525
0.551600036567152
0.552809718869662
0.553106975774334
0.557137510132409
0.556232915475081
0.555316547332653
0.554978422247275
0.552315728622291
0.550442034062828
0.551723370768352
0.547721262046943
0.543639643087101
0.545120455364387
0.543766180967756
0.537872385250455
0.536999974226622
0.535922740982241
0.53500368390735
0.529506689828577
0.526079236809959
0.529042660381909
0.527294452883953
0.528545032180367
0.525671778691362
0.521626004404847
0.519636417760009
0.517766204238067
0.511765409704058
0.510721185547341
0.514997070507277
0.513119591324221
0.510963316909176
0.50868649154543
0.508116170339207
0.506515544212719
0.503918067009409
0.50218958266698
0.502973045720282
0.500253230092851
0.495736504440101
0.493186207104955
0.492984073941822
0.488998628155297
0.482483844440603
0.48034003952571
0.478232830087485
0.477283642846437
0.470146599188821
0.465956736677384
0.468067500608677
0.461838395435381
0.459717826043656
0.457545733785697
0.451778820975675
0.44793002609976
0.449629148538335
0.450724220750916
0.446270900542878
0.44756695513394
0.44701493116192
0.443534782668189
0.441816708199265
0.438245839064934
0.439745397930958
0.438026467375164
0.431851876801642
0.431144945654064
0.427326733146726
0.420343044282848
0.416263495417098
0.413239010508498
0.407394738347011
0.399152622177734
0.397879860633735
0.392074474678905
0.387639375235778
0.38871529222817
0.384575504996586
0.38877536013938
0.392041888089515
0.394924839666062
0.405910754778755
0.413486237938761
0.420670574246008
0.431071480782169
0.444725559434156
0.460685491163105
0.476785988236824
0.492517635805156
0.509452690039103
0.53029083824846
0.551696417304689
0.572501107899248
0.592758672246659
0.611220354673135
0.629090074000154
0.643545323118559
0.66453462677748
0.687088639081999
0.700760018448545
0.71762456184524
0.731974697472131
0.747810373722889
0.768132201967135
0.780142044319359
0.797448467107287
0.809779628947898
0.821211695300357
0.833281286225333
0.841331294510428
0.860582050926023
0.866136984879251
0.870066330992132
0.880790879172395
0.887420019146875
0.884439183292084
0.880161985908778
0.894134631309229
0.896520426347532
0.889552032883664
0.891822056276607
0.892945898757185
0.898389621780797
0.897933657101805
0.902054234963294
0.899385139100053
0.899692460214994
0.906372845754804
0.905125705587085
0.919051967979326
0.919019125572091
0.91886400240593
0.935761974712082
0.935113809883609
0.946691090680114
0.957560133006191
0.964951168589392
0.960638875104758
0.971035748717634
0.994910153488794
0.993787223541642
1.02271884461379
1.03386043980645
1.03584519988379
1.05386466715859
1.06869772658286
1.07246992868084
1.08846944143923
1.11400460397812
1.12721033744981
1.12584152138412
1.13165690926552
1.13611326267635
1.11918885811169
1.13448099072744
1.13426719406342
1.1307516317495
1.1404661180762
1.12942671727616
1.12923630283116
1.11675921886645
1.0928739791781
1.10852609376369
1.1199981058819
1.12506289930216
1.13646795476367
1.1417335008159
1.13437133753082
1.15987319665924
1.18926126108034
1.22027305918415
1.22127663684869
1.23083655434366
1.27094275355439
1.2922526559555
1.2785475689539
1.299398612946
1.34271536590777
1.34897446515147
1.33963641005346
1.36571380571729
1.41337949830646
1.42450868115718
1.47114617355457
1.48523923172551
1.46580529863997
1.49392844478247
1.55125661968277
1.58265762956716
1.60787799254569
1.65520865244776
1.60705945052224
1.62426099484313
1.73979323729117
1.73332200851882
1.75580687647758
1.76787961307062
1.77782262975102
1.81759166756521
1.8382570305295
1.96239385790118
1.95471745115379
1.82268282116775
1.79054537508738
1.79956638466586
1.86232926271995
1.95579793137942
1.82957926444053
1.84346006897897
1.79922251919385
1.7416012739806
1.82420881138912
1.87074027557831
1.84738751137841
1.82934505150125
1.73749356126805
1.81394327014954
1.91592233960286
1.74273153414333
1.73080262138353
1.86679250592882
1.82773618473034
1.87097947924261
1.97216696547713
1.88899319425708
1.99872067716137
1.97882047785046
1.89661537282068
1.98660361460386
2.03639662642745
2.08345099885085
2.1273748199193
1.98205552373943
2.05036149705939
2.23816631854002
2.02084322836452
2.15010965872287
2.28051292242475
2.10917416931081
2.2879499279514
2.33563517269263
2.24641265022757
2.21273619108563
2.13972992307467
2.1846752754707
2.07823204189288
2.09295699733781
2.16919555498765
2.03898632334053
2.05228750297773
2.2420167722216
2.06018298128404
1.93671340218477
2.05636344205478
2.39456882582727
2.25267870565182
2.17952435267635
2.08942660266876
2.04434149860206
1.95971184327019
2.01475018467616
1.99129724039975
1.92251168594614
1.9381735111091
1.91619303876974
1.82132694622182
1.86973918813406
1.73070446902607
1.66033691263069
1.66571411219265
1.6001535601343
1.6260787310608
1.61129034791423
1.51372040927901
1.52215511561427
1.47484167719172
1.50037528592658
1.48142675704704
1.39725541453711
1.38514864981608
1.4040305452998
1.41048062658508
1.41626328545922
1.39224884783133
1.36565958835718
1.31553082971929
1.37522257493925
1.34615188128945
1.29332356540816
1.26043192058964
1.26412078961026
1.27616918068986
1.21615208980069
1.17357263903507
1.17400480894483
1.14111183839042
1.12136205972725
1.08664770453909
1.034621538993
1.00022269710406
0.982087873717099
0.942985730039968
0.892908996412061
0.85913530889776
0.810030445112507
0.776337094296572
0.76010068607389
0.732782218807695
0.696464962021008
0.667181959496749
0.6536119464155
0.623917164002423
0.600257122413864
0.583202612902801
0.571410412582053
0.554386936365001
0.538278418340528
0.536122970395727
0.527310361511673
0.517459231494449
0.507978753730119
0.500473954031405
0.498933224476807
0.499058448858786
0.49609783873337
0.491689906035256
0.495924484288784
0.497101903764968
0.495522231806156
0.498140781168872
0.499538741431596
0.503911794463443
0.504601689047719
0.502908350597659
0.504583803746754
0.498494676401589
0.501724118148265
0.503071204532216
0.494964620454674
0.489439010594
0.49456398491772
0.486339020980802
0.477487248563488
0.470948877169705
0.47761603617535
0.473656894923933
0.468657699891853
0.4679542775515
0.464222136621633
0.459630073771065
0.465793781716128
0.463487733573213
0.46478689585307
0.468609013004536
0.470845515695357
0.473774486424478
0.482778959608405
0.48851494651858
0.486218668754057
0.492278914725932
0.493076450930548
0.493287336753297
0.501719660885613
0.502942641207626
0.501137460219013
0.501923548301515
0.508734463812971
0.5074256763464
0.509328954073293
0.509928062881144
0.507383540387202
0.506938668917039
0.517567759302718
0.516814907565554
0.515419650454914
0.522379590563741
0.523472691534079
0.51903949218647
0.528796953990436
0.540587298299649
0.553091789934477
0.557221101703755
0.579636063161929
0.596098947383945
0.604655666018607
0.613503508040951
0.618173197297997
0.641586230695047
0.664026783133259
0.672319366439111
0.673203695573036
0.676611328399693
0.673713215085152
0.674486686919792
0.671781783585556
0.673736274689695
0.671902417976741
0.650387469231813
0.640703707153548
0.624463875464184
0.630691238811146
0.611217272111643
0.60820561849235
0.613760655320832
0.602504336843186
0.609264097647022
0.614648279500697
0.610414471750137
0.603930337653283
0.597913843285538
0.617351928353499
0.622242017051193
0.616944824227611
0.610368112788767
0.607556220706338
0.592850904369088
0.576478144095207
0.58009389546175
0.5722742914113
0.569188429320037
0.570008386329316
0.576863046794837
0.570061475740942
0.553446613412381
0.552334214932234
0.551358741748121
0.570761243573766
0.541822921900071
0.5517194843235
0.53939385256399
0.547061714234317
0.544750915834262
0.528309608006793
0.532273417041351
0.52638069907152
0.525788036283184
0.533908488236952
0.526453654385661
0.526139599105209
0.526114821675874
0.529913885307071
0.524577793049744
0.507268635420706
0.526701664963287
0.525535688078283
0.518351292026929
0.505400420657185
0.501772558892607
0.517341906459048
0.500120257846961
0.501822484195401
0.508290831596006
0.494352088132787
0.498233300647944
0.502718731873371
0.493851823172611
0.494523710134489
0.487788183154212
0.488523292561191
0.487313716645106
0.48920493569757
0.488080268537864
0.485846675760487
0.490298836012836
0.50732850905275
0.495153320372326
0.504247693656676
0.508542642374095
0.487027364632033
0.503450987066685
0.504603720106943
0.509420347521231
0.499725283297005
0.507632485303386
0.517107347505012
0.508788031729855
0.526084792533551
0.530805673229517
0.515224135564821
0.509001120261908
0.534019479699669
0.527827039068247
0.542767636198709
0.557729213810993
0.56140871900139
0.552264284797024
0.568507087631634
0.574099925281364
0.583671707874464
0.562766062950967
0.565083877733473
0.592058601987185
0.626943120703417
0.631507202557217
0.65658346235973
0.645505721432305
0.673243397537154
0.655782397110554
0.69293444874187
0.673111919913363
0.750457480274034
0.786225572822865
0.783138583628241
0.774234130204506
0.797460096233308
0.821984172555407
0.819703427293206
0.848085953354669
0.865753140293697
0.805154423204252
0.852137415926239
0.807474704254289
0.836154040021213
0.885836269756015
0.860169431040625
0.779334141839098
0.866051171935308
0.841414131126976
0.810252927468697
0.845716439877176
0.860360573146684
0.806713475064426
0.822248227499377
0.810936760033707
0.822096024888725
0.801108919447924
0.796968987538235
0.761554651000531
0.761929307044583
0.805555282943035
0.788796946150464
0.753463833065944
0.773965308034306
0.734808310731752
0.782498143393848
0.749145162746622
0.807203382038769
0.749143655174923
0.782484090712865
0.744405712273387
0.769636105464596
0.740150601043571
0.759837971124516
0.702812572617074
0.742150125814645
0.753007404495565
0.683250302627265
0.730646635141907
0.805377790488744
0.713014388513545
0.801468809461404
0.705513142002535
0.680105350843139
0.74598185939693
0.823085869798426
0.759316183251197
0.770173941319929
0.749655286866701
0.768897069367935
0.749689542924347
0.794331879174679
0.720588212126965
0.878085957246147
0.810898443166802
0.825730625354396
0.739500840254078
0.833103971718595
0.785672723451081
0.921762336688521
0.846645420605466
0.804498786342725
0.765859627665638
0.870470481804347
0.805648439538735
0.774090186212322
0.817826486046304
0.866113189183266
0.710577637996296
0.814452266616034
0.868610289713926
0.999638015658536
0.923806090904018
0.879024910689193
0.90566763023448
1.03568185862042
0.86518740159282
0.916039980197456
0.872590453382344
0.9182603238593
0.929629179925969
0.987052150192551
1.0325880821437
1.70539344272677
1.26012085279424
1.43173441140078
1.05698063642278
1.22678519007948
0.931252688391599
1.02118253858314
0.910389809984857
0.996542066603431
0.87618553473625
1.37226212828002
1.13761846928918
0.952116671577505
0.984197985909888
1.01558142126559
0.922962826475717
1.2331094181821
0.986492626302591
1.21696416129363
0.980084114689674
0.922968035684902
0.913874554736638
1.90869495935172
0.724283466684614
0.724544557473655
0.897420128019442
1.31106919117738
0.946555206993981
1.0499026462524
1.26517095317425
5
1.18342878738639
1.05176283029617
0.932423170570735
1.87966077112469
0.739205040417823
1.5768125253295
0.700785902438388
1.06751867187338
0.78575775607239
0.752234121002662
0.733193728632462
0.917534317659537
0.787912102523863
0.792100691177373
0.775013900511963
5
1.64740346306885
1.57803691582949
0.561210107585772
1.22129056978729
1.28198272698838
5
0.866983128230001
1.24457165885305
0.691599041976519
0.658716526500845
0.836388962718826
5
0.932734127189303
5
