3596
4000.36533379555
650.420452594757
1
2
2
0.0366415960587608
0.0320507818965869
0.0399077556435446
0.0251137981378369
0.0420855060294019
0.027024874597595
0.0400795060678882
0.0322748912417325
0.0423408509718387
0.0344719926217712
0.0487840208014407
0.028946275966589
0.0393558054846529
0.0236609366477381
0.0450050322574183
0.0223179511331665
0.0406585246901563
0.0176598674074933
0.0418060034698446
0.0215194014265045
0.0471268796456848
0.0252205472243233
0.0422231875167475
0.0271057660549469
0.0445067402466057
0.0291627032184898
0.0362876751482223
0.0286801030518291
0.0506418131096407
0.0310034126348654
0.051165241414559
0.025901292181315
0.0462550682502072
0.0246462746253613
0.0391435078084367
0.038660228196273
0.0442483755278141
0.0300978978908779
0.0373566484421737
0.0261211351890264
0.046976504376406
0.0245220351447462
0.0435366644923636
0.0288859882075835
0.0463714189261674
0.0273976987901505
0.0485237719578184
0.0275202929510905
0.0355005626053836
0.0316181626845856
0.0495973783872833
0.0234149066834953
0.0429714438599082
0.0352321544610106
0.0390896282267416
0.0332835661956636
0.0417259694927921
0.0318480502574598
0.0438905329339527
0.020294650114669
0.0447513344025758
0.0337553253631311
0.0422614220261043
0.0277563694304006
0.0446105576993951
0.029328602715598
0.0387233997666842
0.0270023054944673
0.0279110608597078
0.0351888967731267
0.0314228414449979
0.031330294755147
0.0476949887682175
0.024205140336997
0.0462896164745395
0.0252886551251501
0.037122610925168
0.0297723229805318
0.030900759998741
0.0392950727522913
0.0393190166319363
0.025691090044536
0.0514706403280104
0.0246412490508039
0.0321717009788475
0.0341879977167779
0.0338542732295561
0.0198810393531467
0.0472539826039991
0.0333380670672494
0.0492611174360553
0.0257240926060073
0.0400880782461789
0.0281803387674077
0.0417321800157022
0.0214715086269643
0.0345512927014341
0.0331041352970614
0.0356121297901038
0.029712704189199
0.0455571521784655
0.0190212445829424
0.0595143802213086
-0.00363863811487138
0.0747061357442069
0.0358151607796581
0.0217934213360008
0.067866162037397
0.0330155590812178
0.0323714728045247
0.0373662899106764
0.0254119454547378
0.0358799090826277
0.0358255687439673
0.0223692113621147
0.0201412736574407
0.0645663671166253
0.0300359537519035
0.044244657111281
0.029828425966386
0.0210332940487851
0.0272378653527213
0.0720214524866083
0.0179617582772799
0.0421078428819881
0.0271393088770217
0.0268348599283492
0.0280455436685352
0.0663248487930335
0.0282775985617505
0.038115171040069
0.0170573571725429
0.032208525407101
0.000188201703158913
0.0620168254589701
0.0210262148129157
0.0395699833346975
-0.000829508480946846
0.043631925082361
0.0462325663387875
0.0526149388881935
0.0272674702497646
0.0257700941092845
0.0105836471423029
0.0593334261481385
0.0274858551150315
0.0301743988601038
0.0358232467944685
0.0500403272919884
0.016744079745255
0.0412841286462937
0.0136732546621686
0.0462229882384141
0.0400021609615721
-0.00299707732360441
0.000739600341422167
0.100839059004105
-0.00411901489070932
0.0837831957170012
0.0088939460160412
0.0472076891638641
0.0261020918517056
0.040059858144597
0.0160586086188727
0.0397926816425847
0.0128807256609334
0.0355682578319921
0.0411405017748998
0.037034699243391
0.0184007642147519
0.0521051378804993
0.0179835153505765
0.00520786029843479
0.0497929397130036
0.0532521839167111
-0.0042503922478473
0.0531060265686433
0.0378233813755585
0.0342744401919089
0.0137926248377383
0.0710349448473768
0.0243608391593713
0.0478315776102602
0.0183149621651786
0.032664698842143
0.0275777328696031
0.0423924746183126
0.0165901764499543
0.0389061601006798
-0.00475353132319502
0.0311109981639568
0.0360280987741789
0.0617365908446739
0.0194197038218987
0.0484402005109659
-0.0110186705173053
0.0432153949602375
0.0477470923777278
0.033510002772123
0.0203557616472323
0.0387157031395333
0.0201556209573204
0.038460554309161
0.0181439916461192
0.0351783828696277
-0.00497295828428428
0.074649518599859
0.0356700018274877
0.0402999480663118
0.0183578641914081
0.0294834136458407
0.000701869470990103
0.0619171695901292
0.0450624333834568
0.0402284079638914
0.027906430619261
0.0243676849400376
0.0135409550796526
0.0550943094288074
0.0240628173824754
0.0324042412130637
0.0244698053059635
0.036707194064729
0.0304303815941944
0.0383744893768592
0.0216668174430286
0.030857215799981
0.0201214113719205
0.0364089369905469
0.0225935606180049
0.0443968881996762
0.02887528401269
0.0304982905134735
0.0235477845139755
0.0323523622748525
0.0130598117974457
0.0534286026288679
0.0266590232108379
0.0424356631701561
0.014929157985319
0.0385813410546889
0.0159976294162341
0.0370287784787764
0.0180923300951994
0.0440339548069469
0.00285010792809257
0.0735649055097981
0.0285720504930804
0.0391683272744694
0.0143543889207524
0.0405291014920714
0.0391884207929913
0.041172719240734
0.027498059506881
0.0333421106581044
0.0253980502468581
0.0180969920983396
0.0449499787005156
0.0319305235146671
0.0139308534183451
0.0410544205450127
0.0381805708512573
0.0311324747088349
0.0198420287195379
-0.00708913925698796
0.0690361437916265
0.0407726396461654
-0.0141567564374578
0.073453426631688
0.0339547754985661
0.0346249319851664
0.0276519662695646
-0.0180199755434401
0.0992771791275737
0.0785147777002479
0.0215370384376306
0.0283344290120998
0.0421479127738674
0.0353286834797219
0.0218434879996543
0.0387276289219384
0.0188523688201034
0.0531730930086904
0.00686841194346677
0.0809257714724253
0.00870763779134685
0.0293583872163133
0.054564257330831
0.0407725207362519
0.0272857042132418
0.0327005744035501
0.0157802828891802
0.0366185032070686
0.0426549171813443
0.0365412939644379
0.0374469495087245
0.0155950002593727
0.0454862462392087
0.0438846751719702
0.0247939248915344
0.0362961449366357
0.0296060118974585
0.0317179000126862
0.0311220457666263
0.0336486647928636
0.0293290483846764
0.0309059039817565
-0.00308720898753291
0.0648922181352957
0.033102349492318
0.0223890265018855
0.0483594702978643
0.0479579305209832
0.0326894067010383
0.0362421551038323
0.0268353906265638
0.0327633588884047
0.0263941251305424
0.0249440749311441
0.0397196489652991
0.0475460224819825
0.0316609817680681
0.0404106924384092
0.0238673053635113
0.0391048047437387
0.0278083307079085
0.0377350135956728
0.0278879147566978
0.0405638434817832
0.0201642142960676
0.0341432488316317
0.0563970010661614
0.0194548485352786
0.0401515321232262
0.0742301204981158
0.018555350873503
0.0487190843137796
0.0299692775593399
0.0427069648857701
0.0265232054674656
0.0423913697274042
0.0307950715539333
0.0372541090378288
0.0269807099194336
0.049007531518171
0.028860147949395
0.0211305222619849
0.028050983806453
0.0960068700207902
0.0412733452456828
0.0511261440479934
0.00852850246588074
0.0421180839393423
0.0628171516013245
0.0474702334070586
0.0636378392348481
0.0420845116519991
0.0466028497521114
0.0475683778440148
0.0465283689105287
0.0394070775692323
0.0417597247356898
0.0472719618693605
0.0404732772294829
0.0493738507783659
0.0393204161909349
0.044780240442947
0.0246083074641262
0.0788464777397865
0.0591179580144094
0.0482674328163591
0.0480212693965911
0.0442472583296275
0.0382949394547343
0.0685507919963718
0.0463033833010627
0.0836784837993732
0.0344383736038592
0.0938488389968914
0.0472725706401014
0.0682821157436225
0.0499019905592516
0.0682199727390069
0.0589880612439221
0.0763966795937726
0.0583643065896552
0.069732633534661
0.0516007386987414
0.0844090535217016
0.0625594148962468
0.0775923516571736
0.0479131338742035
0.0810290916626266
0.0760154853952714
0.0797951199121212
0.0561119051237731
0.0803995594314282
0.0787351225530596
0.101318807209419
0.0809260302709755
0.0814580418134724
0.0815907421779838
0.0841284950775835
0.0894160788430246
0.0903321122813895
0.0844497146448594
0.0890346595817242
0.0998519731267978
0.106202618538829
0.0874568235929158
0.113533309854089
0.0778206638310134
0.107708524884601
0.103403615088419
0.0981532031905149
0.109468253667714
0.115000034236124
0.0864727596031127
0.114564158266268
0.115581032264144
0.106845132330544
0.125033162557519
0.113727091457074
0.111404100684286
0.120382681749946
0.123627325360595
0.121484846264255
0.108917717949727
0.139557376503231
0.11859868263582
0.126183580031565
0.131089180375363
0.139327092655724
0.119483583873953
0.140792758425158
0.129539646889493
0.155551315506165
0.12393635114092
0.157264802344251
0.13970531588815
0.159189556343777
0.148602763654063
0.146493223443012
0.145994256606093
0.165106600222811
0.145938243897017
0.158040802533107
0.154303620562055
0.172952092524563
0.163026379244625
0.17579948460196
0.16287843635163
0.183421131034743
0.173256338621339
0.189317355426979
0.171417560008964
0.193735336518071
0.17823821698011
0.194181693582594
0.179245860396765
0.200916766893008
0.187561981636853
0.209518374783586
0.207795609213889
0.214478984741559
0.222137027286325
0.216847546673416
0.212203423995063
0.235744023543292
0.204851983619206
0.205658192566996
0.211056373221139
0.22407740054041
0.220047203982426
0.235249289405128
0.218983650228243
0.240571486081627
0.218433467467503
0.249495400018859
0.241066209903815
0.272943530487596
0.226765237946154
0.272688435297657
0.247546991832756
0.255721946886453
0.263095838962984
0.276699860642907
0.249715572264386
0.294943027535505
0.265229977818435
0.28724197019561
0.273376413582055
0.302398471133267
0.286187545845689
0.290240051898925
0.273734090333742
0.313938654173195
0.296597002638428
0.316933355446228
0.299765859360786
0.320456802969352
0.303640863332382
0.319992576584676
0.306153575465982
0.326203323628296
0.328574099939509
0.353583317977419
0.326401499956969
0.348959618362495
0.327585330593834
0.357830402481036
0.351673857585535
0.358369469272264
0.343133005996859
0.366380468384466
0.351664440675285
0.378266536389282
0.370720596709299
0.391773543870179
0.361206575095486
0.388239880062143
0.380009801439687
0.400530874076068
0.36844497584922
0.404648326111196
0.378257200531411
0.406968512801001
0.393325383926811
0.410438221717251
0.38631376701167
0.416392165372843
0.396276214060368
0.420052240571755
0.437149441370793
0.441064339806886
0.414141630817673
0.457224541429548
0.42993590173765
0.446669935640224
0.454373276058654
0.478843849536497
0.44100510453645
0.471914033601244
0.455141424871048
0.483367990827006
0.451602612337455
0.49007666106037
0.457033637377162
0.490936274363641
0.481265836986351
0.496380102848619
0.470217987337456
0.495419939167348
0.482791053249504
0.517865265220843
0.503714563388722
0.509420970988571
0.483442634539591
0.512367248161961
0.505920206151439
0.530832314060209
0.517659582140125
0.552553801410749
0.533240299756756
0.532178616774913
0.523658708073906
0.544556150116202
0.524313626103404
0.538440842297308
0.523370877145804
0.551148432453843
0.545755149804172
0.597110547635195
0.554761913204487
0.591901436833729
0.565186614281686
0.601113588933349
0.585624070476226
0.593434371700758
0.572994879456415
0.595585419803129
0.599510563992907
0.594781584073257
0.563870408745912
0.617926894530679
0.580432308494599
0.620207191913746
0.611932390111489
0.627334185085096
0.616796883224754
0.622499334760095
0.596116497528699
0.646723676751339
0.637926510405112
0.63698541825315
0.634344533423544
0.633949691296609
0.639597526646513
0.673019270721137
0.642468898325922
0.676343512301622
0.653990740732515
0.68410186105008
0.650027646808578
0.660776971721731
0.634345438762589
0.675018568912669
0.690338268484403
0.687111432105957
0.667734871619439
0.688872165588657
0.67101181104781
0.699380918784261
0.673583735527183
0.71035091823922
0.719677136576117
0.735599427955881
0.704568718437064
0.713821366107239
0.698194045912125
0.736172035355039
0.69974016241372
0.716366415036069
0.718215248110333
0.745254118053547
0.729887081548042
0.75016988487248
0.719798396826153
0.726435659017099
0.699846353041359
0.733887964380757
0.704836871092547
0.767714916616034
0.738268734622044
0.739774835038515
0.73625351617789
0.760952339485681
0.732919333348956
0.777542704916074
0.748034707096384
0.762139117696056
0.767054875207359
0.776314789987368
0.773718090575509
0.80527646663257
0.787316568907754
0.772205859663637
0.773789631905075
0.824253905846574
0.788840866567899
0.777719279765501
0.751691992319482
0.810206826995457
0.790255944434103
0.807483110863074
0.772195030071872
0.788800367018909
0.795979491167166
0.792416046206504
0.784804475390135
0.815627765004494
0.818598336373
0.799425121789266
0.782414290583272
0.837085950061942
0.81104740339891
0.814892112214961
0.796374926844728
0.830120158915395
0.830456718423019
0.848950441290004
0.803010233359318
0.862727466559834
0.806726855551163
0.818684288252445
0.832849542696668
0.831543667124782
0.840835766643348
0.841514770343436
0.8311397639218
0.850221427648149
0.822057220791535
0.86654340162133
0.839566752844236
0.852473287031025
0.821310295860734
0.855940001279046
0.859007099048386
0.846369465621241
0.849853647160162
0.921209885126622
0.854047673012092
0.836501157255777
0.840860449349094
0.863184422284186
0.838413481058426
0.846469476906133
0.839815039163612
0.84844704257063
0.826939796307785
0.863830222385208
0.833241693637359
0.863538211661915
0.82039169009653
0.830281946913622
0.882710731059946
0.870221197613583
0.861905812257274
0.851975667952346
0.823845372129041
0.885376561263863
0.861676392517209
0.869276565277329
0.865046110047846
0.869421860907249
0.830766325259554
0.848489406653368
0.875030649056997
0.863100430824432
0.832206453560232
0.851331678303418
0.834710153064151
0.854236049405449
0.864787589884457
0.903413370101532
0.862828786003856
0.873331279868514
0.833400066368717
0.861108696924371
0.868150438141962
0.835077436290941
0.829870859881035
0.837503396562844
0.849632598328429
0.887948556860491
0.846180367183292
0.862685525870304
0.849723707121804
0.892230200236102
0.848893356502884
0.835517868557264
0.842208641753488
0.858422112240238
0.835335792171394
0.852220363875087
0.848009380435034
0.849106377518709
0.840156810907657
0.885179082580911
0.86912457493456
0.853593184440844
0.862771120987001
0.881870144081723
0.855764915560187
0.867719255231307
0.84302706846432
0.846129134179147
0.831183851090497
0.845365401029392
0.856109438645096
0.838766149432574
0.843896373293284
0.850283027264558
0.821540682545047
0.831568046919562
0.82550974714985
0.85021852457952
0.819204668908167
0.815888438406077
0.828736051911103
0.855320523810418
0.835635509670939
0.841424144461192
0.820800202660126
0.838297540550023
0.833040723774319
0.819286773759188
0.827188167937251
0.835439140903034
0.816644108679313
0.811951636160551
0.805272796835879
0.846440683978293
0.8046393505319
0.796798601689661
0.82197109330155
0.82456414434015
0.798977319609689
0.818420666592744
0.827061668526587
0.800869708771002
0.812691550084462
0.809116371259658
0.786068592543097
0.79803946410828
0.783827794647841
0.809574073311735
0.789391974498053
0.802756530024259
0.791027282501184
0.790495584644976
0.78405137888079
0.80280668853711
0.78354638207014
0.761246215361195
0.784560015903284
0.781438693598194
0.753582411804965
0.762832728334601
0.753969492043439
0.769473742658396
0.767366051003782
0.772780338926507
0.759427660752421
0.769411156373725
0.743676533779995
0.752421439211639
0.759041588888105
0.744309693403591
0.741772372736934
0.744085529793205
0.721948448021182
0.74404063065668
0.747834941282129
0.750252469651176
0.72368067229296
0.709242206698871
0.714109484995952
0.726550086528186
0.70013966549234
0.715085368233357
0.731286742409828
0.724540168860044
0.724514943431393
0.717523384294004
0.694725163306823
0.708575002787
0.689917239428697
0.681018120005862
0.686871911648034
0.689318595995268
0.680295728835319
0.689933845222842
0.680670595816542
0.6891277094606
0.668512255446177
0.667055961184919
0.676172071755978
0.676089796739384
0.654864732684496
0.66854046616449
0.663225526715988
0.678155456969545
0.667679544336585
0.659554694678614
0.662029316248213
0.661305073322284
0.65160847039308
0.639612613823048
0.628791374284926
0.638179103033412
0.636826773325026
0.630086048111083
0.620015400481215
0.618041962832675
0.606627154498669
0.618329583751096
0.616034064898094
0.61476085443632
0.604167724290425
0.614064131655776
0.598231790220109
0.596002197514021
0.600051335095002
0.607442692325776
0.605367105679452
0.599589128696329
0.581390408085625
0.58761373740414
0.596966936564102
0.58679191731552
0.577039309999739
0.594309668243705
0.58186209040128
0.560584036441225
0.562552631779184
0.580630240796367
0.562416686205546
0.563616249248075
0.553510870163663
0.552288061326875
0.538355524701745
0.540998356321465
0.545759289999705
0.553457402608565
0.547355824472752
0.53140234182678
0.531520773930823
0.525514706003007
0.524332086086241
0.531753208216933
0.512975453195002
0.50352274219912
0.505735228804193
0.512980207159038
0.505666754334322
0.502391786718969
0.499796510853745
0.505760118353558
0.493770791438062
0.496056576084507
0.490400529667686
0.487790538600228
0.481365896375739
0.483309518454142
0.472644084208673
0.477475813488192
0.483457879135141
0.475258180629527
0.47402485850958
0.473624348097017
0.455853703961174
0.445939042132427
0.451685993627117
0.455760004231704
0.449970199011652
0.453591075944053
0.452520815479565
0.450947534306115
0.444383416672211
0.440332676212531
0.443330170020324
0.439054674458942
0.428849145979122
0.43538449062833
0.423880705604754
0.428648851043928
0.422000291653529
0.420443298218756
0.416259574279834
0.408474219390787
0.411704120223921
0.410842155834136
0.400618150393856
0.406624107320044
0.404696569122128
0.398828463831535
0.400693556249027
0.400628826709046
0.387702682112386
0.397433449962801
0.386045441679324
0.383122147714305
0.383053289338893
0.377420343306936
0.380414918562054
0.377037419441316
0.378311344496167
0.380071443230277
0.36846179742703
0.377341146920817
0.374462757939009
0.368664818622588
0.362315268324578
0.367608032815934
0.360082055687758
0.353466392271495
0.349616458637682
0.361553121305918
0.351681715129036
0.347110121894123
0.34504537759758
0.346138315794042
0.343890176214676
0.344913856201316
0.339206216305669
0.334146685830857
0.336286062156211
0.337871573300774
0.331015647661019
0.319735131062198
0.330094361635533
0.330006554587545
0.321289867231488
0.328652191565531
0.319188991080331
0.313772853558697
0.315453339409391
0.320574332886013
0.312147895237041
0.318048098396393
0.313323667894117
0.312600820969858
0.305064193961722
0.308105793403887
0.30426940824457
0.302673123334651
0.297589708840088
0.302305904571528
0.298187508057432
0.294193462682143
0.287400764540669
0.293996779339614
0.292457085810918
0.290148690323558
0.284514713971884
0.284451537817552
0.280670838803846
0.282543738465751
0.2763794005093
0.278212458976566
0.278301520565423
0.278076965588644
0.270171131641931
0.271678835041519
0.278865171246435
0.276549718577393
0.262235980467166
0.257116303462739
0.26319540462388
0.270636677358605
0.258035874701731
0.26451010758569
0.257854081619961
0.258720787188719
0.258935746887548
0.255354594723217
0.248246577912716
0.253556770283959
0.245504203271149
0.25234372294105
0.245441039018432
0.244230927779481
0.240249764145536
0.237496661465707
0.23773050863778
0.238722160954358
0.239071628829186
0.238734415515025
0.23936855411335
0.235574235724292
0.224623140156774
0.239006542282505
0.231387950923016
0.22197807339364
0.227085054811771
0.23040632069229
0.228688960374963
0.229998284280655
0.223284270016574
0.219276929126854
0.213164830681615
0.218792332889576
0.221166352740713
0.220423877673078
0.212171512356444
0.214400440044829
0.212182932075078
0.214312364329006
0.2108061608535
0.210141947220282
0.202128682430815
0.207496448873967
0.206941668800308
0.20825964857624
0.207755212696583
0.211654923561732
0.2033923977603
0.210935687028451
0.207354188188167
0.201072538598358
0.203913700980897
0.20768696409171
0.19933331216312
0.202711908312741
0.20298802074264
0.210246261569461
0.202358403615237
0.200582494590781
0.203327905054791
0.203162207593478
0.204608160500626
0.208386451333772
0.204747362273231
0.206833507508178
0.204808583228481
0.212053482443736
0.207518006449764
0.203680416514634
0.209886919837363
0.212409665489698
0.207838870902125
0.210351690085772
0.212153831446815
0.215158145885923
0.212411329939756
0.217806782169782
0.216043786581434
0.216677653465389
0.21876539585148
0.221774558929881
0.219693577210515
0.228230698286221
0.223246165690986
0.227713031774011
0.225575710642581
0.230471162253417
0.232062863850459
0.233604602558597
0.229754905095599
0.235023465267252
0.230436827061318
0.233079475057494
0.238211304051551
0.24937789781107
0.241181605343261
0.244743723006885
0.245172586063176
0.245152254817046
0.25271420746231
0.24942438719038
0.248927949384593
0.254781568744202
0.257744781101185
0.263361290093824
0.259247600710938
0.259679752366039
0.260302280647941
0.263154979388641
0.267545231750157
0.268489921084968
0.26942720205786
0.270213479351834
0.277072063248851
0.28199642350146
0.280931591347587
0.287429130950368
0.29076580474494
0.28930317381687
0.287108433140026
0.297573624935843
0.297995559869563
0.296190323306311
0.297688392844757
0.296122726737362
0.306203573008843
0.305734272155915
0.296406599108118
0.300767814268556
0.300616150350916
0.299152851767928
0.306410125668661
0.296713668534836
0.30454376244234
0.316817655448631
0.307970218092673
0.302077948547259
0.306937005638311
0.301020330857717
0.300945098827786
0.296296492598717
0.297657744170717
0.298678973612201
0.301172603173001
0.305643621047877
0.301089269617991
0.294031716891565
0.294275089193248
0.296650505597899
0.295814573421717
0.292129327767904
0.295980846504133
0.289354055354198
0.297432425754666
0.297667332012144
0.298145558202508
0.295393043938091
0.291581755502445
0.299748040229329
0.298932523693999
0.296015178234057
0.297471126295047
0.299175167489856
0.297855562499889
0.295742842768975
0.2982243142965
0.296852704806681
0.297340496679978
0.296457349305607
0.29498840424943
0.29356453667645
0.293167676454003
0.287430839182892
0.294610382460264
0.294167453805989
0.292674209513913
0.28969870871921
0.291020032328391
0.291539739613587
0.289906794664887
0.294035360385504
0.289689479994452
0.285800997220721
0.283121504362168
0.288133476528502
0.286607207841005
0.28862435185749
0.285240198380664
0.277583050429818
0.275049715743625
0.28015468675164
0.278634740824389
0.274126289138874
0.277265680727869
0.272375160245775
0.267425404439702
0.267436831551154
0.265698841788748
0.261497693447058
0.258239415544474
0.253891345067064
0.258353724823275
0.255079603065498
0.250123433044136
0.247015422405573
0.246234411641871
0.243269148875669
0.238148455265971
0.241911464671329
0.244296408470755
0.235967793621767
0.232102845982439
0.233989896903781
0.226460941581063
0.226142944652602
0.224154994978802
0.22313642635341
0.220463795562457
0.222103753064298
0.215915081384666
0.211429435323204
0.207644236593035
0.20775319779994
0.21009040895727
0.20747448409677
0.20575136602937
0.205473460688919
0.207905481375352
0.2015612721776
0.197261032724927
0.199840338189788
0.193787858323144
0.192007301278187
0.189511493791899
0.193194188840807
0.190704229785997
0.189539955108777
0.187069119285431
0.181673215912268
0.186526317840236
0.186631183282558
0.183811287201712
0.182607488694684
0.184159760246432
0.180956494254569
0.180988850124865
0.180182715940643
0.179542721935206
0.174659884325806
0.174326617844559
0.175859316593796
0.178052466447837
0.173082579120992
0.172033849884698
0.170788261074689
0.170781168491178
0.164382659582057
0.164077150187291
0.164725594738111
0.168749816628773
0.166098777541774
0.16517886592502
0.16105037243168
0.16331217345229
0.167097925413982
0.159227887431929
0.163362520829035
0.162706046613151
0.159375553677764
0.15919341707622
0.155898448443182
0.159401539317937
0.155453037784784
0.153954595636095
0.154044355874939
0.147600314267878
0.150523460444613
0.152591778740371
0.152351819111002
0.147484624173057
0.151059065169042
0.153143090760472
0.149786405093063
0.146738001586907
0.145608171212815
0.148739757090258
0.150065716900834
0.148975952290171
0.147106514878923
0.142573924130187
0.148473715228587
0.145883949509519
0.147200165941971
0.146293619335578
0.147196088457271
0.144227204625756
0.144905863569875
0.139582460323835
0.141150829992723
0.141434337441763
0.140160604083889
0.139091586390615
0.144753559038743
0.14197464543817
0.136953217188514
0.137053885932032
0.141595487108355
0.139056759937913
0.133349837297502
0.132866877959997
0.139922651979754
0.139715822490744
0.135095282693803
0.132006356968122
0.136164032769259
0.135546731227365
0.137410836558034
0.135726250388725
0.133377673883457
0.131295606079808
0.131046117329004
0.131897798517309
0.128432603236542
0.129909072858413
0.13526901013543
0.131780403764127
0.132493653817621
0.131205802413951
0.131728433805099
0.130700661746455
0.130202957656411
0.128708308255763
0.12905303163861
0.130263174745648
0.132106931814311
0.129094998590263
0.125073559543103
0.126408982282754
0.129542423279851
0.127623206779927
0.126908228391047
0.126644000393597
0.127851938559158
0.126203305795176
0.126217921928296
0.128741362091532
0.130743567415124
0.124473966289117
0.120814868220841
0.124294041800722
0.129128330617332
0.123273265031196
0.125332379386705
0.124777665079611
0.125394236862848
0.120639457947807
0.124904671902757
0.120031832461036
0.122506070394567
0.123417225820246
0.120394014433356
0.123747986710963
0.121742672797777
0.12100155719911
0.120901829688001
0.12253221556123
0.116982745713622
0.115406849762087
0.120773001502564
0.117305560486648
0.120581743138404
0.119426332511998
0.116805899624591
0.118393170023297
0.116957073673133
0.11983199331998
0.117234697974951
0.118682159178953
0.11471175621048
0.119214645475379
0.117234456605484
0.115263767479087
0.117366553809489
0.114730595231757
0.111634911477116
0.110607684145202
0.115656921949888
0.11043116029514
0.106785240921658
0.110821128047296
0.110889161628071
0.113035625988031
0.107776872361909
0.109248193367586
0.112047616712875
0.108234971636179
0.10941264498453
0.10909150730259
0.107890185858605
0.107059373382466
0.108960446636743
0.1099385426739
0.103503245545242
0.104689192557146
0.106150911243499
0.107037747145885
0.105645321117895
0.100440076004997
0.104068802470497
0.106194680110883
0.0996017133225973
0.102957995827599
0.107319676693135
0.102896569080678
0.100481291045827
0.0974578393764641
0.0989357269694007
0.102126857327622
0.0996469061258209
0.0998580914171588
0.0990794931757942
0.100818870580853
0.0942786368296461
0.0993195181599843
0.096566696987926
0.0958444494181082
0.0968016735907876
0.0966892010404384
0.0943269406949988
0.0964104150783294
0.100231130871878
0.0970344001632659
0.0944996127726282
0.0934803019656602
0.0987802807378252
0.0939942378751247
0.0901475617420177
0.0940180220872326
0.0908954804032702
0.087874908507646
0.0888476615479157
0.0889257377983355
0.0923683943021109
0.0906556131774347
0.0901542233567755
0.0891771141156341
0.0883385169751679
0.0856812641489524
0.0839649387992147
0.083910112397026
0.0829814477296607
0.0861333415553274
0.0847572234149952
0.0875159794785543
0.0834625290890125
0.0853132360136799
0.0869377914582169
0.0853740854789564
0.0836829841003342
0.0844158021712721
0.081383812792702
0.083890024015624
0.0836728326645226
0.0821521637924014
0.0814073650327662
0.082095753717988
0.0836537558556177
0.0816090590262782
0.0809756929733269
0.0784295306314256
0.0822814346182471
0.0789501612725476
0.0804643973838942
0.0774236504014217
0.0767408291288454
0.0784091921391777
0.0802914373880131
0.0746314652524119
0.0773598076633355
0.0753074842022134
0.0729747003997949
0.0753985364014917
0.0744161852153284
0.0772643897601836
0.0775436028530731
0.0743291502972931
0.0747387296275628
0.0799602586175475
0.0759295660445519
0.0732492462057895
0.0720760764393853
0.0736212831313091
0.0709629903599055
0.0747784759062034
0.0723989549069918
0.0720359416565652
0.0710324881016968
0.0759503801103333
0.0733762158214691
0.0684576615559654
0.0701220146173406
0.0735302491019254
0.0721833120638543
0.0722024220544158
0.0715977967365003
0.0711808943587814
0.0682589143759396
0.07089509196014
0.0735826510322952
0.0694950358661647
0.0667741556673952
0.0682075650356376
0.068872285366423
0.0660735857919213
0.0696341918513693
0.0728518776650221
0.067103708723286
0.0691177285610803
0.064713036709988
0.0670084227080455
0.0655425646724619
0.0680545930231677
0.0663685084184751
0.0659903991888123
0.0653091383119128
0.0680902241868929
0.0687807916460699
0.0689247335738754
0.0680883145761564
0.0653220732936931
0.0663864391110076
0.0655939441952978
0.0680468473749685
0.0663931953102811
0.0656239471519293
0.0678801318506293
0.0673405137769339
0.0641219948921109
0.0669933886527893
0.0657244663080204
0.0654157015712219
0.064459025520514
0.0643821979527965
0.0653584623464409
0.0626087312771835
0.0641848883652697
0.0651071942088154
0.0639332437370435
0.0626816065226161
0.0615144872641051
0.0660655332856352
0.0615621895349557
0.0638713153034812
0.0638360697359181
0.0610209582080194
0.0637442520054484
0.0633127279506621
0.0632451497890121
0.0635837167431835
0.0618867297009046
0.0597994720851839
0.0630518983460522
0.0593908251097987
0.0627552699518355
0.0629801185346643
0.0598511017733043
0.0587479693870661
0.0598708411451905
0.0604966763617751
0.0610363678317971
0.0582801940247963
0.0585782131589273
0.0601783214485281
0.0577318222214963
0.0625321942783895
0.0566191948701962
0.0576820284579592
0.0603260384606324
0.0608462097180395
0.0596461544472399
0.0572079210695097
0.0591263754914403
0.0589997695805779
0.056899297083402
0.0560934254310222
0.0580144746725701
0.0581778782836166
0.0596926966778063
0.0576137254483775
0.0560042547690358
0.0540017793627415
0.0544928748614359
0.0549952154723522
0.0569950193795312
0.0605596550134404
0.0610873474616945
0.0570088651903021
0.0555895049221391
0.0565190980170774
0.0569948003059182
0.056001696107755
0.0573023566155948
0.054478484351156
0.0538536276747381
0.0561888429326184
0.0581049017799753
0.0532484372253784
0.0544578947646936
0.0530498389639052
0.0565589340281707
0.0523676395735161
0.0524472001928905
0.0524765663971912
0.0509631548150006
0.0512412957229119
0.0507262082435164
0.0493735325996489
0.0521927248829298
0.0525796412919416
0.0525161529379834
0.0510134109408648
0.0545524598292834
0.051403055944269
0.0490018389306608
0.0484895067751413
0.0503064609683127
0.0500367219465074
0.046753579387557
0.048245768101761
0.0499303627204645
0.0494645397824043
0.04811728903607
0.0473582092153175
0.0484588301985323
0.0516412171585262
0.0491591294763219
0.0487380844161954
0.0495152660483088
0.0454528868421083
0.0502222861864521
0.0485725779863808
0.0449586058186857
0.0455252546546298
0.0447115917105179
0.0465503901250576
0.0467012938370792
0.045737183888925
0.0482193062581462
0.0461543479653212
0.045253804283686
0.0474904411347679
0.045988554607647
0.0439508445329395
0.0429806178461861
0.0461840089322222
0.0460922126446353
0.0445739133855302
0.0432638838706997
0.0438189040797015
0.0456270786810341
0.0406935452633168
0.0439303584513122
0.045590756767269
0.0458522492819868
0.0428428710078549
0.044210533069339
0.0431129146622428
0.0412588072353788
0.0439440981035688
0.0408568090939333
0.0433244545270235
0.0461040609501621
0.0413639430303788
0.043388389358848
0.0414002987369425
0.0402641226023226
0.0424739248084553
0.0395779437069183
0.0426391150547602
0.0424223151826152
0.0394118028042825
0.0375844623514178
0.0387388063396696
0.0410492078527179
0.0394364471789438
0.04032604308489
0.041587840254216
0.0414842019674105
0.0390202166813998
0.0373186186783373
0.0385616534318585
0.0386271871699537
0.0371849917048628
0.0390369404739558
0.037221599601203
0.0399445573954233
0.0389840110041121
0.0362839688395573
0.03619828152072
0.0390011824538643
0.0390672157566517
0.0382204143105034
0.0382624493793206
0.0365195025813579
0.0366926199122814
0.0363341704261376
0.0378930812939674
0.0372372963234466
0.0375192118311682
0.0384287276706327
0.0369611931184387
0.0368470162082619
0.0342842999041566
0.0386073514406133
0.0353434641465454
0.038832527082863
0.0357709820939108
0.0334264061731534
0.0373253398992036
0.0412641697225697
0.0342022782704171
0.0373954231855623
0.0351010686439457
0.0313153333962354
0.0335839119070292
0.0302112502172525
0.0319114075840592
0.0310345062058414
0.0344448599111547
0.035593036045516
0.0376939840956958
0.0406532642976637
0.0333405322499163
0.0298760374619836
0.0336121420048188
0.0364594219739274
0.031477011343941
0.0312024357590102
0.0361739104323041
0.0304504840818431
0.0339625281172575
0.036609274254311
0.0332699361542572
0.0381495837600067
0.0324848500386841
0.0335323640458825
0.0312670989823151
0.0331997086609595
0.0374898909730019
0.0314011519315329
0.0339210918178412
0.0360383931374794
0.0314902632241911
0.0293572518882259
0.028366666708135
0.0308115491756178
0.0313301881440969
0.03193537357285
0.0250609746399757
0.0294127188972518
0.0283992461562687
0.0295054999829091
0.0278706865414459
0.0337385645010895
0.0248452984800457
0.0349794602613227
0.0269648120882533
0.0464171507668768
0.0259614300937078
0.0482774343227475
0.0211432827023651
0.0446538777219629
0.0170151287622739
0.0517445004656413
0.020630310229161
0.0547735014157163
0.00661857098445213
0.0569474040372859
0.00894412499915563
0.0655038424559466
0.00117054026062204
0.0604245217711888
0.0109119548423
0.0611056321242219
0.00806723962557299
0.0540765695589676
0.017612296370467
0.0458139727956089
0.0197448072850958
0.0366484295866374
0.0303949965167052
0.030365528990841
0.0379298441077157
0.0267565758110261
0.0351537172088123
0.0268639110829054
0.0339226395619918
0.0310592781028908
0.0322479046487827
0.0336909032698774
0.0276954583478812
0.0365152783656963
0.0292436148807187
0.0333385299396985
0.0298533940270996
0.0338203848292494
0.0269296498470303
0.0291687206469576
0.0303645803580439
0.0301462788887698
0.0299431700933329
0.0322628297069545
0.0282582233921091
0.030142915043711
0.0263830405942577
0.0305014466564532
0.0306788695080929
0.0323872892125238
0.0302161985628487
0.032196347122844
0.0281469721676018
0.0334917457545585
0.0302718080664397
0.0306101251639282
0.0288133448657084
0.0301524502609188
0.0287867855207442
0.0294856099409097
0.0283796490378104
0.0309218315663986
0.0288955970345568
0.0282841108316152
0.0283943524360056
0.033540801975673
0.030638496039818
0.0310631861980065
0.0314229615053151
0.0325989412005307
0.0282965328196595
0.029945953343654
0.0295621604908048
0.0321494050749687
0.0294669180768974
0.0340727196446029
0.0293427694696331
0.0323159726243676
0.0285336866892061
0.0304700051465345
0.029903888542741
0.0285585859382011
0.0283524027257462
0.0311713875122314
0.0281374869303594
0.0291611590880367
0.0301722617449035
0.0313326574370718
0.0294474986321032
0.0303010810781558
0.0295033224239028
0.0300565845442713
0.0285585218433392
0.0327321917513696
0.0293458672599303
0.0321470624058883
0.0306207357333933
0.0313747834541577
0.0287874686592055
0.0317631406439327
0.0291522203583647
0.0335464740332294
0.0306529762494103
0.0300353597056255
0.0290447265056718
0.0298973491379438
0.0305293431015138
0.0283439973929803
0.0308949610116498
0.0307745354313538
0.0307609299213532
0.0327752535260408
0.0290147999609682
0.0301489534023428
0.0295207156625855
0.0298000839350116
0.0305091723305564
0.0308413035779915
0.0305356852484504
0.0301794729859359
0.0293148501105829
0.0299007965147875
0.0297460973018129
0.0309282685141174
0.0269230960627845
0.0309714665578355
0.0295383636571632
0.0306181000760965
0.0325967267017342
0.0332149963435306
0.0317889877700778
0.0326843704794093
0.0289118651447862
0.0312112887231682
0.0293133871230249
0.0340643913300333
0.0303583492896731
0.0321711349906145
0.0300016725312109
0.0323566338785424
0.0298591108989771
0.0321121066774021
0.0291350006021407
0.0317650883235777
0.0320413790210346
0.032474365175474
0.0329024995900792
0.0314269892965936
0.0305727319937773
0.0338339668196143
0.0301023133038491
0.0321111366448805
0.0282889692855167
0.0295975636489504
0.0301055537653286
0.03172478029658
0.0317217210238651
0.0281648741347357
0.0275908255559372
0.0318153614000803
0.0288438949238949
0.0306640882548455
0.0297169104472824
0.0303927809301145
0.0306454339151434
0.0305190520845371
0.0303120881001981
0.0314874692641781
0.0303220231880149
0.0328752692843817
0.0288639817583326
0.0323415505260816
0.0331217340447145
0.0309851641784851
0.0299819518557457
0.0310912506002527
0.0315155467874656
0.0324238488841823
0.030881034873376
0.0328211498431305
0.0315087332404199
0.0347871953332515
0.0337753547053935
0.0335739554682304
0.0326302570277057
0.0335297550736401
0.0330325777262399
0.0347949544756054
0.0315520719909279
0.0297801917178198
0.0324691176294612
0.0331574419331733
0.0321878178616034
0.0346152840024833
0.0315877140943463
0.0327794662830904
0.0320333672629992
0.0348931882070648
0.0302793514430405
0.0326504906357609
0.0328676929691757
0.0343972116806257
0.0324416413566744
0.0324339806330003
0.0299149351481116
0.0359840368042002
0.0329052676297432
0.0331940230027923
0.0295236031133869
0.0322070200015429
0.0308492969706681
0.0313860152338046
0.0322325455505984
0.0337196463934496
0.0310887570989246
0.0328176443582656
0.0304934109685562
0.0316716940231378
0.031606861761516
0.0311020716514978
0.0299910498143633
0.031930114371053
0.0306325935140429
0.0314302648351416
0.0308166673722677
0.0308191532668581
0.0288109893787858
0.030595814100097
0.0318384764121774
0.0315535509082949
0.0275365113742888
0.0295855853880082
0.0284314208963196
0.0308905461448219
0.0299622342886659
0.0324579538815105
0.0295244459835548
0.0309725917746751
0.030722284566308
0.0298556056070637
0.0297392214553596
0.0316778341509273
0.0292991195541279
0.030202221323667
0.0320611207920527
0.0291110049222276
0.0306233351492439
0.0313011446208543
0.027090085387056
0.0304735419922284
0.030820007233933
0.0304991592083954
0.029242418078017
0.0298022974072456
0.0283012935512183
0.0310873049256699
0.030396504236884
0.0294369354656793
0.0272431707979646
0.0327992923750312
0.0305755214655136
0.0285168191612456
0.0292486976270881
0.0306520656181897
0.0283699146476234
0.0314653827481821
0.0294538390683296
0.0303910679495819
0.0290645151650278
0.0276761653693316
0.0301824092274425
0.0299832664010988
0.0282815204889192
0.0295288631176867
0.0296935390445821
0.0309824034906567
0.0302825304390902
0.0308866853471983
0.0298365549381654
0.0300286019297485
0.028126181168635
0.0311187618593005
0.0281810882662079
0.0290899776430284
0.0275272995221766
0.0267978990238921
0.0283896938219504
0.0301336645632995
0.0302042869681407
0.0314220870198308
0.0286808526977402
0.0290933953665326
0.0302227035217185
0.0279804793791013
0.0283290650266049
0.0297552869393337
0.0276155040084433
0.0299744394360881
0.025710185767411
0.0319687608286921
0.028836032463295
0.0256765656795236
0.027652889400433
0.0279146632316524
0.0261992320807258
0.0300612005124901
0.0287295545935291
0.029827708350774
0.0269007658315109
0.0317680581045942
0.0269160866138817
0.029276367840202
0.0265108346330489
0.029389175382543
0.0271488157351527
0.0290983235619372
0.0294760188695249
0.0303021376214147
0.0281476474952686
0.028048952833988
0.0267439709816013
0.0297197392385596
0.0270908053412705
0.0306589900544965
0.0266305070023785
0.0261415913661994
0.0251203627824038
0.0283904204696941
0.0265653305369778
0.0277765361146458
0.0285656059687646
0.0292782108969972
0.0273179880088094
0.0290703301181822
0.0234698868841675
0.0280507389895144
0.0267303000274523
0.0288922375266155
0.0287108060452658
0.0249632854030677
0.0278887299090302
0.0267446952326376
0.0271936011582459
0.0256035955776327
0.0242775540808972
0.0263523225410605
0.0246177703582098
0.0235083811668683
0.0247090484833545
0.0247525563389886
0.0248481722537325
0.0238888499052968
0.0271569611910882
0.0266348537744075
0.0269495076815925
0.0262843790000799
0.0236617982807752
0.0263913928844629
0.0251073081457527
0.0239466884852661
0.0252201265211519
0.0232639867783971
0.0248626643736166
0.0253290907511643
0.0255047586774233
0.0220786062611298
0.024303099037416
0.0288540590010752
0.0223766996270042
0.0262027746743461
0.0238764184404424
0.0283292361673704
0.0231281483789271
0.0250915815624065
0.0225312652424761
0.0254301430203681
0.0252107285105989
0.027659143654184
0.0237925880331722
0.0255250586078938
0.0242212641433787
0.0270652459830245
0.0225434244109015
0.0244550298848851
0.0248286956484833
0.02577540642728
0.0218947641940692
0.0246653548077723
0.024617976040515
0.0249110586413918
0.0226039880782562
0.0255485816599105
0.018662367570469
0.0296390045558098
0.0224163553234257
0.0264106303499586
0.0222218931556454
0.0238096953875276
0.0207117682474438
0.0264082264438914
0.0233488523207591
0.0251073655014401
0.0249199977252282
0.0257179888346288
0.0225963578924845
0.0217518048945414
0.0238581858926677
0.0243447957221059
0.020226410963834
0.0269232337894104
0.0195920434934259
0.0236442004626925
0.0208093002251995
0.0261810923600465
0.0198618920257823
0.0245075126171661
0.0202017054118164
0.0265304475324446
0.0200768450334939
0.0214086700616057
0.0308766081634346
0.0207000068282983
0.0230494833977045
0.0207552504829706
0.0242792572270333
0.0240068681754028
0.0243432104088006
0.0218177162616556
0.0231269451291335
0.0230086432642155
0.0232724883774468
0.0220986241237574
0.0212233204806206
0.0221023917464742
0.0226874459985108
0.0225085126118343
0.0206920378911806
0.0200338464153217
0.0234111259946474
0.0209641969647695
0.0219428595731196
0.0283131843342047
0.0239298343639166
0.0215025925919802
0.0269553211564345
0.0110846598769652
0.0325433965000761
0.0238699681169373
0.0249646294362428
0.0198162269637852
0.0236786876114796
0.0221814498298605
0.022993615079371
0.0240032405362825
0.0207510635192086
0.0235432241722672
0.0198975675654248
0.0269098666431632
0.0199657361646829
0.0247583229152493
0.022769904567927
0.024041023599724
0.0237849789080689
0.0253274052220251
0.0226650885122225
0.0222708935540332
0.0206811250861771
0.0217212537362639
0.0239126103598586
0.0199424484419926
0.0204433486003884
0.0232628562213744
0.0215253351316552
0.0242390163072815
0.0234234912650212
0.0201181463467229
0.0166032776294358
0.0344798223701652
0.0185571019996926
0.0272838742686339
0.0173500230778594
0.0240584316356945
0.0228965654861003
0.0252548939484053
0.0191234184069537
0.0251801670727968
0.0216133678469153
0.0264462334223422
0.0210838190605158
0.0208202787684008
0.0218144543292444
0.0241843554508369
0.0209042107408637
0.0242882991494858
0.0244109657009709
0.020792949059515
0.0245829820183947
0.0173867736075016
0.0210059890222114
0.0287897247534521
0.0251172426564217
0.0277004323318813
0.0231012166957507
0.0240324012958539
0.0194028367969006
0.0242402000111693
0.0182509732919838
0.0273573608962578
0.0210566163987032
0.0273658861820224
0.0218633737856028
0.0260783995655871
0.0183060432258124
0.0241299009790262
0.0170974705098792
0.0275164080584946
0.016120756412816
0.0251288078068903
0.0157537570812762
0.028311346741589
0.0153031458049126
0.030668106668438
0.0171989639395537
0.0333245290027375
0.002258793966805
0.0371472547556306
0.0318737790884345
0.021411430276775
0.0279877264023583
0.0207299405063325
0.025498122975869
0.0206111292310827
0.0208627935944774
0.0248333447330366
0.0222573859433795
0.0213597429470913
0.0216135762136302
0.0234573864155429
0.0289076115486659
0.0199662892807812
0.0155148921391282
0.0338601633960915
0.0226121015277643
0.0307072354203486
0.0202261759548443
0.0198110085469778
0.0343916965127889
0.0217830765734655
0.030192250461603
0.0236438297829247
0.0231004738178477
0.0221008325469778
0.0246729425947796
0.0225875181093471
0.0220308180113838
0.0256244092342962
0.0251281809678057
0.0253909917252459
0.0203372303334922
0.0278175159082154
0.020616197398674
0.0280423179259423
0.0278638861073286
0.0216686991086666
0.0256467118453625
0.0259617637261401
0.0224627131973809
0.0249789117993899
0.0236362561824152
0.0240111111629226
0.0238314097394723
0.0338419109621201
0.0201769221404889
0.0294523632757026
0.0311190128202095
0.0222628779241134
0.0280767396898497
0.0249352528708563
0.0345266684055318
0.0172933159433211
0.0166266304831777
0.0449357358251457
0.0194895975568925
0.0447196430315331
0.0182063328278193
0.0351314208123417
0.0184942395934473
0.0367341639311688
0.0123584967139383
0.044948666287363
0.0168596578481262
0.0354187700819669
0.0169697436452773
0.0314583477278251
0.029757070241934
0.029156610248021
0.027437752009629
0.0306762405511248
0.0233791682999846
0.0327156639539185
0.0298418927957956
0.0136300550175583
0.0366596757575167
0.03361023721201
0.0404572334599627
0.0338913230550528
0.0146138244771305
0.0513151946632083
0.0232056769052196
0.0370338046212404
0.0238783915548913
0.034350007718285
0.0260999964196888
0.0233185597747982
0.0409770210348535
0.0317531400922689
0.0283184229295657
0.0377627876060852
0.0144840858051774
0.0401955098304246
0.0328488132418306
0.033571142101674
0.0268444159288666
0.0410555411998473
0.00990554305765544
0.0629284343736381
0.0389605787189376
0.0361610534596651
0.0462522324689556
0.0378796515413548
0.0412374925177077
0.0358066821469244
0.036038674409118
0.0345677947153365
0.0448476801124139
0.0441696502089284
0.0287061298550521
0.0345944520152377
0.0558357665044897
0.0294488906567603
0.0503995897207143
0.0367622754725454
0.0291433419681007
0.0404079726192552
0.0636110190131675
0.0570056298721613
0.047008631808719
0.0382417189513216
0.0584155981239408
0.0438764310066326
0.0442858209317946
0.0456465531060272
0.0461408242959866
0.0478191963571996
0.0414163293301755
0.0560596488238917
0.0446216688432594
0.0494323498948592
0.0460301687236706
0.0424446455858708
0.0439713456829871
0.051857458885138
0.0858261892965187
0.036500352256539
0.0805703181090277
0.0563702215775125
0.0613662204250975
0.0525338641106777
0.052314367327315
0.0627373696357308
0.0575423395221467
0.0622430145768475
0.0487189685335736
0.0649420942828858
0.0666675799484295
0.0534276941637747
0.0839717874540742
0.0581498045718128
0.0752347645699833
0.00614495042235529
0.174655538961233
0.0699681740747329
0.0922908591625768
0.066835643316015
0.0555482132468997
0.130111313264086
0.0898207725511586
0.0957867596319476
0.097748482230623
0.0961122830978839
0.101440694049972
0.102579039140462
0.104084774085949
0.114513656631419
0.119614098636813
0.104525641502136
0.113608364262089
0.14210243167658
0.146293547286402
0.151837305312633
0.133535724003911
0.146089576866642
0.150883124507922
0.148852348911724
0.157509558756361
0.155778765193634
0.141836338983684
0.210529419923895
0.164276223779652
0.188414959928588
0.159222914622043
0.219406755670394
0.160452157760353
0.227890316191408
0.203769288627923
0.205723999102791
0.205091354886104
0.20642731653388
0.222101343705139
0.204135686075375
0.234110685370557
0.237629795137569
0.226538556327329
0.232592841968599
0.235376239076006
0.240122869104084
0.237918686846778
0.253629255524395
0.231441662252485
0.270988247820658
0.207903109719566
0.333319681493508
0.268663811637337
0.251007035577664
0.258906283516824
0.240699120654386
0.271280982362791
0.249790213153855
0.267253652560564
0.27365699291528
0.246096779987944
0.262060472174954
0.250601567914731
0.265348841010806
0.237087632377198
0.270149849744889
0.234537770867307
0.275707448019068
0.239042349444597
0.244783179646864
0.287047744012851
0.25421597541781
0.255514024703005
0.249071935833306
0.247087785290158
0.242934536133674
0.242041545730254
0.23740838689043
0.260164475724929
0.233116903059052
0.248144556132428
0.216031865343978
0.235955722820736
0.243634485411034
0.218380288685136
0.23021695717481
0.21638798866927
0.229695090412298
0.206608186354117
0.198991093590567
0.249318077664663
0.204902326610042
0.213299917863703
0.200101889518915
0.203593059140076
0.202841898013257
0.203301428290073
0.201156806990185
0.20241210971903
0.193892282848155
0.20696647061133
0.196964934381651
0.197304045264776
0.185803236280226
0.198593126571907
0.195862510072932
0.196261461049207
0.191148798402473
0.192348991789497
0.196047566196973
0.193811459022348
0.195311704843739
0.191949427345224
0.192548746146247
0.200720145501808
0.194619178392768
0.196905031495754
0.19186658807832
0.189053972210726
0.191969626290791
0.193566654700311
0.193275459974496
0.191745368232691
0.192298669626762
0.189646201166927
0.191342893159344
0.185485667973134
0.18987951594721
0.188343194924336
0.191976927672033
0.180736582097304
0.1998482999376
0.15959472447162
0.216911999238925
0.20535665576155
0.182860677994583
0.193954073337918
0.181449423593033
0.195106585464086
0.16239939946976
0.200296242508639
0.190448142396773
0.180127232408553
0.179429276387038
0.176406238983999
0.174529227646382
0.190397137489303
0.164525122218772
0.189229247075759
0.150726628617462
0.187519310256021
0.190997564501025
0.164705223727238
0.220613229536711
0.181544940825626
0.173592466222576
0.145345922224317
0.205864855663844
0.159129599990967
0.183038724213119
0.155756778524955
0.185147502260313
0.17734080145918
0.169902303988598
0.17294635549712
0.162286700353747
0.166720987142075
0.185764530871498
0.16151328134543
0.1551100602734
0.182954825777738
0.151237048280078
0.178205179202153
0.190486960345983
0.179634617539936
0.152402494955456
0.155794853894302
0.153252921783362
0.135393638402596
0.187442855317389
0.149650670017939
0.15877439183778
0.149068102648744
0.138949005828399
0.14380426137921
0.14258051254903
0.150825104621181
0.120860570838749
0.175170857973325
0.125283577568903
0.147881089685141
0.131313114662902
0.144976985192674
0.1562718952509
0.142752380886609
0.122999813320302
0.130910205734689
0.153803657798971
0.12343145091931
0.145862962041213
0.123244767207365
0.114937183428384
0.13817344644321
0.119478171255535
0.119367427981034
0.128823732924411
0.103370164823198
0.135919922956191
0.123404444483821
0.138729025968277
0.125062625201203
0.108820773830031
0.116361909104815
0.107234045013344
0.121693488975903
0.10428208490819
0.125009919789078
0.12682247974912
0.0883090942942189
0.149782794906139
0.117758797026008
0.114902081941643
0.115588270599271
0.114086177211231
0.111566355534147
0.118909850579977
0.131091359122198
0.12825638807541
0.116203771362797
0.142698815631082
0.119276580525703
0.13697540706507
0.124728544606926
0.138936284892097
0.128934181833788
0.147712693057363
0.137030217610712
0.142273448185889
0.144471524716328
0.146667513618503
0.141576276370838
0.184512491507754
0.132781893255724
0.184213287529305
0.155222725147126
0.196897605504255
0.180215833805146
0.173874345998396
0.185713782768709
0.180988025558019
0.186180190608179
0.188852742566682
0.178916838209103
0.226787861293422
0.184916521930136
0.211136028694904
0.196374776912639
0.211991126586316
0.193378494402813
0.229664065473105
0.198364727273008
0.225149237146222
0.249445355911781
0.214717347614507
0.233469683891862
0.212529613392079
0.227180213845432
0.224734239457948
0.225657967872688
0.227274910776768
0.217775222236544
0.242645427936823
0.22902057485259
0.231276633456654
0.230003092349767
0.232744830940515
0.231797436136974
0.233630854610847
0.236197173439129
0.238133619129511
0.238638492220812
0.248954553857484
0.213619132821068
0.280797924440208
0.248708799190452
0.25019409486234
0.250414227214504
0.250843309876808
0.259151207307559
0.247867862967343
0.263841527388855
0.26728944664461
0.25869457212945
0.268989050265849
0.260758492545866
0.274920017329034
0.261455589583335
0.291466732108657
0.264249892985436
0.283566791040562
0.26885361972179
0.271577597218741
0.305054833001061
0.272133547947993
0.296827932157632
0.278611860507986
0.288994811339535
0.277013859520819
0.289894347595416
0.282040908506157
0.289013358896445
0.281561411860977
0.289215387246744
0.28679591929747
0.284964389316168
0.291246091978985
0.280246963568622
0.294442423337671
0.285731886038789
0.286396626619878
0.283572681739799
0.282147236040951
0.273603445056648
0.288623069974644
0.291130194243235
0.279446680815925
0.288475827429823
0.274957602213877
0.283360872615412
0.290715385476101
0.278440787202508
0.281969008295509
0.282703736520313
0.28080032770217
0.281176790068843
0.276589138622583
0.30155696240948
0.283056830555085
0.291749747124678
0.283731944573883
0.286631385526339
0.288738530774719
0.292430295901079
0.287324762825178
0.295215357268417
0.286561936325759
0.294825041382389
0.29460366183246
0.294328074034104
0.296714883329939
0.296155660041792
0.296318999180438
0.293658933857643
0.288626464422037
0.287080319709565
0.280093032343888
0.286281424216997
0.279289147483268
0.279719041485393
0.271567512353356
0.278144507799833
0.260531011811986
0.281698582364737
0.264364641712785
0.268997183911603
0.262073847002505
0.255295885707594
0.258955011376805
0.254723469616716
0.256459889681071
0.247713937389189
0.249879941443716
0.246936514425046
0.250304669668843
0.246203587717063
0.24594537646016
0.244727689605874
0.245329141331878
0.243118213014809
0.243682308016808
0.243767675623533
0.242370113110346
0.242618749657923
0.239244466383543
0.245795048749176
0.234220827503417
0.240185901773841
0.244203060798883
0.241848807445477
0.245633750676665
0.237579186924553
0.243989149302067
0.237683441768694
0.244296026822206
0.236633717550926
0.239383086642609
0.236378530674188
0.239726544116423
0.234613976001335
0.240137472469583
0.238322451051327
0.239654165509499
0.23615876600625
0.237912799875191
0.240257751889166
0.23860533511818
0.236995873413713
0.239177928933108
0.233978408301688
0.239076548131295
0.237929694594411
0.231506426228051
0.238192726961553
0.235967215535755
0.23641506260251
0.237856738002711
0.240553731749292
0.238056479326704
0.235249693564042
0.234364194141872
0.237746146884099
0.239721743595416
0.235701609975233
0.233467049788322
0.235721093285016
0.234092150689619
0.230118569011966
0.229003923370072
0.228156291538589
0.227224224634371
0.223650023822921
0.221619866825125
0.220257124161836
0.218686077301103
0.214496002053081
0.212934756484989
0.211355578667496
0.211104679708121
0.208482192641016
0.209137550553554
0.206755082806271
0.2051646767004
0.204930857350176
0.204525689028321
0.202576877853403
0.203744286558821
0.201648866179653
0.202395338681641
0.199738112708051
0.198706005267982
0.202202656970942
0.199630988900586
0.199403774004655
0.2010047576733
0.202797006019853
0.202738718592031
0.202712017153847
0.204025029312416
0.206753583448365
0.206182440272562
0.208174954877614
0.205414520612075
0.20633152777908
0.212266319660573
0.208587477150609
0.211599292657689
0.214085666873426
0.211488418542565
0.213174009014849
0.213977542622409
0.214792390475214
0.217255769654321
0.217677748593145
0.217678722598684
0.216207294675384
0.216301420250575
0.217910605470617
0.215123035054343
0.215194131575192
0.215482684822028
0.213618843967528
0.214324987012898
0.214056414745863
0.215213602172166
0.214044236709629
0.212091291967657
0.210591986917994
0.209895534747482
0.210213619902117
0.20933582606233
0.210484504988301
0.208276317814327
0.207395432652155
0.205672814401159
0.206207712491168
0.20686531482795
0.20572475044006
0.204023675566377
0.201596761607074
0.203181977865564
0.200681213543751
0.200574956404896
0.199854906763656
0.198123144019659
0.197522136367811
0.19779382983301
0.197552405093549
0.197490965650254
0.196492674490615
0.196005984630976
0.195770927947311
0.195327965123364
0.194601077264973
0.192230043030041
0.190580267406779
0.190039523895209
0.188014142820429
0.187912292984673
0.185832456312202
0.187013037301674
0.183912408045965
0.180644024726099
0.180027746364329
0.179657943005776
0.180986432377293
0.178514211030937
0.17652571927343
0.174982728718854
0.174525033487637
0.174899503455578
0.172290604012394
0.173049453298795
0.171914632874907
0.171850640434586
0.171744996217106
0.169952795901587
0.169939446984194
0.170190909922329
0.169531396069989
0.169621253154844
0.166142652448834
0.166255052999833
0.166545439601273
0.163492650162993
0.161617327169756
0.15920943938692
0.158461624144671
0.156730908736658
0.155251197178933
0.153533434984076
0.150961890567009
0.152518777070973
0.154180562494793
0.153105487370189
0.156650481956987
0.159950456121258
0.162732402811196
0.167669538956813
0.171354047948823
0.177064266349603
0.185148824971619
0.191630238581731
0.199658394549979
0.20827765026232
0.21878333741449
0.227806445148472
0.236300964970738
0.245810793755189
0.255265576564604
0.26583867845151
0.274541143546805
0.281513469536095
0.291453482539399
0.301528985076408
0.307362241672266
0.316185303611393
0.326431902896246
0.332649273762363
0.337868899020933
0.344138203289971
0.351804104725306
0.359766745732825
0.366094110605929
0.369192191127708
0.371068614796064
0.378901281886116
0.384467615630143
0.385760706672379
0.387259696766165
0.390549794648943
0.391203884231099
0.393105374367838
0.395110765353333
0.396219434782434
0.392453585665133
0.392904009705684
0.394991498617584
0.397781769838083
0.398045209764426
0.395767008371354
0.398966851577728
0.402698407244327
0.404191755515502
0.404462793112113
0.404137618725588
0.409565232418898
0.414800021458679
0.416135788926459
0.420913238977091
0.42424672609528
0.426264135257001
0.429285275895844
0.432117156405826
0.439279582893508
0.447815869197976
0.450565964634536
0.456787763173626
0.467386285894129
0.474040590452367
0.480085639062177
0.487209913638228
0.491074332324356
0.500197960107568
0.503442984369595
0.500955709324498
0.509921907642832
0.518289766490123
0.516801915202289
0.519052779240256
0.520882888220945
0.521553453154437
0.514606741493622
0.512630327635002
0.512806743832206
0.509470058394994
0.511029337517707
0.508602625340955
0.507057282831525
0.511274701999081
0.517584775832416
0.522039541267267
0.530668486154464
0.540396074284013
0.548095715841706
0.555934428131633
0.569516315804631
0.581462337593346
0.580954608742873
0.594364154259521
0.611009271175244
0.619401941306746
0.625361996205438
0.635632340983491
0.646201829972002
0.654518219913209
0.667751277587456
0.679908409935395
0.685632145905428
0.697798173882728
0.714836203859149
0.72577448100816
0.736020139289933
0.753075943877239
0.765279898693947
0.774465173970723
0.790369538257649
0.802642174427178
0.813248812985562
0.821135211280158
0.833891711209369
0.844874406823372
0.852447237261178
0.860910817463144
0.863081516268846
0.868522052842051
0.881045202098631
0.880752876276225
0.884781473221949
0.885450387391895
0.875802326339466
0.878201189054904
0.871695998896806
0.863099350466782
0.868356185563404
0.863531807390495
0.849581125888631
0.851431750341171
0.854322478790824
0.841473455135766
0.842751117218619
0.843657247129045
0.835655399639919
0.840693137764853
0.842611989111223
0.856752554555364
0.867170456586397
0.865009949831224
0.877836999016737
0.888958243996832
0.900244079284409
0.901704912573067
0.904160890793932
0.910632231702556
0.913077758481487
0.910860566292174
0.923197437997998
0.934289327765408
0.930608395269809
0.926523894544352
0.929441086071808
0.927641501457485
0.930427972211063
0.931181819060729
0.926819324370816
0.936475273406713
0.921559514910399
0.924215868390503
0.936323673424211
0.92725974767622
0.921735917612186
0.923226679251793
0.924462884284921
0.909858704636703
0.902359440886077
0.885539967236331
0.870675795863281
0.875799156682161
0.876914722109046
0.865325881057575
0.852261987666911
0.832561974964317
0.823182490447936
0.817156687437646
0.792348686600315
0.776524399186265
0.756501483543206
0.729420832564854
0.708491982100486
0.689830241431319
0.666887307453498
0.635960303713225
0.610679544770933
0.588096528536897
0.564747450645519
0.539467792139099
0.516393240737257
0.493192000168146
0.47780374271187
0.468912062911168
0.456354497116052
0.451294946202682
0.441100499803267
0.434366759599286
0.43799096071014
0.435122605565445
0.426714081049434
0.425208204187369
0.416844373199265
0.411081126762414
0.411080707775306
0.406822106049819
0.393940982036081
0.385317377463448
0.385860819115073
0.379393016682385
0.368347135202789
0.357046088113831
0.343117830092148
0.336576308204367
0.327838675659763
0.313474440564134
0.30063201995964
0.289304024997942
0.281069742674806
0.270179650537129
0.252286702529778
0.243746606352474
0.231488482147397
0.21762511910696
0.208645666841446
0.198651781638471
0.188684422102876
0.181650948184417
0.175974049049347
0.164809468416688
0.158120516235961
0.155325690341162
0.149716368481599
0.14150330572453
0.135968355685799
0.134749493557405
0.130767822086918
0.131804670591791
0.126520653487418
0.125385505108244
0.122472489626724
0.123075002718698
0.120632791383758
0.117310393685004
0.121025792949824
0.120079016000929
0.122850689861018
0.126024960545931
0.124401857348617
0.121930882281361
0.12342717700836
0.127381907546902
0.127234592081084
0.125618794048891
0.131575577233381
0.131996067129346
0.129211714565926
0.127557992284839
0.124464098764717
0.127764532210579
0.12668543627063
0.124930258004565
0.122533100718052
0.117925014994573
0.120140167890008
0.119652799385383
0.116411411787043
0.118370611256964
0.120767942495412
0.120806628424238
0.123061121837711
0.121665884216285
0.118719587423845
0.125906472892881
0.126903967587148
0.124833478385736
0.126665429082127
0.128737226903312
0.129369883881202
0.131468391198425
0.13352271727363
0.133160834037685
0.133643869808337
0.133760401741021
0.13915924308243
0.139427714817422
0.133373460779615
0.137576745513746
0.137075565546064
0.140320572157881
0.142006168145287
0.142626081430181
0.142720297133828
0.143051062149739
0.143454149963193
0.144966881169216
0.149220212728089
0.151665165339829
0.152679805016377
0.152439767247999
0.158890438446528
0.164324353760329
0.168120356244869
0.166773235894908
0.171847349872102
0.182256643842151
0.184511275448835
0.194652053407406
0.193876095552686
0.195533255646765
0.197182377317624
0.195042829106422
0.195219817020893
0.199570507048703
0.193243494363983
0.197171101323441
0.18914511793763
0.186687440998642
0.17888763221425
0.177956702935175
0.1770245008238
0.168789326134406
0.16967179128125
0.171743034151288
0.169438506860901
0.167924888564024
0.169049241252971
0.175084215719921
0.17227191996762
0.171140894297482
0.167259421462525
0.168760473542752
0.164469652900743
0.172866488150747
0.166309948261693
0.160970090278246
0.158900111862686
0.15916522161447
0.1579768254284
0.159015235120191
0.148362368882956
0.149845087455007
0.149080753626227
0.157641014387396
0.150028374144019
0.145525821630831
0.148208920587189
0.14438266791572
0.143117052071863
0.14131189229242
0.142939842936036
0.139802879967404
0.13930281026596
0.143428346425901
0.135396885477928
0.140510439841169
0.13933881918224
0.13242370827374
0.137255969962655
0.132050923814006
0.135161689166259
0.14042841723336
0.13214759039482
0.140001165436425
0.132117376064425
0.137248579849847
0.128493761530646
0.125340711617771
0.128222043505566
0.122953207807827
0.128609456478126
0.128060860376383
0.121550594425047
0.128399879638062
0.124689032750297
0.124769099292139
0.125955260265328
0.123397422810316
0.116514985471532
0.120450632720303
0.119937942484621
0.127059879371131
0.117267396392814
0.122737974261688
0.116776426784542
0.120304073811109
0.125300211061935
0.121118468894522
0.121826248829488
0.134979918117664
0.131308604699696
0.130180966642612
0.124064150036448
0.127419348412654
0.128249433431892
0.130077302794855
0.135504057067263
0.145084368484711
0.133460102567902
0.141013421388262
0.137256781735345
0.138735100530791
0.14664056074774
0.137671477972391
0.14762657752691
0.154982018725318
0.141971682631233
0.146811787851886
0.158787079873843
0.157583018442811
0.159984108775986
0.164996356751594
0.173733964661798
0.173402817230198
0.171143304957495
0.189589045491472
0.186530539911145
0.197417713703183
0.202455211856788
0.206811905831507
0.216961963105778
0.218332373178224
0.225732408843277
0.24055005971305
0.241507415184336
0.243564292322935
0.238626651895735
0.238590519687741
0.238632240110906
0.254614797750442
0.248482363164609
0.246352109761374
0.258300325177847
0.24043560115047
0.243557805907288
0.246661382289312
0.225112804882795
0.242997985763148
0.250077311371438
0.240506138610052
0.22951333805424
0.236756425325946
0.234735454857059
0.230834839075673
0.229953875935148
0.232633921931954
0.223044721102652
0.221519720300262
0.220926306836626
0.213179416514361
0.208612924704181
0.211807817746176
0.189612859480982
0.213220487944647
0.22203920064218
0.201494278234862
0.195546542162995
0.209207055812669
0.199422281887815
0.199933893871539
0.202195415675629
0.223259237891556
0.194761997364969
0.208449969270382
0.198069008571642
0.192526120477133
0.185076573728189
0.196355309242172
0.207962872890025
0.205558673668221
0.194942476135231
0.197658883811157
0.199606315432105
0.207775408755765
0.205834832414828
0.20568423033032
0.199699103664455
0.19574752933137
0.194032290201342
0.20398924806954
0.211685761740094
0.206468698810235
0.22783049287935
0.229811443516782
0.21915202123211
0.224298731220668
0.225559130776827
0.221194093285317
0.207739254472356
0.231358525939755
0.233003456085752
0.230549165998042
0.234279935056995
0.218910530678802
0.225124140754459
0.222966040090933
0.257695104992123
0.235504690416535
0.22853336356635
0.259717414221038
0.240109470525435
0.239451713155527
0.252790721245754
0.283102080950045
0.224313267499582
0.260039942438033
0.277864810674225
0.298993829681654
0.280678534158086
0.298666971271704
0.317256512769814
0.305580366937623
0.328000148605681
0.302218174576896
0.32114591997198
0.284005505378264
0.328982367851456
0.294607290454302
0.265803944938676
0.293637547614736
0.3585770188889
0.331540083733178
0.301513688637291
0.298485334102016
0.258216448665028
0.246723064125424
0.28156051081526
0.269697828188135
0.293176019120829
0.272525638891108
0.279284795636791
0.244113592011697
0.232449521454756
0.282248529622179
0.31560891500025
0.299009083594034
0.306732979733415
0.26943258561703
0.259966587196555
0.302624328468124
0.266709216240567
0.314495973700484
0.293283269559959
0.252643779729514
0.290085047849324
0.305390518885058
0.262986403090329
0.211633732967237
0.295648107738539
0.282473374985715
0.34642555285806
0.327383128597297
0.259032624320373
0.5376797542598
0.266669563809103
0.317891640450346
0.303423498612876
0.284073047658377
0.28555375108356
0.196418349263442
0.287162568580387
0.389644473166771
0.338312470266488
0.212657865724996
0.127886299208159
0.256817431313641
0.295400282754022
0.104333160359959
0.143937825105624
0.40161770474637
0.309054915936191
0.337349430650296
2.41573908603421
