3596
4000.36533379555
650.420452594757
1
2
2
0.057826712089157
0.0437506303306802
0.0539997696043492
0.0413693744011139
0.0630200720714266
0.0357645443837317
0.0606280620204986
0.0471846824860731
0.0572483382965686
0.0468473160952693
0.0637679127885262
0.0463889329016834
0.058579551679713
0.0405889585032736
0.0613058952171589
0.0443867330721643
0.0557183308246763
0.0373972873967231
0.0544802760736555
0.0386506964644286
0.0636089804322636
0.0377746853795434
0.0509892217186056
0.038978864448325
0.0621595364669011
0.0454007668572981
0.0555349390164634
0.0380639005346426
0.0701108067665855
0.0491800851353024
0.0602791872666254
0.040100330259358
0.062088412551178
0.0403362881469246
0.0632086406994988
0.0497049852708382
0.0559403742378788
0.0393850951537206
0.0599193838998424
0.0537767793890818
0.0625090299877524
0.0451411274881267
0.0601331994381906
0.0499484812340647
0.0580315894020479
0.0425726220424139
0.0612384420745562
0.0417886244630713
0.0556367954162394
0.0445034979098502
0.0622638826000413
0.0339713096008408
0.0602594216352298
0.0487824292434876
0.0527576686169829
0.0475067813941958
0.0527285903868732
0.0480121977074793
0.06255265782799
0.0350696264196609
0.0566770237029037
0.0468694163007283
0.0503640927375375
0.0450249706410684
0.0488225650719004
0.0345891962334216
0.061966505683207
0.0376925340324008
0.0437683702948835
0.0443588437358554
0.0441802105603729
0.0428701201794774
0.0601244421671814
0.0389377834047531
0.0618840537098787
0.0393423818385877
0.0584674560086439
0.046235895930168
0.0493873395107966
0.0471050983253585
0.0625144803317846
0.0447490508325766
0.0620955636418662
0.035225092108366
0.0552098755045792
0.0541676769530419
0.047070028620694
0.0360936412283933
0.0556596515627287
0.0457113536228394
0.0635867598628861
0.0395481550683528
0.0478459376120921
0.0430476328557169
0.048203144352707
0.0343314264646759
0.050814279320635
0.0427305718747859
0.042999500278255
0.0418526225344193
0.0578487222801118
0.0277118169327585
0.0868905307443434
0.00442217731837601
0.0788071564764562
0.0413328486707795
0.0377946102247563
0.0702361363009875
0.0537076572915264
0.0460060280371282
0.0547320138881989
0.0470360554505328
0.0470987267952049
0.0464954881575309
0.0283098900563512
0.0355374083368271
0.0788090848692449
0.0377590717802102
0.0487701759413451
0.0391683849728858
0.0335096102354994
0.0423225996597076
0.0858114000440223
0.0305328100932865
0.0509198788202536
0.036119711736508
0.0412174384367861
0.0479698617561703
0.0696495256442664
0.0476765735440237
0.0489430874987693
0.0378420985222722
0.0416287305935298
0.0190700672797235
0.077072063275392
0.0308279188919171
0.051877197010802
0.0143008219608202
0.0506071766302369
0.0608643775805905
0.0695752944469303
0.0412278244026285
0.0458097716092902
0.0184995116533189
0.066503345533301
0.0373258857905286
0.0493711326371737
0.0302801171412295
0.0554226719145024
0.0315641480131915
0.0562615127498202
0.0229193211668466
0.0645433706380414
0.0469341412774157
0.00377385013780727
0.0301215857887596
0.104298368798954
0.014771349943923
0.098072416697575
0.0282107409215325
0.0576040568624538
0.0303571463540879
0.0578437365014394
0.0289102648512624
0.0581878938574648
0.024152949630493
0.056397574710162
0.0511485399176855
0.0487219893126243
0.0347737645277316
0.0619355496465277
0.0275680442825927
0.0213707605724069
0.0703046224071943
0.0679785760456149
0.0146430000028631
0.0647914121529892
0.0489081844707866
0.0458018587435717
0.0308762786327588
0.0745640407316523
0.0319476407465969
0.0548092279388319
0.0293322595093041
0.0408744325353685
0.0385903099468282
0.0530406999389512
0.0368718316516132
0.0469613442042945
0.00660902923921603
0.0490031895622122
0.0631308977973081
0.0809234556431049
0.0377767941385099
0.0668783724519133
-0.00357904650332057
0.0689263057978481
0.0654472189532597
0.0443685166303603
0.0344607918880776
0.0555559364254373
0.0273160212291541
0.0485126386078186
0.0297956397113334
0.0475770264558744
-0.00623005661907792
0.0854499202135188
0.0503762045653321
0.052643299775339
0.0356423502158482
0.0489322020272383
0.0141242878763093
0.0830270698355972
0.0592436647688833
0.0525520525449598
0.0357329218823612
0.0307350753063049
0.031982563582254
0.0672518492663513
0.0373883741838412
0.0586819340867766
0.0337122534866362
0.0497323207771977
0.0394066575353105
0.0510567474263311
0.0319026923392762
0.0493043651384358
0.0362715037677949
0.0464168130147795
0.0397455619231091
0.0549149344593458
0.0372205450500616
0.0445508361253899
0.0298212740649398
0.0424275711054012
0.0336479052995533
0.0706330354794933
0.0320664754469088
0.053561398094663
0.0314686158927507
0.0527855061096913
0.032524482426
0.0528723166851063
0.0305420087432092
0.0510237705843339
0.016180896101059
0.0792444025916986
0.045031540814836
0.0539170089410563
0.0192103320999638
0.0697402321827415
0.0502058553260933
0.0472757224630465
0.0389570505383862
0.0497102865546218
0.0300250496645547
0.033904893228804
0.0553198758863217
0.0464883334920369
0.0251484643990271
0.0597100485380317
0.0443828948505266
0.0434420262779576
0.0293125291999359
0.0189958427642149
0.0962637388388204
0.045997100424401
-0.00166418177336155
0.0915029155643323
0.0478376004341497
0.0502750744295779
0.03716130237698
-0.00596237610107944
0.111079789224695
0.101895351391654
0.0329728942757079
0.0376701927501613
0.058013532142616
0.0503611460332538
0.0358948359525569
0.0502942771104649
0.0326648625312367
0.0649367255760082
0.0153112002742974
0.094968742398558
0.0148661549111891
0.0572163984371974
0.0626778140626684
0.055201698081533
0.0416302654414774
0.05068740846268
0.0308003659679102
0.0538438581070132
0.0525504047813102
0.0570796460170808
0.0526777473581654
0.0339267482717034
0.0649278714258176
0.0612796458126207
0.0389125968016368
0.050703180278871
0.0513516918658168
0.0495968382088751
0.0480149579139642
0.0512408077714383
0.0502719051382898
0.0513037334811794
0.0152554573107783
0.0770159782202056
0.0476366788254424
0.0471758331732867
0.0649149390478476
0.0610155580176887
0.049003065045972
0.0556982826499725
0.0455003734930811
0.0529501746145506
0.0452499332375172
0.0431913977534814
0.0601100372845115
0.0688574868131249
0.0531815868232773
0.061741199440592
0.042719518360011
0.0572402252436371
0.0407902563577939
0.0542968189616222
0.0488538850865722
0.0600039721411927
0.0435592346346621
0.062604544011
0.0718335000735297
0.0360747202110718
0.0703489064855997
0.0941302825616341
0.0428039466167071
0.0712018456366859
0.0529354123818367
0.0667270777953485
0.0520175713186301
0.0657026409713432
0.0575027879023744
0.0606423709933444
0.0582329455563316
0.0769026602153849
0.0480422611104654
0.0587469564848651
0.0589951609356546
0.12923515369343
0.0709307211285161
0.0783024620208961
0.0340272776283383
0.0808315499056335
0.0875181151616026
0.0864177330060694
0.09155410064101
0.0739546150518581
0.0793015909963099
0.0737128291312344
0.079411462333112
0.0777661524295936
0.0822229325161273
0.081071387646234
0.0821690999360443
0.0828116579831964
0.0801779128003794
0.0816607329148192
0.0726463787779518
0.125527650865664
0.0987664948939367
0.095187570394561
0.0919115999140336
0.0875915093334951
0.093625235402776
0.114101268884421
0.111896114938566
0.13652459945753
0.0753355015433289
0.145878595795697
0.0907646604683554
0.117436935233873
0.099567641076093
0.122167796788564
0.105224703741878
0.126819828451706
0.109377154335605
0.128536619734539
0.106696987573205
0.14227173664484
0.119511308031957
0.129446843663842
0.115150083748044
0.154362951999467
0.131079859460758
0.149335932471592
0.120977196105134
0.138233078206915
0.143049067292441
0.184578034693216
0.140196632508456
0.151773847073898
0.152523339726401
0.160970016782417
0.158367384504673
0.162356220265549
0.159768430313852
0.171480455854203
0.165380782455854
0.191159493517628
0.167997902082479
0.205011509673485
0.164644779563067
0.184622574997286
0.177505473471218
0.189638417765774
0.195476678049615
0.208037285328633
0.180650172565032
0.209730281591503
0.199974170404947
0.20214361701775
0.213320931504417
0.20681043039034
0.200665197713968
0.218993511685131
0.219123074766367
0.215045336182467
0.202902848558344
0.244470558499041
0.225967451985922
0.242126466615697
0.222988449839102
0.24770612954917
0.236789297666374
0.250684963422625
0.230815680041399
0.280920690763356
0.245531508087524
0.266704359497935
0.242834443801329
0.271632060404451
0.264928017563303
0.282852174352933
0.272509157832778
0.279203749396456
0.265661723625779
0.293847908476364
0.258087763799498
0.297915094695326
0.289685107498635
0.316895305340663
0.293160697774923
0.318013439630804
0.309430808456061
0.330474593486739
0.301231696839646
0.322124770229087
0.316699862406352
0.33812691164714
0.311820671877604
0.336105108994464
0.314955890390367
0.355717926491265
0.348212570280209
0.378396161741267
0.370602017312197
0.365438156872201
0.349365706547358
0.37809498701082
0.366699123177596
0.373309671393321
0.36394485023794
0.387078077126887
0.373568245466943
0.403466304635597
0.374019091867072
0.414382954952166
0.381725575699693
0.413015713649864
0.397156993625949
0.434686279286457
0.397982633848249
0.455275138847007
0.44106967538502
0.451315035823487
0.412696802970364
0.449743423585486
0.439228716481048
0.472408901627314
0.45571485385409
0.487985493970854
0.445120909428046
0.47315324011451
0.47417716880352
0.489488542572532
0.480009708306487
0.497433679592024
0.486077853743847
0.521247650360237
0.494796893215766
0.508158071539254
0.490525420245135
0.521120195995696
0.502119752552184
0.550019408815117
0.515557968080393
0.548744028763991
0.54209256865752
0.573736385706084
0.514221095723448
0.553998564633274
0.55619030578482
0.567870428393134
0.543323145363334
0.584608875388495
0.581514470351709
0.61493331241866
0.567023097378477
0.625844938943921
0.596568935975413
0.649107331941637
0.60301374123567
0.657017258298177
0.608113588882617
0.621227277412925
0.635660132551709
0.680644286084017
0.635759534216864
0.694310923409974
0.627095573367081
0.690019545370382
0.636051306650482
0.669851467803008
0.64782712226232
0.683212421934811
0.648141863448314
0.731056238749407
0.680265030727588
0.71079509330814
0.685848866788621
0.742004449597549
0.687246046977507
0.748545064249979
0.696493589411653
0.72765293088143
0.696605885891637
0.738119340814334
0.727131446340218
0.75706360573801
0.725134642134593
0.782132667363965
0.753640572767943
0.827285878230744
0.734203669589026
0.805170459660284
0.769254922278791
0.797716103503962
0.749864568845414
0.806809643873306
0.811385542720991
0.858779619631296
0.801327691113834
0.850874960309728
0.805793792972683
0.841393477055136
0.798444979458099
0.842542986328322
0.826765227416517
0.856556820286029
0.82659255433974
0.873697219767679
0.846225050373013
0.972318288867884
0.911482493356849
0.92778125590303
0.89057363563797
0.951162588697319
0.876312525747099
0.962477468279223
0.88022579235787
0.990740849869496
0.91456866810109
0.97754586597252
0.88398081700988
0.994178809559559
0.958224520720542
0.98259930127537
0.947876827450228
0.978391130569187
0.895155083021402
0.976492086968462
0.971783360736728
1.01752501195494
0.971908918667127
1.00212754813189
0.929655994149564
0.974005039890867
0.927779580339232
1.05157335671926
0.997226917204807
1.02528722948738
0.99060214962797
1.02461260497066
1.07584311134463
1.0780729207315
0.984536753491559
1.1602172021155
1.09799194745744
1.12780094858145
1.07702063854509
1.08577266694251
1.05329439851824
1.04743016234511
1.10634296519711
1.08813605932689
0.991855891503525
1.144718776207
1.0927036218175
1.11905840000583
1.08288139567841
1.13608979050771
1.10495274057842
1.17947902826465
1.10898836727478
1.17047920024541
1.1657302325804
1.2043830317886
1.09375138655644
1.15113096167311
1.11169693261115
1.16847070191194
1.07437869222986
1.18256585860358
1.09406460283957
1.15948519572829
1.13859776161617
1.18452691649594
1.13577624644968
1.17567992902844
1.12752585435013
1.1737397856243
1.10237278181088
1.22124603503264
1.14974834671656
1.45228582381974
1.29554927124966
1.23970197773559
1.14284837721588
1.177160677852
1.14951415179552
1.27004073693619
1.23135896326729
1.37468218574966
1.27526990753701
1.37371557406624
1.32154012348503
1.36057375247913
1.18452602843498
1.23752119611616
1.20760347695537
1.31833009826149
1.21314879229687
1.33137892487044
1.30003387093398
1.34149011757055
1.22955492211994
1.26623048814171
1.14941937907978
1.29929428820631
1.2908217540316
1.29090904679893
1.27726107360402
1.2730141968174
1.33824972868431
1.3274249286916
1.21845318615609
1.33667362712339
1.27258785751558
1.26811870347266
1.23001067486567
1.39412562752805
1.37290121230521
1.49950178257068
1.26527605489251
1.30034255974085
1.37231779247466
1.41630721812762
1.2649526506397
1.35207887601023
1.35999911255445
1.44921099768042
1.34062740474736
1.334162364239
1.32775106583216
1.35634090267896
1.24095706545902
1.33094668093631
1.26696352319377
1.42327943892018
1.30326789502543
1.54316662438101
1.39891638882497
1.2934181262471
1.28028909049976
1.31965882816399
1.32747285809347
1.42326413407043
1.47746796509817
1.42756518212168
1.34155846472342
1.49425942156438
1.30114125081359
1.35246430791252
1.44260132146573
1.4861963095832
1.56701866522846
1.45238117137474
1.34415870992772
1.35640741915502
1.29444550877842
1.29961151895985
1.22138569524644
1.54565695026851
1.33988767482783
1.3713795265704
1.36998901494245
1.46916224835693
1.34439848972912
1.34533001367439
1.30834089410779
1.46776613110958
1.30539143231654
1.29938233353155
1.42381631797528
1.44274215838801
1.33076592943497
1.42712549500437
1.34589364295245
1.37511712551659
1.43718653001244
1.46305330933766
1.3625281107283
1.39499980400788
1.35263320054422
1.37561201768054
1.36230760969232
1.45576090034734
1.37483516445742
1.45245309204253
1.39177873851746
1.35814454369932
1.31776634574837
1.40711189729112
1.3471995609198
1.30179755183582
1.32210119384433
1.39095355597723
1.33629234818056
1.4360610930571
1.38275681889684
1.38063597875271
1.43084785732263
1.39361320353384
1.27603717946859
1.36463635670992
1.41298201317295
1.47412412952214
1.33192865984952
1.36997884125666
1.41843889345491
1.3672211872157
1.36991902920588
1.41582570971354
1.44884278108628
1.36950874251753
1.23522954172159
1.38124518926191
1.39333690000395
1.40603627659528
1.35268807212477
1.42149570299462
1.40475885860537
1.36334746369937
1.32897645116095
1.37733086938376
1.38725040756393
1.33649837455214
1.31379907225931
1.47072043955118
1.33051247076419
1.38558014486709
1.40276615521988
1.30181704908814
1.31484893172748
1.32271272732794
1.30657086306806
1.35544923206261
1.36155023962694
1.34160283328358
1.22520215517919
1.3144972663734
1.33606587087036
1.43088334623608
1.43632204173202
1.3386887161061
1.25414561577829
1.33221788860337
1.29036233252861
1.37620737907896
1.34351184783985
1.27360511982988
1.31537282291737
1.25839910215083
1.216353835666
1.35521684058878
1.28891907654656
1.28876854576854
1.21554749554164
1.2783041813035
1.26999398893297
1.25056458037759
1.22507242610094
1.26447621738613
1.219136167345
1.27115339432056
1.27409531778619
1.24839914927991
1.25421008363895
1.27413275674092
1.23104808119777
1.24257407488177
1.26299941591932
1.27678259164516
1.23188789186514
1.23337166980161
1.15371333788572
1.21961692992343
1.2877313018022
1.29131132184507
1.23323888892352
1.20960922935276
1.19729696122174
1.28047819799946
1.22168916377533
1.2410090440851
1.16723419649935
1.1932530088877
1.22191656172185
1.14759617827111
1.17867758930522
1.2273803384079
1.20036387470726
1.17185995442765
1.11859432923751
1.16861899851522
1.16362140603053
1.17307173225369
1.17650227198868
1.1847167653381
1.15814357478076
1.11529010393224
1.08212125614219
1.15873287110414
1.15608876866754
1.11304303882456
1.13004900091116
1.13795943087858
1.10187241165906
1.1108980028028
1.12524482455152
1.15125178384185
1.08615409162651
1.10556050783682
1.08914469986177
1.10170828563045
1.09443482056881
1.0813532645886
1.03704045885423
1.04115868687556
1.04714458479537
1.08798975620096
1.05815458726834
1.02279389561023
1.01322174349013
1.05435726443439
1.01592407870554
1.02861197805332
1.06235961482041
1.04166443121616
0.979539723886027
1.01501086510985
1.01668664204224
0.988830605988351
0.987135345074895
1.0021848159104
0.991615685804879
1.00061037354386
0.999131452619612
0.98958743862012
0.93775501105139
0.963722263634992
0.953957638489563
0.965553357374352
0.980927010249078
0.972782385971117
0.935437433113306
0.917567358206135
0.915729145287614
0.926747631008087
0.914546021338531
0.910606344359762
0.908023251654319
0.906303886991593
0.911575515889894
0.923409022654022
0.87885579464014
0.903425501443389
0.879078568248788
0.883156512955471
0.859344972080306
0.872390539899297
0.862996325333641
0.862516860599332
0.890601838873865
0.850958639321625
0.858533530353688
0.885675997654896
0.842348141557874
0.842346167407368
0.829270683143898
0.831582126509824
0.838451014558542
0.826208980587643
0.807348295730729
0.816320175965455
0.817980293710227
0.835864369541606
0.817984045020996
0.835976841044667
0.803609194804451
0.807273323002917
0.79063778089803
0.797807149895113
0.799127106679193
0.77862072391767
0.759307986678607
0.767755351763395
0.761652954338355
0.763631770572231
0.765586838067123
0.778573521134458
0.764002335741889
0.763697723302787
0.749270877232479
0.74205481400427
0.735508227154932
0.750331415428092
0.734999075586153
0.76010727909783
0.748054499627294
0.715912914530588
0.711460345513844
0.721977836313815
0.704414500399528
0.703784368367726
0.713698491422925
0.711036503386105
0.686602994846676
0.686551738366967
0.674478052638838
0.689022169698064
0.693198827961071
0.691290967307243
0.679506743820096
0.680928933449802
0.671470230602746
0.653935930736846
0.663376292078417
0.657799309963531
0.661438396808655
0.66986729773151
0.664309244048689
0.66748155836686
0.64292257858558
0.650733056365846
0.63383683333435
0.644951433047465
0.628868060043924
0.636162417883618
0.636982860367523
0.621479625994486
0.613435214251685
0.637013328672318
0.634063278280044
0.619842684236517
0.61647851271657
0.610117306860586
0.598307456904206
0.609527203740787
0.607630692269085
0.601043742519317
0.592099111897376
0.592139806538029
0.589899411634511
0.592819424431767
0.583725138830269
0.58931466270117
0.582488275649783
0.593478923191058
0.579785853569183
0.56450469887582
0.56408670365527
0.571631633826696
0.566612751040526
0.568602216380936
0.563848500858128
0.554908079906399
0.548459339376273
0.547916250794757
0.53940934021166
0.547916168808409
0.539370276303679
0.539872654626291
0.529546274499668
0.544268727225343
0.527864901924974
0.527741694495863
0.529930907335741
0.52860223244606
0.511736290183783
0.518296439722178
0.521927757145966
0.517550015252919
0.501204218200407
0.502993379714515
0.508546121911955
0.500505760110698
0.491876426002965
0.500183085549446
0.496321811490598
0.49061223737896
0.495747341466024
0.497833134841941
0.485372983131622
0.490000003816099
0.481856427457373
0.486414598769125
0.476078581372364
0.470772661057145
0.478762014510312
0.47961229142522
0.467511301265785
0.454238396552853
0.45399039909858
0.468335470381107
0.458390021082863
0.45517682596976
0.452444502168201
0.458874551384015
0.45697567418304
0.463137607955004
0.442713170746455
0.453595942701083
0.447667473235974
0.446478291756215
0.447788008603482
0.446040004135006
0.438471281568383
0.441381880293313
0.443439654769831
0.439384916341368
0.43713165949196
0.444225842366358
0.438099746268494
0.431007543634987
0.426431601745855
0.442596380363584
0.430603433354512
0.431927680474242
0.43366788633046
0.434325656132935
0.43481253465835
0.439454915274643
0.435289670270899
0.43778792808699
0.435897815337986
0.441288459514511
0.436912577400447
0.437476553728142
0.439257113365496
0.43577397143768
0.431669035632056
0.434741052312179
0.438418113327618
0.439718850080034
0.440558696717977
0.448699535798627
0.439419549570049
0.445546631818956
0.456046008668913
0.461964260182134
0.450172777616338
0.455950592881499
0.457808135459084
0.461941678040688
0.458016017247679
0.464754642792665
0.458565160287163
0.462034883237154
0.469941369638363
0.471820017396711
0.463638773532633
0.472175877617197
0.473529035388161
0.480955500999497
0.48516386079956
0.484345549903169
0.479172228887073
0.488406310716027
0.495201038089959
0.488645071490689
0.485934728953714
0.493933910887258
0.486216262515386
0.506625113430931
0.508903282607911
0.501884969515956
0.516209804644557
0.514010377891497
0.512587314357886
0.526486936815333
0.523881679454422
0.536463691302941
0.533258407291139
0.528759411135163
0.536549268035068
0.548687383330215
0.552538640980925
0.554368685683139
0.548120588380635
0.558530066797954
0.567163500341809
0.566453510174776
0.56641511279457
0.571110399703419
0.58348049721406
0.573566219401595
0.569597015952953
0.576783945141196
0.577224654020979
0.580271070224761
0.5835048813171
0.580931442937638
0.576185438420569
0.573792056877808
0.583979784433848
0.587501490137855
0.578450449072703
0.582426779493406
0.579852905560328
0.569400343133588
0.568722932725249
0.582884196089308
0.586716720092649
0.571577168384136
0.567538021045773
0.568526763708697
0.577943715329697
0.577890989253357
0.557567290071518
0.56188272725131
0.574875776165164
0.562565445617427
0.57333365359348
0.583299656964758
0.575523633552454
0.569371386520437
0.565393815380302
0.57663035248271
0.567736851476169
0.573642029699081
0.569425610421426
0.566633384443529
0.578989620550129
0.570089496260856
0.572556332928959
0.572319877436362
0.566092019780097
0.577671264421898
0.576662111549137
0.574738277545341
0.572885709176249
0.578680698321577
0.578837293687568
0.575517932312371
0.572696396045723
0.573487983395156
0.57264471160162
0.570592221578794
0.565358837714256
0.560346634048613
0.575424296833547
0.574992047273146
0.558647612951358
0.56190570969543
0.567712059770997
0.56401975915394
0.55434860600552
0.547855790486754
0.557591424210698
0.552878565719288
0.549684232090273
0.555122498959111
0.552567653589206
0.539342464340667
0.545053206956735
0.540542846658472
0.530123716523209
0.528962837983365
0.525909844879686
0.51776670411558
0.516194853532988
0.516262698136673
0.51417268167049
0.5073594083631
0.499567671435037
0.502331854507099
0.493801427412213
0.493685590259757
0.49248571749135
0.486634478983764
0.482317244455101
0.478686051224299
0.474968074997146
0.473320698956235
0.463406078163314
0.463447795117801
0.46447993012536
0.460374275902144
0.453349333236464
0.457845162789627
0.450291785086542
0.443652297416992
0.443365201149484
0.447586999721309
0.450138538345595
0.435450628637426
0.43474823606955
0.43885113953513
0.427947558901806
0.425400060638865
0.429842829429554
0.429416325020783
0.421598188299389
0.422065853004948
0.413744657244258
0.406933762744484
0.412100517982461
0.413070189578591
0.411420828670554
0.404795167626434
0.404627765979554
0.397036432694297
0.397509335616452
0.394377612999878
0.39300982744285
0.39398551201776
0.394633813371371
0.391427089743357
0.390292650437855
0.385954155192371
0.389526814215288
0.384487512327565
0.384804412543284
0.383266158860827
0.378031628428643
0.377416902479045
0.374578389223139
0.372824887552936
0.372643911172173
0.376359593195786
0.377958701913679
0.367108592317185
0.370605127774633
0.373337377979958
0.363491121759843
0.364461950916399
0.364940478544161
0.364763629617315
0.357609011752552
0.358085668056965
0.361135025507411
0.356136185638654
0.35094554636982
0.352771679661411
0.350860408010035
0.352698150395662
0.342437096629648
0.351321589749209
0.34876717542774
0.344100287372935
0.35058622248314
0.341445496818562
0.344270115970749
0.338230955550329
0.339226369837175
0.339457353780078
0.342889347431818
0.341498920156748
0.336829753006336
0.34363614666064
0.332266123434453
0.33894958980034
0.337032485259549
0.334089697538542
0.330071375617269
0.330181206481445
0.333097144250625
0.328415804489875
0.32114230044557
0.325654446355189
0.322213687345778
0.325417119178728
0.330868572912185
0.323500899583653
0.325441638062256
0.32918420213507
0.319560009986437
0.314693764494773
0.316954252191043
0.320006753759639
0.317950604971326
0.314948116343068
0.311046598856563
0.313992196446182
0.306550578160222
0.315083908292501
0.320427296641552
0.315503807887093
0.313682910770657
0.315903711196115
0.314315439999557
0.31026969664289
0.309374256076385
0.31072215015979
0.306656815090016
0.308472962538872
0.304884881703755
0.303380708004806
0.304775333963506
0.300942296175203
0.299263124544097
0.304560331093619
0.305996853167948
0.30488019507533
0.307731760189289
0.298861151680278
0.29877031471848
0.301355859948698
0.302286643701237
0.304198106691613
0.296401961453324
0.292669755503995
0.304352588732236
0.299278040971728
0.29872977682875
0.302950533939801
0.301676263927402
0.294735339750527
0.298780831642234
0.297112549873435
0.29265314739828
0.294788126208053
0.296450251033489
0.29458207464463
0.295211725024115
0.29233600212012
0.28775790003917
0.285989178127352
0.295181960164453
0.29028766772093
0.289719774569961
0.292575138217586
0.289728947896304
0.286009700209069
0.287395696403854
0.283035210565729
0.282677221508704
0.284966279908201
0.284460513102003
0.280107725093808
0.283903449683246
0.280236688460415
0.279999192767032
0.283314475097161
0.280641062138616
0.283504258670905
0.279144789663192
0.275632057691322
0.2739761483029
0.27618944262552
0.280585005817376
0.279200157011011
0.27668796635403
0.272534328658378
0.269499025106755
0.276754585432945
0.268943245861311
0.266294623348836
0.268032530734125
0.265925341365037
0.27402404061619
0.263665397088508
0.269511017421501
0.267783979792307
0.264293831225874
0.262352644118697
0.262559514151977
0.263039359508182
0.262619772279156
0.262032305173128
0.261072108161648
0.258822502983124
0.260739970799388
0.254799567492928
0.259041437538406
0.261323092341936
0.254054440869031
0.253647565197957
0.254843700363913
0.252614942923964
0.254468376421446
0.252188301400115
0.249593377924868
0.250715703821295
0.244607740072503
0.244169800304544
0.246463696002719
0.246533117256551
0.246088596523171
0.243985572470314
0.241691624980804
0.23956676583273
0.242224360954966
0.237671351750403
0.235581804707186
0.24112324615465
0.238651512012333
0.236945412940772
0.237403866081693
0.234632798766831
0.232601150423333
0.234772693739256
0.232325941053395
0.233107613347222
0.231075147740013
0.22607927759406
0.229677092870354
0.228876159248247
0.223111675504212
0.223491207711392
0.22228055742019
0.224194735969555
0.226071817083662
0.222327009983545
0.21966754138161
0.219041545551613
0.220036040559469
0.215408180947873
0.218084189970866
0.21436034884058
0.211850044483874
0.215796740419832
0.211249853360705
0.21206444609266
0.210351359546686
0.210071167579778
0.205346582435635
0.210997205188558
0.211710856541711
0.208565008251767
0.204074609826904
0.208439417529089
0.205400294352748
0.202132516438253
0.204918592633437
0.201808777208931
0.205322152421323
0.201937283463985
0.204528148959046
0.201087172442456
0.196915696086091
0.196114312608499
0.199283445354587
0.193006723061741
0.193993444174047
0.194434770677786
0.194061707500888
0.197119776452857
0.192524621497403
0.190953859644469
0.194416218291608
0.186854487748843
0.193759150365794
0.189646049138629
0.189165197822589
0.187563543563457
0.188313561772904
0.186541839720175
0.187101527559496
0.189989032036433
0.183161440045007
0.182736320722514
0.187106364831978
0.186666004647998
0.184728218399287
0.180725836385573
0.181128046023677
0.177394639397454
0.179690702805789
0.182020471715559
0.179753808341094
0.185444612175576
0.183132846728456
0.178455356664179
0.18058545918964
0.175960812555833
0.180213506927447
0.177566439349726
0.17593395149894
0.172811598711364
0.175026134216689
0.174346461158177
0.171864369752164
0.176188111317131
0.176490716544473
0.171649929091335
0.169965442002849
0.170890128230272
0.171669091824298
0.172487804399849
0.17210064780643
0.16960049623762
0.17233026950188
0.169596654656153
0.169476490223835
0.172502389966404
0.169297108109765
0.165733030235855
0.16579789228455
0.167722709917723
0.168603964475162
0.163445989687831
0.166010465265414
0.164922545345659
0.166494493060475
0.167416211051783
0.168915575489692
0.166545600507506
0.163435183636764
0.164435030087646
0.164758517173733
0.164863063732869
0.162260046051284
0.160309341783323
0.159057171001485
0.159842402568455
0.161381023856018
0.160416914774268
0.157015074342542
0.157456333636969
0.160283413207425
0.155414054444762
0.160631642728384
0.156817991281616
0.15432571546433
0.155173876011009
0.157563672350175
0.163433470233557
0.157197060366162
0.152489451564733
0.156706010856299
0.15666188636968
0.155369905791837
0.151703379432024
0.15451106209558
0.149951333817255
0.150353770125971
0.152890195138434
0.152217280581037
0.148876453968044
0.153477102045187
0.150043922216734
0.148988523181229
0.150985989088754
0.150718405412478
0.146784586540285
0.150559185947683
0.145786686308414
0.149905136461819
0.148077148278586
0.146121253494103
0.149092593315025
0.146634272522094
0.145366941858819
0.149566936323451
0.145873622822258
0.143739119029156
0.143528748822813
0.147378426032725
0.144120116300963
0.145045108047335
0.145785501340315
0.145365974484365
0.146849475472762
0.143471443853015
0.144318448144955
0.141050255808527
0.142923781872486
0.140564804667004
0.138426224606352
0.141981933964207
0.14004258400646
0.136057789720698
0.137969504839689
0.137583336642963
0.13725638366456
0.140531867436217
0.135417100016514
0.137598802857924
0.136577614326027
0.134075409385947
0.134256550956203
0.132159800770906
0.131331503626682
0.13131371899516
0.12940958952998
0.130618875399289
0.129107084174601
0.128849252607729
0.131500072894317
0.132388608793012
0.129837493862309
0.127253557145929
0.127245044184673
0.124297828361307
0.127390083973673
0.126706071784105
0.126062798832516
0.125429602311169
0.12509256181237
0.121155951479994
0.123618517519046
0.123648632999276
0.122805074952595
0.120705854340292
0.122838561538441
0.124003980427782
0.119766740522328
0.12087509084063
0.120545460865305
0.117936470924136
0.116690912577751
0.117322336159353
0.115807708695389
0.118217921214978
0.114120568783392
0.116252075079969
0.117643803414336
0.118959664755567
0.115322807439372
0.117226702317273
0.112977315432819
0.110656434642407
0.114989943003757
0.116936071761984
0.115019135939796
0.11445996183758
0.11208208017187
0.112874663185959
0.107199931240278
0.109460533833085
0.111644036568013
0.108216553762382
0.108270414520191
0.105790937200493
0.108718016928718
0.1066193868565
0.105590868845191
0.104548220032057
0.107501342052261
0.105424856797489
0.106501704351876
0.108393914622817
0.104287583925504
0.106029344344929
0.101703810697271
0.100785895872471
0.104760960911252
0.105258944687393
0.100636381676011
0.0983503737714342
0.0980210031878732
0.0957890214028909
0.0995643439136841
0.0994988689204965
0.0968586893550904
0.100606554974023
0.0969038412245763
0.0965841533654702
0.0967295202523588
0.0964893108983514
0.0987013347922168
0.0969080616217318
0.0974424212845195
0.0982387135055768
0.0944442359942173
0.0941907602481913
0.0949624723089058
0.0943868845953607
0.0957264387414516
0.0924634404399259
0.0927181023319161
0.0941278892294449
0.0945396314443683
0.0950982051515764
0.0936842811620414
0.0913350189250995
0.0932628785392101
0.0910124941197077
0.0924704747477441
0.0902759019927208
0.0921716969443703
0.0927415415148086
0.0907983688594104
0.0900357540993624
0.0923834099427419
0.0896437161725124
0.0917745618364387
0.0935381153994923
0.0921074059469274
0.0897612766261509
0.0892563572285479
0.0863218552391481
0.0850280471140327
0.0869678702095997
0.0885151335677827
0.0887286356166351
0.088459445696238
0.0859536704185345
0.0889938202709878
0.0895510189818447
0.0857488702709068
0.0776384941771553
0.0877423660882738
0.0874610383189777
0.0836942613828402
0.0839193131951667
0.0914703344483505
0.0781150832471401
0.0821011147474391
0.0857224679573696
0.080711363237202
0.0899365640186446
0.0804457178508442
0.0837849565636454
0.0891969420953907
0.083247494825185
0.0891765616577394
0.0824726492577696
0.0846784283808666
0.0795625391112247
0.0794959060749522
0.0758686626489624
0.078277672132532
0.0794577474486005
0.0824817659193133
0.0791149531673254
0.0799276747806845
0.0813509691577959
0.0799563445394283
0.0785319301308618
0.0780200555507092
0.077817099783796
0.0744327125127468
0.0795881265262306
0.0830521583210564
0.0879475739218855
0.0787688596599176
0.0938344438054333
0.0705730101987991
0.0852073750607728
0.070250966169142
0.0987322407266236
0.0684867113658791
0.0986113180151315
0.0556265440813164
0.101692015749511
0.0623935189012111
0.113171478050938
0.0523541041453391
0.108193556728008
0.0549907096509209
0.110250923155606
0.0525867934728257
0.10490625068076
0.0629025853559155
0.0961226178244004
0.0630553442116459
0.0875365152925932
0.0718826038223071
0.0811533983792215
0.0830617696744983
0.0757877836003655
0.0786574683614658
0.0752763764748673
0.0814521194110807
0.0782312907572552
0.0774610679825548
0.0804801742457109
0.0716781005597453
0.0821672116549632
0.0737344813210602
0.0823213598512738
0.0755202200737413
0.0830422795016698
0.074390385839463
0.076776275414194
0.0752542455501649
0.0761571137087052
0.0741615353025468
0.078796575354049
0.0737452709998398
0.0784240253934744
0.0744748887668062
0.0779103393647275
0.0734895617916643
0.0776701839203034
0.0732996376199869
0.0779167720433113
0.0750778108625206
0.0784289254532095
0.0749698507625835
0.0784044296429397
0.0747780387404851
0.0788750698482608
0.074902742287502
0.078224205399541
0.074512403544626
0.0773699535763296
0.0745385762076513
0.0754437319976816
0.0766304856290078
0.0810674106981891
0.0752547248397262
0.0797741924541679
0.0762480994903411
0.080263455500598
0.0767183058731235
0.0791207084646885
0.0764913049569628
0.0764175290764141
0.0744850615620447
0.0811237921535583
0.0748618930330712
0.0801590682167428
0.076319186439173
0.0797301775593359
0.0759072274536431
0.0772166151049099
0.0755021129966108
0.0798491873464414
0.0745496403051627
0.0785976962913325
0.0745765718460411
0.0772348078299886
0.0755552481500738
0.0783469221696852
0.0749121031648514
0.0790523895817037
0.0758680025778224
0.0795654030505418
0.0775368926195594
0.077719090987107
0.0760072012946454
0.0800408772077085
0.0773538011000626
0.0755468490196504
0.0745327915695238
0.0804851778618696
0.0754999408783606
0.0778576823346437
0.0772941724083788
0.0791787683404548
0.0763643171395139
0.0751766090389962
0.0768432612173647
0.0786354860372535
0.0756488259670587
0.0789321029869755
0.0781599940000665
0.0774768185955853
0.078787822229042
0.0784952815423169
0.077565363548719
0.0810413604446797
0.0782319092392728
0.0796513361689377
0.0782217433694703
0.0778531987630199
0.076143185813316
0.0794699581632129
0.0761648701883283
0.0801135430097767
0.0779019776103869
0.0795230439998396
0.0804603894883383
0.0823939059439144
0.0783645895705312
0.0802431057674657
0.0790597117037256
0.081124749308761
0.0813384939529715
0.0850034633741615
0.0798825122272842
0.0814848518616936
0.0818323297715877
0.079957301828352
0.0795452452719695
0.0795494738320865
0.0785780921755759
0.0784911127399034
0.0813874631518385
0.0797843906612871
0.0816321672790847
0.0811934133486561
0.079650769292303
0.0804809821201091
0.0794847690560002
0.0843333472960856
0.0781112614797056
0.0812596800583407
0.0807231311520842
0.0832857146110076
0.0793705685772376
0.0824524339954665
0.081034520374051
0.0841141557992627
0.0780976054659458
0.0837373551200517
0.0797874023595528
0.0835461934477134
0.0806684233226663
0.0823403315371522
0.0841423019115888
0.0826198636382279
0.081210099576617
0.0845702792604975
0.082378660732045
0.0852118504216671
0.0842251315457916
0.0828711712637879
0.0811530271762441
0.0837125328321202
0.0855011366023146
0.0841988007054492
0.0822505280123232
0.0835432608632087
0.0846215783314762
0.0850647793730169
0.0850883667046662
0.0835212059489816
0.0865571264369424
0.0874560532751884
0.0825515530577769
0.0870080212136869
0.0840578354524023
0.084881170183318
0.0852655703177762
0.0864604413435537
0.0853671808473724
0.0866198634659277
0.0849244174708699
0.0864496348018154
0.0850653606366025
0.0910603270782025
0.084784777965582
0.0864579654994532
0.0863601991898703
0.0879662411889435
0.084925603833719
0.0852248068126232
0.0831724712022716
0.0859608468371289
0.087180756033193
0.0871603264148962
0.0828144818435636
0.0818062069399938
0.0839814085214362
0.0845376536758189
0.0841653426943824
0.0851907013794019
0.0844242047966768
0.0840611012449859
0.0818432323047881
0.0850980888750638
0.0829605181045586
0.0835728640853956
0.0817324219601788
0.0827080123707366
0.079530732405841
0.0839116100633908
0.0820991719768887
0.0869793463318543
0.0807655736456081
0.0831181139948884
0.0798598447744388
0.0845357658333005
0.0806724814007006
0.0820421648635052
0.0791495951571343
0.0824889196135121
0.0821000242641593
0.0807556434708348
0.0785892158645946
0.0814184344159451
0.0796615504605667
0.081199461503574
0.0794362632163342
0.0798184166998851
0.0784229463724524
0.0804506304494838
0.0808708334363757
0.0829585168402115
0.079799243687765
0.0809028374693771
0.0798900324568811
0.0809439082234807
0.079316768494278
0.0819883140199097
0.0801493764819891
0.0806241135936354
0.076624138100723
0.0807086251587791
0.0793917436734652
0.0787495353252926
0.0775789109300216
0.0820722911913919
0.0784425660904082
0.0792401558984448
0.0764708987173768
0.0813448317059252
0.0788559422513241
0.0793038529861025
0.0772753876451429
0.0793652769328242
0.0784896772305807
0.0793905756495656
0.0775903775470956
0.0797634751343839
0.0777102081445019
0.0785938098276625
0.0769694114096322
0.0789503233174444
0.0789124548733168
0.0792244703242927
0.0770973392289452
0.081785970254299
0.0763235443467105
0.0782570542410299
0.0764376988488162
0.0774083473052885
0.0760702681214261
0.0781612670418374
0.0762287260401466
0.0758548214471765
0.0791967135282002
0.0808602920122884
0.0779583716996333
0.080927226814885
0.0748044786091198
0.0781851522325303
0.0757887917509195
0.07664669815171
0.075563215420796
0.0758884127945033
0.076125417788426
0.0803391434239255
0.0755398573738886
0.0762753172079782
0.0737045155929277
0.0768472957628743
0.0741330992364638
0.0748816863591282
0.0749698277440533
0.0762214054869247
0.0756087048745036
0.0772637007065339
0.0717947963044294
0.0767326337510347
0.0733538885330592
0.0755829912299174
0.0741128676095483
0.0753049000734334
0.0744518745481781
0.0753563771727225
0.0714467022195447
0.0725676832795113
0.0741999861322925
0.0770618021381285
0.0750122030013798
0.0773259042822601
0.0721302983277729
0.0729440188022597
0.0707690876211332
0.0738666184383727
0.0710385109116563
0.0745365265567025
0.0739314745644078
0.0715148753958204
0.072255208286243
0.073155033201782
0.0704087879345599
0.0700896711456385
0.0702434779153547
0.0721518316564754
0.0697588196525661
0.0699475636699876
0.0704794736577583
0.0692733803845725
0.0706721184047033
0.0685034734700161
0.0671608354989976
0.068879749860768
0.0665940129348526
0.069616778930325
0.066103112451962
0.0690684124157494
0.0677961314703931
0.0674232574513106
0.0653968621068367
0.0679475602747496
0.0702285129192561
0.0662814246024912
0.062625314040369
0.0685836244447685
0.0674191622322057
0.0669239748523521
0.0661641534237632
0.0635345356116088
0.0649390951736395
0.0646810795593866
0.0666473725323602
0.0629493516212478
0.0637268821362109
0.068315764194357
0.064400698728492
0.067763006778485
0.0663953601711254
0.0689031248015871
0.0627237218278686
0.0670488353864896
0.0615103336009802
0.0643806051344629
0.0656369339658491
0.0660836394805195
0.0622191732543644
0.0641887558089041
0.0634037295665437
0.0662508892347424
0.0637817845982527
0.0652502837331339
0.0633465627408555
0.0634812449744953
0.0610239227209271
0.0644943924946872
0.0617313485422697
0.0626395211194276
0.0642494679578964
0.0637275835979119
0.0601830932776011
0.0667985585735286
0.0607652221075869
0.0658252859430953
0.0603853260783309
0.0637196191151026
0.0594508150308741
0.0632113635310137
0.0614934136824009
0.0643976528039041
0.0609458000170589
0.0626922841080065
0.0608287911415974
0.0635206536547789
0.0612420728184142
0.0641219515782272
0.0570446481073577
0.0649213168918299
0.0571289376077052
0.0614248629796311
0.0582548555010759
0.0622771725922043
0.0582119670895891
0.062758504529552
0.0581998972573487
0.0644361611871694
0.0546693440848844
0.0604700111205136
0.0665077307902019
0.0603356800971088
0.06163242048182
0.0586090477135465
0.0624647389326869
0.0588353013060545
0.0589160150332943
0.0586803963793663
0.0613113693192736
0.0609175239973948
0.0613721776958865
0.0597549366364595
0.0592298835376516
0.0582595893659232
0.059073095868688
0.0590484104880889
0.0569204030411734
0.054564020274461
0.0616935747264519
0.0565921549589906
0.0600204872599778
0.0654618354726324
0.0571018365047643
0.0583564331113084
0.0631870656156698
0.0493348535415201
0.0693317472388957
0.0587472098002985
0.0632891681307374
0.0566564692808888
0.0599331314603393
0.0579050991089511
0.0596707017671414
0.0581251642419636
0.0562075428810123
0.062344236889725
0.05491876013368
0.063620649819125
0.0581221138253972
0.0597974272321587
0.0563721801106558
0.0594711978495491
0.0567124055965472
0.060571544957135
0.0602137116988666
0.0591401241861697
0.058104271129699
0.057766029994867
0.0599503810890663
0.0550662090061223
0.058115641870367
0.0605819859131565
0.0572749395359298
0.0594857298125803
0.061668820806335
0.0536979791174804
0.0557848785654764
0.0717377319048973
0.054463405164582
0.0623726981632967
0.0533598962253725
0.0628597338619377
0.0591281207695968
0.0616820879785491
0.0553753139691116
0.0610495241535966
0.0572175338735712
0.0634264022010749
0.0568701903309391
0.0604450632335431
0.0585670410029129
0.0608875128367618
0.0571840250924926
0.0615427764681997
0.0598689072995999
0.0545457935524523
0.061459116869623
0.0485119311979786
0.0573907454468273
0.0645521466301509
0.0621025261008493
0.064486057144431
0.0601045760227396
0.0588732889548736
0.0556577086035154
0.058541296721294
0.0579847156070323
0.0637508337609915
0.0569331343014809
0.0613527126868876
0.0586693891592919
0.0625765658551382
0.0568696992980119
0.0631754877905371
0.0578455735880006
0.062870004693168
0.0539550053871528
0.0628473954710653
0.0518313866408948
0.0636588300644312
0.0506907427406405
0.0675370334091176
0.0525022905710238
0.071081804684928
0.0379146148529757
0.0767345226300677
0.0660132735672633
0.0588366059519545
0.0652737294982237
0.0584605013282728
0.0621996935955827
0.0584356247371161
0.0575389919724378
0.0637753277699241
0.0615540369734862
0.0595615576083526
0.0585113453501197
0.0620843466851511
0.0655160622082984
0.0563178311217638
0.0532845544196705
0.0712571685126485
0.0599478459495886
0.0696039576643152
0.0594579377528675
0.061710950275559
0.0722620684125359
0.0605373918581508
0.0675345900151824
0.062563838622274
0.0602999306050186
0.0626020504772348
0.0628425954144659
0.0617468997935586
0.0628745342139224
0.0671789199407254
0.0641304628302659
0.0654858099894712
0.0588346680508217
0.0686212552147753
0.059760383779046
0.0692753310136097
0.067476629246346
0.0618713007256151
0.0668082684135553
0.0640297498403966
0.062348782246886
0.066954773706259
0.0652747115748516
0.0644691656507038
0.0640897704767131
0.0754315794064897
0.0601307750598289
0.0719570710916325
0.071935580996948
0.0640390872986407
0.0706487491117027
0.0665985713329961
0.0762534644390107
0.0585569332431441
0.0635343749593626
0.0866743013785275
0.0623086502497454
0.0874397603556656
0.0587324184337461
0.0787478371406012
0.0617967137717402
0.0819370202402128
0.0553923183579711
0.0882682776638655
0.0612017755854843
0.0821122139588078
0.0586022662269673
0.0784477253010929
0.0710852737397552
0.0750281047382496
0.0737860190768264
0.0768751184493311
0.0689925467624479
0.0793494339297344
0.073969261253598
0.0596390138512129
0.0821864498323867
0.0837897804111056
0.0897011137812325
0.0802140720885979
0.0591519734756605
0.10162698747996
0.0700979605480847
0.0819521256834688
0.0692224814727428
0.0845360705354637
0.0727261825435337
0.0703074644368675
0.0912355483564593
0.0789126769036497
0.0787182108509076
0.0879274703567346
0.065426304783253
0.0927089832256028
0.0802182735008402
0.0882475306130679
0.0765653362555983
0.0929948102662876
0.0611503321382787
0.120338951304163
0.0854366831103094
0.0891977623691495
0.0975824430885648
0.0928329647304481
0.0965737849634994
0.0907999562538216
0.0914227355391167
0.0930094601667077
0.102257186818807
0.0985705267050001
0.0852941284822854
0.100613212869783
0.114120293067045
0.0888600132236737
0.11048582759617
0.0972656062322366
0.0867731676925438
0.107576904553002
0.126154426313052
0.11935896974473
0.113379255146189
0.105719212202223
0.124119055127487
0.108662115892532
0.113390668376976
0.115365157160051
0.113264157818893
0.119412678784785
0.11175452843411
0.129604599660912
0.118658335866059
0.121393649689938
0.119456394276219
0.117043076499167
0.11878211943067
0.133069802975382
0.158157625120783
0.111869892874896
0.158744333561845
0.136855140125773
0.146360005614895
0.1351412218354
0.134921882981855
0.141783669977748
0.140867381092156
0.145925999830782
0.133165735680677
0.151721238987245
0.152985569005669
0.142691815360708
0.1692910146374
0.149613430272006
0.164275833424532
0.101420082287247
0.282714873753477
0.166730354268388
0.19703560064754
0.170569268186643
0.168326375351558
0.248078187336903
0.20000980388395
0.206713656385379
0.215077734765789
0.213253573413756
0.222463208684469
0.226199747204377
0.229195723347952
0.241684891141234
0.2568490209336
0.234270340364956
0.2412346673696
0.289742346375196
0.289767636954644
0.296147956658592
0.281931826180637
0.301274328742456
0.307643267798476
0.305510024118197
0.322521982670461
0.320984717012967
0.308030317567388
0.380402071499657
0.343155967140558
0.367001990707685
0.344700706296984
0.412522489118623
0.343891713692376
0.424368950678821
0.403299759591719
0.413671060353032
0.412777294758111
0.414891038268386
0.437508745250058
0.411050550940843
0.464188367026192
0.460571167540323
0.456498194402031
0.469516314461817
0.462527422186489
0.471996957614104
0.477226880495542
0.504062652193882
0.470546538763518
0.520469895349668
0.450981608396311
0.601523725279045
0.53870540299382
0.512710693814067
0.518277372451919
0.496691288203188
0.529253326521039
0.505479101445973
0.536111468614239
0.539199950802486
0.510434855749874
0.530829288004798
0.51028888481107
0.526422153881471
0.516164164137365
0.535874440409681
0.503180629963008
0.550270801133927
0.509954311230991
0.509846694497322
0.566097450135606
0.524219185348463
0.526429307274088
0.522203260241861
0.517410151047115
0.51705090832309
0.521232859722944
0.512816093981982
0.545770523838003
0.507437601198475
0.523525761518325
0.49262704088188
0.520833789809525
0.509710383043535
0.479778521785104
0.496116930675101
0.468277462728623
0.481702077480919
0.455618526459693
0.435027020940344
0.515581315441351
0.469688217486293
0.468035699602284
0.454672795508129
0.457516851785508
0.458729494313141
0.45074064705808
0.443705294437361
0.443615502189946
0.432870798364023
0.449748873505273
0.437294837543139
0.442262562584571
0.430912978206836
0.435029759680792
0.432468659949776
0.437037447760602
0.443298064717577
0.433522153703429
0.440074750092083
0.43363351795666
0.430162264710504
0.434775820662452
0.43093818534457
0.436503194069639
0.437797067670611
0.438600144169708
0.437227246398719
0.431066336920223
0.43432158642065
0.432844363023862
0.43766860781686
0.430684870368567
0.431290529694119
0.426252593173504
0.430579572311617
0.428050002291088
0.430847088013384
0.426793097147407
0.42741811417973
0.429184092204687
0.437852932454686
0.388911834560803
0.44508506597136
0.442940529400976
0.415695159612174
0.424271530121608
0.411857543963787
0.425845797441038
0.390183940133585
0.433088208568655
0.415905784519949
0.406766989952596
0.406274136064633
0.391490281960072
0.39937655959265
0.408668712176951
0.385519715719427
0.412727907761141
0.358931562713666
0.389688575155955
0.417191746300437
0.386796115878103
0.437459868906015
0.391963874526242
0.38439616381732
0.361482663466339
0.413467457713639
0.368955938006955
0.389332585373747
0.349926854805886
0.391340783052212
0.381876644015538
0.36745653322901
0.375689754560801
0.357960635864729
0.36335407598323
0.384670369387496
0.345182563246529
0.342543732211525
0.380051060404613
0.347206671755167
0.357003071153611
0.380112963962129
0.370429178219031
0.341416417942385
0.34056997733672
0.336562014280745
0.307386717337502
0.374833656943301
0.324128721971107
0.336769418191244
0.328420897442588
0.317921092888909
0.315404673040879
0.314299196151226
0.322637518470744
0.288341264228714
0.342443030267502
0.288955144093311
0.315626107998685
0.30337826351372
0.308173200660363
0.323024367578404
0.309187429231796
0.287756840054594
0.292618034242981
0.314013367181705
0.281616426204162
0.308663994041671
0.280474173352156
0.271040901559486
0.295058524483809
0.271931558193697
0.275212931140161
0.282419874975097
0.255343173499273
0.285776063822166
0.281904148002514
0.29745763887592
0.278992425218731
0.259183459047067
0.265082922950866
0.256069240184178
0.269275708360855
0.247537407771775
0.272339961295975
0.276956565273451
0.232777101223918
0.299221580538027
0.268663675487399
0.265774135243323
0.266920732526317
0.261489552646048
0.262831749608303
0.275714905211306
0.287156488210444
0.285916451621678
0.279458788822716
0.302594380292154
0.280030564957615
0.297289452493427
0.287048534614792
0.301703014082593
0.291998668293845
0.316797699979002
0.309469845918157
0.319779823023033
0.325018520022142
0.331297464993
0.323680061898583
0.374625430386742
0.324315408296484
0.37722538728014
0.345821345164083
0.402018891239589
0.392272234551427
0.384885730348063
0.392783446803184
0.392171942350861
0.402133601680934
0.402442316527392
0.394879527634088
0.457155515462881
0.412486767723235
0.436459455314961
0.423544143741876
0.449969516558687
0.42674571119081
0.46433186079746
0.435407519340536
0.466717180985794
0.488413019534862
0.465650733073664
0.484405634802387
0.455442414940884
0.48073061018769
0.47061825061007
0.469679682487176
0.481196121902664
0.465660018511836
0.492396142350272
0.484191403587627
0.486001960368113
0.486080480345641
0.49609862668285
0.49246568379267
0.497762261454232
0.501366368434854
0.504189853047877
0.504746625542241
0.513825541848467
0.475831716667077
0.569103369398282
0.526277918514302
0.52282545705577
0.533451656234931
0.528864726686125
0.537263097966223
0.525129895327191
0.545741029901978
0.555280472897887
0.547345885219849
0.556058368217628
0.558273104133418
0.572112842884162
0.555333542096889
0.588860362731389
0.563683196990644
0.584032539085154
0.568815546782192
0.583175766269575
0.627347326868431
0.587251631597601
0.604062350480753
0.585994986353145
0.605153621288702
0.595794403563743
0.603073899876019
0.601159805885726
0.610944633072107
0.595762962221796
0.60769515628331
0.604900873616552
0.606931007775296
0.618735167090506
0.600225455253574
0.625374840019326
0.603772672745042
0.597260056712732
0.608198652257109
0.605328220001481
0.596514653600162
0.606618307926447
0.612614886215844
0.594869251362837
0.60772089224813
0.603676242017859
0.598816194827461
0.608407181693415
0.599299733587214
0.602154419309702
0.603996270479456
0.597682591018599
0.607330138227307
0.60221155433681
0.622553820486865
0.605683654155826
0.616312037857237
0.612818435785077
0.625866379221759
0.619602531787498
0.634866508807393
0.633748157440497
0.626280129711738
0.624334979625524
0.638879707404917
0.63331475206249
0.629696005235978
0.633744025066518
0.634292148122207
0.637250114677508
0.630517302996487
0.62713640269572
0.622256075247064
0.611227233505779
0.623647103797171
0.616880579678483
0.612221736102754
0.606892763106245
0.611943868514028
0.587890351504502
0.621203666763396
0.595088964596183
0.600178061928407
0.583499848288894
0.570891420193825
0.578664443745926
0.563462765837654
0.565743309455937
0.56247521620037
0.564779557954824
0.556893045902209
0.558542243268372
0.550789518807311
0.548949718423663
0.549728392147357
0.548397565879403
0.542852531656041
0.54278298508397
0.550321879159678
0.544094510577112
0.543498040922935
0.546240650864054
0.543091617036796
0.535599261683673
0.546668621067245
0.539460521347554
0.549084964880532
0.552705502736948
0.53663321214562
0.547781894492035
0.54062499942158
0.540598432445658
0.541851760438725
0.544962312498394
0.534188514561958
0.538986816662163
0.532236922273172
0.538451271229378
0.535990157788261
0.529565712799581
0.531395896112647
0.533905739100883
0.53179179314542
0.535958029092954
0.534390448085953
0.539893824464227
0.533765640047356
0.536470809095369
0.536476421537971
0.529664364062861
0.536799487556792
0.531476048266147
0.530920036274831
0.536504936617746
0.536334650418174
0.535585628818451
0.538958143287811
0.52857689245648
0.533525199241649
0.53362786932106
0.530671139176452
0.530737229424748
0.528260017822665
0.526713799055202
0.525120064158378
0.522351654485376
0.519458887336141
0.519492033873752
0.509107296091873
0.506322203648964
0.503927226383427
0.498238485086116
0.493824757668708
0.493898863758042
0.49052691302022
0.482872561811094
0.479118167348471
0.482148575174396
0.476679199099715
0.470899050093586
0.469867733821447
0.46538806143945
0.463114665475291
0.46114212205225
0.46276260702354
0.46455108558722
0.458311534458726
0.46104341484416
0.462664436255634
0.462729023080396
0.458205080389809
0.461041885459342
0.464303651049936
0.465058763020992
0.466674902991966
0.462707885418402
0.466469730524398
0.46726676984893
0.47023194561694
0.472755154087683
0.477124489309398
0.473563957002731
0.475720436193693
0.481385772474241
0.479529046624734
0.482959548759934
0.488198506649122
0.487683802261099
0.487714486122442
0.487424882941737
0.487154171062042
0.490804804225098
0.487319602260207
0.491251355512435
0.490047162211682
0.490270679567608
0.487305879183466
0.486621074393166
0.488536835451605
0.486862331451833
0.484772992549973
0.485183772609167
0.484141338492656
0.484557997574944
0.48139080837179
0.480968085263328
0.478099068217354
0.47573162657258
0.477059495463679
0.475979838676856
0.469143300646083
0.466872884180177
0.469322587961888
0.464535445753474
0.462855442117956
0.464860145074386
0.462645212502192
0.461151710983725
0.457306100279329
0.456972853222641
0.45512104384294
0.45353237434868
0.454424706317012
0.450944163095516
0.448751358910661
0.447911101361317
0.447765965115959
0.446213308789289
0.44660256395219
0.442313747349751
0.438068289448358
0.438359665304907
0.437520890514434
0.434330682257407
0.433591516060342
0.430290941382604
0.425875211307549
0.425136101749295
0.424214616172916
0.41894472496959
0.414292192216399
0.409500659706219
0.408773401545318
0.406035931049644
0.406120949151609
0.402344273925325
0.396794286601739
0.396036745092094
0.394419103295946
0.393544259491352
0.391758975816372
0.389279131837185
0.389421820020469
0.387986040140837
0.387651245545854
0.385498109748586
0.386365197261574
0.385105977448259
0.378200669528348
0.375988495427881
0.375657551650919
0.372217633499139
0.36626733546817
0.3609398376081
0.356470562881186
0.35188138084813
0.348838417299353
0.344386500867079
0.340999638418432
0.340271198137299
0.339854457593747
0.340809842518519
0.34189973747409
0.34491066784829
0.350547733137438
0.357841992555295
0.366047582685261
0.37751208226998
0.388716683607079
0.399580976727676
0.414998087997499
0.42981253022205
0.450770745875788
0.463103132501092
0.477678017140703
0.49777419601189
0.511366800511448
0.530096719472432
0.545970318085494
0.559547271947445
0.5769753614099
0.600082400970964
0.618486229645583
0.627824016210939
0.647616826705367
0.660291143346347
0.664326445605899
0.680662084639965
0.700813580757902
0.712823324832379
0.717372797919404
0.732616180659156
0.74097779205674
0.745151143664317
0.754414349951363
0.763114740770566
0.764139722179761
0.767260080483681
0.776435704009725
0.778588545518244
0.779876072884011
0.781890377226731
0.786469002589562
0.789625713391018
0.784825234960234
0.790075257819831
0.790614690323064
0.790526209142838
0.789728382393626
0.7900960980403
0.791313912070823
0.797683265672791
0.80512619795765
0.805834145311378
0.807843740795501
0.811714776253956
0.820763017467192
0.832029703972709
0.841077480071725
0.837994618408369
0.844178413789149
0.861834834033335
0.868348135165445
0.879274773687581
0.890275689193626
0.903283935842882
0.91825927623291
0.921055737397424
0.934833620209686
0.9511553325813
0.965187633110126
0.969630130565781
0.983940707279609
0.981329786500388
0.989061264083372
0.999101377497479
0.993045350017371
1.00359512192568
1.00406348437851
1.00858405037339
1.00494968246581
0.986262950240664
0.985196620356457
0.982153767159
0.983811799032334
0.991069993142295
0.987460246413458
0.994624409278868
0.992368916267271
1.01374952632853
1.03922031585114
1.04081763150215
1.04506449732908
1.05461258061898
1.07280119041859
1.09439789060274
1.14146597638837
1.13602230883034
1.11340161277036
1.13923665376739
1.17413454884834
1.20171526913585
1.20910147431091
1.20779691023179
1.22183234797272
1.24948350655939
1.27265835151209
1.28983244497872
1.31689049572531
1.34775974269426
1.37823841253874
1.39283011842851
1.41906594442511
1.43821842213908
1.46002219103779
1.46687660081988
1.48584625150033
1.53967137153063
1.53304290596441
1.58157059137823
1.57875920627184
1.53423362146889
1.59543365327578
1.63471501345913
1.63850636663525
1.65567985885036
1.67654418626262
1.6271524889002
1.57030203509698
1.58293730780272
1.63092884897766
1.67002916882027
1.69356344800008
1.65849793062252
1.60665171704543
1.61804604724574
1.6639393766018
1.66342243492968
1.64246406311443
1.60796760172669
1.62486507730493
1.69957844014563
1.65577952679566
1.65759656406181
1.70793608916775
1.70559726713087
1.71997135093729
1.74521151539499
1.78806608703087
1.80372738350315
1.77994962081071
1.72886825431681
1.7894585922734
1.88123419071145
1.8302906973334
1.75578954181511
1.8634733541323
1.86539497426354
1.83908632914612
1.83134664699147
1.83212399958724
1.9786303258621
2.0734234716719
2.06346682333135
1.93962690376665
1.80949156601467
1.92164947539253
1.98046872002856
1.92285546179983
1.9205873468481
1.9205684906868
2.10315673023409
1.95242466464143
1.90104207222416
2.03751588738401
1.94713918036202
1.87504206892831
2.02669900188588
2.02282442278218
1.95280407808165
1.88057529754307
1.87210556219641
1.92233031864799
1.88663622213171
2.08270420461039
1.92354672936043
1.84341405719132
1.82463690719001
1.69007840162118
1.73837546256746
1.72736213711193
1.63995560377243
1.53936979760018
1.47893706910934
1.43648521513186
1.41009890863809
1.40050777748168
1.38390065567825
1.35679214168778
1.3203932182438
1.30585148718559
1.28571035816109
1.29136798889178
1.26355487915155
1.25225823162505
1.26996034759428
1.26347741417063
1.24198919382799
1.22097572109962
1.21698675249627
1.2086582726737
1.19791626625886
1.18839969604353
1.16797135127568
1.14454182713288
1.11415879672434
1.06891428981883
1.04108475963411
1.02596022545426
1.00336443717924
0.973348599465063
0.935650109473789
0.892421649174765
0.867423497845031
0.835937513528733
0.791453132105036
0.757693940307824
0.722236968606167
0.68960274738061
0.66965637836467
0.647870174644419
0.62552936211743
0.580919620876218
0.559185732152742
0.553631486944204
0.527101032281199
0.506320991840767
0.488548459795372
0.480307324535385
0.47143176374245
0.462517104678716
0.451149708252771
0.437959228413998
0.433365705412236
0.433378199478169
0.431409942094073
0.426806550653857
0.426505562240721
0.422710619442376
0.419441446025887
0.423344204380995
0.424829867953557
0.42819622630454
0.428641148109982
0.426468191159581
0.431293158558619
0.433358890692737
0.432659817950813
0.43358355093984
0.431950714890894
0.427980665801105
0.420155363678131
0.419999693201375
0.415111066565184
0.411732125812765
0.41461637502613
0.406285781718719
0.402259845661833
0.398932865917278
0.39679199634432
0.391444232341486
0.392499959534038
0.400504675515913
0.400663142593437
0.399435137835761
0.403412240305996
0.40968434961205
0.406576551116421
0.411850358870464
0.416375408567551
0.415860567641584
0.419581537737869
0.422651247919754
0.425036670821204
0.429494653536895
0.426052336793829
0.427012947162104
0.438276562612857
0.438180195318972
0.438611057010866
0.439398061395403
0.437875112434314
0.443584215190188
0.434416038497675
0.443819966787567
0.444396470494463
0.439779318930797
0.451612590417902
0.452127795362921
0.457568831185341
0.455954718379862
0.455262621889788
0.464231751956961
0.468543877198535
0.483035885573349
0.496784758651115
0.504924543617442
0.519305648035324
0.535200692631958
0.55149508344439
0.557938097372533
0.578598688359817
0.577380420054565
0.575758143793512
0.596829407437264
0.603806788353852
0.594411041658561
0.585918000817314
0.586654152061492
0.577102310495188
0.573571638177092
0.562429624919842
0.542516646523633
0.540649984380522
0.53127765110376
0.525300510572269
0.527437327439242
0.528001388826747
0.538711639458347
0.529029021923172
0.529830440902944
0.550521273379273
0.536454330496842
0.53026058944383
0.54009425697984
0.526849035897808
0.526554804261915
0.527196605695283
0.513967299133001
0.506782406285615
0.511080314715131
0.502499914296285
0.49469740592588
0.492508602450371
0.481268407873679
0.470945885907963
0.486860842751335
0.48886229936387
0.458637305624683
0.460902653535267
0.4717609976775
0.472561722062906
0.462003586844741
0.46110736159179
0.454292133606362
0.451005539212949
0.457225559107768
0.452363125614879
0.445420801923783
0.441342586967102
0.443511802310269
0.445172834006525
0.440784095314617
0.443758940860759
0.443413636533567
0.447514222691392
0.439459102810361
0.436226107725251
0.43587019671331
0.418690585835605
0.427488827584407
0.42488845106213
0.412995710413732
0.416712793835407
0.418874330388997
0.414015570104209
0.410021458586279
0.416003425208263
0.414106904966405
0.42293371522737
0.407414768395353
0.40540949918715
0.418976357106294
0.406628100243953
0.409847111581409
0.406936980858114
0.398035533683219
0.406980496156263
0.424883973607416
0.397981545463262
0.409736871483031
0.406504015764647
0.419739895124852
0.42610986017357
0.414923937651572
0.413837445107868
0.429240189226064
0.433756229290271
0.4381441554777
0.443250155990341
0.443873997543654
0.446504728082208
0.432679337307293
0.435843598772021
0.441361293532527
0.459165261046612
0.46260936858965
0.461707584013047
0.451655762120282
0.458764033331253
0.484758375865799
0.506017702044302
0.488460190414622
0.491018321548155
0.493183058567794
0.508673860188293
0.535372541414295
0.543661971114548
0.552188540393211
0.57053432938079
0.588012826147479
0.604368997834427
0.59420098066374
0.617740436025087
0.650876299362234
0.655637360589365
0.688493382426103
0.696886122116572
0.703731926680831
0.730221511184492
0.716325070809459
0.712082566469865
0.732685135929118
0.760718896760037
0.732544000719627
0.735935320333139
0.68395756619563
0.697158382869291
0.706830102540845
0.707392962419775
0.714471204486897
0.720021730212315
0.697584543386918
0.738730011015338
0.72273715286416
0.741650158840781
0.698991279162894
0.69222494828012
0.692811581133487
0.708569208642314
0.669278786499028
0.675908105097575
0.712867233124917
0.682975242854247
0.684482505296093
0.630503867534399
0.664461785548135
0.639846149658074
0.603588596044479
0.694572395705714
0.654082972162616
0.594956689894598
0.672373302715056
0.700087510800218
0.625300972158311
0.638245342232925
0.663050212210922
0.56296365972342
0.610689740239667
0.668467794560423
0.619783919124557
0.618549190643394
0.656722911012545
0.648778350348451
0.647273948507928
0.658892230276948
0.653975289515463
0.642223671545233
0.598392828021547
0.642369654213503
0.644866016646858
0.637449523112311
0.634131251382857
0.636036952778455
0.612206689581487
0.627649663916625
0.65899489579983
0.705226413281231
0.696324533246882
0.66786985810667
0.62728559984069
0.656385897547894
0.688381814085098
0.669018623476615
0.680445764971879
0.713574132628228
0.737473572625741
0.772289825358494
0.677647294022799
0.768192387611869
0.736105836280768
0.731121214959736
0.723951198239387
0.773101745497863
0.733037827786858
0.78120558691523
0.816583157690943
0.884742348015766
0.714812316088807
0.750122330504198
0.816421989221547
0.899926430576673
0.82100265420719
0.918469040863678
0.874773042267591
0.867209767803425
0.867800221411269
0.821724758579452
0.931553941013907
1.17492508453614
0.911822138535115
0.939388109685028
0.80904974972997
0.907584811785539
0.886170184472289
0.940907660288933
0.821382550786809
0.927670830759011
0.955725360422148
1.05062813836488
1.05555700015943
0.892537993449219
0.81566544153526
0.853758679250063
0.747383638997986
0.921282377061923
0.695235649042707
0.859846522349389
0.891934378577343
0.900758887391147
0.904082905199311
0.914104641982756
0.940145963114926
1.32250688115197
0.788724718493802
0.738834437818987
0.876645996051914
0.931133126684913
0.69729072496325
0.897109262034821
0.863082993090036
0.812173977850289
1.0660858942865
0.820915639397005
0.768972596200799
1.39583925254751
0.471183697634608
0.879509594152784
0.677656042346013
0.770657722387964
1.2474033010018
5
0.923527268513755
0.621600244927188
0.733375995297079
0.745880307760946
0.605677817539409
0.666199772681336
1.17957708000152
2.61248955221137
0.623553102133453
1.39061956960394
5
5
1.13136669311363
0.689455229616206
