3596
4000.36533379555
650.420452594757
1
2
2
0.0725870121595687
0.0621030827717208
0.0744020670102021
0.0572033234410126
0.0766060357444569
0.0546197137730246
0.0750550969234223
0.0576771664181126
0.0704165270428568
0.056456461803266
0.0735304904051551
0.0583000882062248
0.0684823757431369
0.0557259809233258
0.0721540772384625
0.0570187516311626
0.0683848592268483
0.0504024489535475
0.0765628174027531
0.0628525995774348
0.0713383602484638
0.0542909385399034
0.0701701805570156
0.0536591893128648
0.0772145530834851
0.0576295563494374
0.0681921497698538
0.049353724521373
0.0753408714029955
0.0615871825162882
0.0813492774639023
0.0579175582745286
0.0725171135278196
0.0536915041348733
0.0638028503873109
0.066119412188264
0.0707982805893438
0.0559557961791377
0.0717887103240817
0.0570124328024582
0.0821060930985339
0.052257741691975
0.070857606326166
0.0533283608603089
0.0735191429533486
0.0559727732937188
0.0741791689467142
0.0596956630364443
0.068299944147069
0.0566802430370474
0.081663779214501
0.0367076414032876
0.0773807638678213
0.0633942427288159
0.0695667973296687
0.0559276036722077
0.0677006365062906
0.054551125384875
0.0809036997951817
0.0462634435045396
0.0748603073466465
0.0639361079258266
0.0625925823355456
0.0607009210322436
0.0656610911593149
0.0551586498245578
0.0634591770722267
0.0551373442218024
0.0627305882198666
0.0524564148417809
0.0585037935746706
0.0604950256791211
0.0725886837494224
0.0511233054016953
0.0791711034514808
0.0568638450788565
0.0682163116249183
0.042019724405051
0.049170197814909
0.0651185404720322
0.0732267652795177
0.046984748037928
0.0727008771298574
0.0506058997960281
0.0638116908539721
0.0600199093805574
0.0552608986459196
0.0378090863042743
0.0695092139045143
0.0531191262449641
0.06501951131799
0.0529498817275429
0.070512980389947
0.053290710132984
0.0609300875617745
0.0425603128973995
0.062894685747948
0.0551027028375714
0.0554953134698061
0.0640093762583041
0.0595207366480253
0.0479102315509565
0.0814899231713738
0.0194282136475656
0.0987571701139054
0.0491443175771194
0.0494680646641921
0.0788694586103764
0.0688323836383539
0.0555913537893061
0.0705156604641406
0.0504656719049953
0.0589733661167451
0.061036884797046
0.0380323463233426
0.0505275880213345
0.0870300580948462
0.0490750342833664
0.0615103761104075
0.0466088246555833
0.0431824561378878
0.0410363683638068
0.0928407252992355
0.0428135505395396
0.06778827973862
0.0444173632367521
0.0466779225823789
0.0543924668023465
0.0858325223793013
0.0516083722079553
0.0646042007623943
0.0468822427494029
0.0519217057951837
0.0337728027514338
0.0848903407473301
0.0471156021682612
0.0691470290803215
0.0207095007789604
0.0601792295268114
0.0699939202885038
0.0796731266479708
0.0418095485983921
0.0394061866625889
0.0306572410561404
0.0823288921088664
0.0473381881116617
0.0645143879089798
0.049849772116044
0.0658032384867729
0.0469267978375846
0.0604708501322948
0.0347056254981961
0.0672343825060442
0.0567539931646054
0.0107956447612593
0.0625841258721498
0.120755394627748
0.0227828814416585
0.108527061174811
0.0417247453661359
0.0663971731025651
0.040199069212273
0.0735790268848087
0.0389523550381243
0.0704346412571098
0.0376824542572251
0.065447928963762
0.0606364412406609
0.0514747297678627
0.0445932850963854
0.0760716773415599
0.0352689544879844
0.0258181805257879
0.0867727925625953
0.067400449165786
0.0196885081307172
0.0731941097410412
0.0619840016666332
0.0503231445847148
0.0394322958101451
0.0812772737760093
0.0482322665484267
0.0614676948448178
0.0408257653654932
0.0565643115941788
0.0506357136696333
0.0619907156455963
0.0416900245454135
0.0625038685776676
0.0188141569613666
0.0505309102784768
0.0796958020629168
0.0809497183465614
0.0503074517784015
0.0652409756666595
0.00512891529969351
0.0854437540028127
0.0735194517442022
0.0596276458383215
0.0415196389125988
0.0560371237413263
0.038474687124405
0.0605496004642713
0.0370332852984555
0.04916198349892
0.00633571152223759
0.0944838523739887
0.057657991127989
0.062316453670773
0.0483252157669323
0.0520851799217619
0.0228073987615233
0.10462741001624
0.0603977349431234
0.0659782646542855
0.040584225060199
0.0491724632535813
0.0404630748097079
0.0770050490429703
0.045987811260384
0.0664930251900326
0.0460583050901048
0.0653976996319564
0.0477706382427665
0.0615585371923031
0.0448364904877165
0.0582774312946473
0.0491377752604454
0.0607436222713737
0.040676911854894
0.0642209370041797
0.0475033263022192
0.0562637610350458
0.0449487593638441
0.0512295986669791
0.0459584165738019
0.0842857555446723
0.0483646991943208
0.067288565876116
0.0454945026515419
0.0646410947041945
0.0424130959658871
0.0668763533461449
0.0464521370651688
0.0597646232498168
0.0288924552105021
0.0899855393887447
0.0526827106220264
0.0732148415076528
0.0321211170936564
0.0861712297089673
0.0599379152164333
0.0699793664770924
0.0420628005064794
0.0611810735289602
0.0372631517261712
0.0496784716915006
0.0709178326618669
0.0658541142230173
0.0386428765531065
0.0674551082138819
0.0555465949431962
0.0612266424002446
0.0369694656903411
0.0329691378075017
0.0998237541004691
0.0556551337136916
0.0155048162302824
0.10494502165391
0.0584372753465278
0.0636761213831077
0.0559326420981116
0.014226152480348
0.130410387361275
0.114315561849992
0.0467533373612158
0.0588199302679785
0.0739233307260359
0.06302614158092
0.0555997405651169
0.0637873182704533
0.0449118056457651
0.073946280693707
0.0381708528397728
0.104086104050787
0.0357762387049977
0.0756238592126322
0.0748038901806325
0.0709770283410962
0.0573893333780589
0.0636436797837635
0.041290924264946
0.071830230888769
0.0639049302369988
0.0763152549107736
0.0591748169202325
0.053400080884583
0.0783697967383016
0.0772431762707073
0.0498639774140639
0.0675177599803558
0.0635678113301415
0.0565525890210408
0.0573800819307709
0.0659417183797886
0.0692604774639363
0.071119029042853
0.0389098684330347
0.117139676906418
0.0533416742202321
0.0726661201614095
0.0781419394621936
0.0813442422614468
0.0613459323960445
0.0720239309105564
0.057676521457731
0.0757936210830928
0.0582473432120859
0.057709618092032
0.0791714631223155
0.0818600761367536
0.0660743935091298
0.0814015444150042
0.0600269397630013
0.0811884651152468
0.0612495227453491
0.0794211198896981
0.064792531850614
0.0830202671095556
0.0525314953021127
0.0837382651444958
0.0957013777505478
0.0570397051515273
0.0841606044763305
0.118316749567771
0.065243772219651
0.0896495265249572
0.0731998080783719
0.0862995090132174
0.0664832525018881
0.0890336233284903
0.0721780114963764
0.0872581562296286
0.0784615359425308
0.0947564561952805
0.0723937735642406
0.0715335393374844
0.0775775925735695
0.141571343727447
0.0964307983551226
0.102309161852911
0.0535112093164358
0.115299109512745
0.0995774269386009
0.112681024451283
0.110736413993182
0.0967896174154998
0.0998975220332786
0.0986213579852641
0.100802205281148
0.0975006876481819
0.105402556063064
0.10544841182413
0.101563447119839
0.111866042909362
0.104171256799903
0.105458411919272
0.0977821484731811
0.149471847845517
0.119350166263311
0.118085890855687
0.119308748657625
0.11316450571159
0.130241061017748
0.133440406865067
0.145262769679115
0.161600413567467
0.114216962849261
0.169657882319628
0.123117761849087
0.15563440567675
0.123968525401824
0.151528697907985
0.135160877633574
0.151140390279081
0.135662940289215
0.155452718381413
0.135677819705785
0.171650411875848
0.150989040669289
0.159916719994047
0.145014963611898
0.191747889356629
0.15927269643727
0.180183010433704
0.147061573140907
0.185136918873706
0.175880095812921
0.220598885596175
0.168750349547818
0.196799731349503
0.17590442142278
0.194155156910733
0.188529375608053
0.194990750798753
0.195542972604077
0.205712295357483
0.211907279652434
0.224461323588049
0.203252785504018
0.236404835876269
0.196548312462745
0.23214981322164
0.213076197082892
0.238982074948069
0.232775720995863
0.237412791585688
0.210054953688776
0.266428684624767
0.231013115163313
0.25174750746461
0.25949543102236
0.247862578885335
0.238750146560263
0.268877003639177
0.264266832734326
0.264641302235303
0.256978539815396
0.282996816165627
0.252658739128685
0.287570053241934
0.268360001136929
0.277200917080755
0.276396378205133
0.306337437968263
0.272477880264704
0.31889018728744
0.284254595953714
0.317247526914338
0.275666862979594
0.329947803876849
0.312274497371369
0.331772181676649
0.3165791358687
0.325442224665025
0.314475540596632
0.337379729968308
0.31804115027325
0.355485069970069
0.323849401369698
0.367519163658161
0.340597662255673
0.374305487053956
0.358950847291793
0.391106267417544
0.371605231620396
0.384505023069106
0.356155810984343
0.38433622403805
0.366036491218018
0.392414271978547
0.386761896420694
0.409133187288664
0.399260133322762
0.437293791128211
0.432252272920623
0.424903296006303
0.397105791356177
0.436488015688469
0.421779583436218
0.444955310994998
0.433552771756062
0.459465827695934
0.435769508778154
0.465307659442481
0.433005712007817
0.465309404898334
0.445162118865737
0.478941792655392
0.484060933372985
0.507971520350362
0.446174204466095
0.516929181284892
0.471362137014366
0.492968978486872
0.502130246708341
0.514784018314237
0.513373121684209
0.55830331319441
0.497684663282109
0.538541581784595
0.516389704836819
0.538586217818421
0.529053128558723
0.581342911191149
0.53268742899152
0.561829460165033
0.566448687333364
0.621779569524445
0.559107175622398
0.588956549439785
0.540397889170618
0.629846736919084
0.578655966954669
0.597782236325248
0.608673534456994
0.67217094916277
0.602851784904148
0.627765164160381
0.578379797060792
0.645580382647834
0.636504847426563
0.66338731718576
0.64922000242834
0.682750472339125
0.64330860029485
0.704712393486354
0.64044663799721
0.677404706828207
0.637618336292515
0.707620736670155
0.638616827156751
0.695268030309135
0.645168357498038
0.73177573776963
0.687171689763205
0.738158851910483
0.692073507042698
0.741893075642955
0.698493787633352
0.746579167820498
0.713490903940022
0.735506496090238
0.768089248814086
0.787584169389281
0.74984963409522
0.806424200196518
0.759087933550212
0.800270659295615
0.756902268095366
0.799610298340237
0.76287594740314
0.874615451585103
0.783306392456912
0.857540236559679
0.799048049272522
0.833211829604787
0.764978169040479
0.813281374123347
0.791286836399564
0.90922035621387
0.774081375877313
0.90140241134262
0.84236420400507
0.913338839273714
0.880736356191443
0.928366124513048
0.834723643612902
0.910749983529745
0.865664102909614
0.944875259501373
0.809307200045954
1.01997273855903
0.934625470694315
0.931811744400379
0.882008935377757
0.91794854162521
0.90010152957815
0.924127048554702
0.861215340513423
0.94614063197552
0.880678602479893
1.0121715221736
0.954165293161344
1.03951084371093
1.03502898370249
1.05666270760032
0.998412876227238
1.06087598553271
0.971222213438269
1.08446846968602
0.978790924638202
1.04982160481309
1.06152762206209
1.10241420189278
0.969929574759409
1.07705321000629
0.966628845877255
1.10073290575826
1.02001595871013
1.10934526553664
1.0106980570267
1.21243452799613
1.09357096304801
1.1296484433043
1.07586483924189
1.14450456404501
1.05323962253477
1.13825131783433
1.09222132576408
1.12468554336489
1.02153905787435
1.11740648517286
1.00878998948284
1.14524360959834
1.06754068701252
1.1783266678556
1.12833119515642
1.18634508989313
1.10164978594092
1.14953293050582
1.15595900868224
1.22695171390308
1.16063907834243
1.18771786791997
1.18534848849334
1.30990199095771
1.30797555787928
1.244297964797
1.15818471850148
1.27788729496111
1.26047122444355
1.39135507068692
1.1528411720529
1.23131578483211
1.29811691052072
1.34901149014313
1.18524252509743
1.29413808648302
1.16714462466395
1.24877659065157
1.19516066116971
1.24596217386525
1.19821574695596
1.30212547790326
1.26248576657519
1.37521843806929
1.23887042291674
1.42830180561966
1.19285623878377
1.30182128388392
1.27481960666439
1.32251352244898
1.25879354488458
1.5489334408253
1.25842133840981
1.51345685420589
1.28283587099615
1.4115682010142
1.18243060418438
1.39548934154237
1.27185978195302
1.50322386851052
1.2477842437961
1.38724540608821
1.25033318726877
1.58124005644403
1.42267733309731
1.34430797833895
1.33261475044676
1.35635250149984
1.33897385790135
1.35030536478033
1.31432552929725
1.41794374602112
1.3131953337197
1.34336196579236
1.34624259646954
1.50884196388984
1.44716116670253
1.68224509947392
1.43308847793303
1.45009094712834
1.30237816762008
1.36824186388841
1.35838287700166
1.41219459137438
1.33993932095292
1.54276757073829
1.45445226387095
1.52969170641801
1.32750244788789
1.6768277307098
1.41635382916712
1.54702590052478
1.40385322305673
1.60112324601123
1.44155121003202
1.47362351944238
1.4094031476687
1.42682694530005
1.37570410537854
1.69515948601416
1.37919839563415
1.54147579436648
1.44348629954402
1.60630160385096
1.42150283425551
1.60752513650942
1.55476972706263
1.66999936201629
1.54104545600667
1.62071736393671
1.40917245841344
1.54210507395616
1.44790412106843
1.53372759552063
1.34759889545675
1.62322071976432
1.51866804321262
1.5283903929133
1.47791139946283
1.51848546723339
1.43654983722065
1.50682567610497
1.44275880619537
1.58535948154465
1.46975947717544
1.55633964817469
1.4405569272738
1.50135203281668
1.37817569415317
1.54498016504853
1.51538116669058
1.62317418506958
1.41540117920161
1.58283150641909
1.40068660039099
1.58961699474065
1.54403701235379
1.43073654021121
1.41560374067426
1.68407522797012
1.3897890150918
1.63590139287107
1.54351920155981
1.56845058217448
1.54773641559709
1.5222614411517
1.37687546275293
1.61930392403364
1.50554836435842
1.59946736784133
1.54143544332329
1.45258542916114
1.34391667329892
1.64284039149047
1.65364539008809
1.78407533927798
1.66457911723097
1.81863510660092
1.42145179128593
1.65723713101289
1.73921034730253
1.57141142246942
1.55979488610383
1.57378087121976
1.51721996614278
1.54231351350128
1.58066093422735
1.48605208391517
1.38529990073079
1.44534150668357
1.45702897690625
1.64508142236113
1.64904789495788
1.56415380317564
1.60268668426889
1.51752611779129
1.5177191650956
1.5150136421653
1.47162495344126
1.59063992690836
1.495809458687
1.56689849532044
1.77722351485312
1.54299291273324
1.43463560395866
1.49991292489282
1.47000299861993
1.60632465715141
1.46580684164671
1.52463018462221
1.42651332367294
1.67317959303317
1.48875485950591
1.38103184046733
1.41279905905222
1.70233395312369
1.43501273746275
1.61142300778375
1.53653987667688
1.59440484792821
1.50952642324151
1.49334489502248
1.65407270172722
1.91144162458576
1.49880020974374
1.49560596456015
1.56723583763169
1.35568633685043
1.35588382643808
1.55018011986722
1.52424331405752
1.53092750908543
1.56408729183534
1.47593224123228
1.38713030149806
1.49916487492081
1.43131277103534
1.4839678785936
1.55972597008187
1.54253460777806
1.3823013581307
1.48685761795883
1.40486174320617
1.47490434812643
1.36523536062577
1.51657186387971
1.44943468821475
1.4827665021949
1.39381414937655
1.58554577079214
1.54142052359339
1.54279598809569
1.44493267920569
1.39809482432801
1.36762831652944
1.42391701796867
1.34992746025589
1.43230130685569
1.46796358956725
1.48459344077398
1.52927664694207
1.6033273139388
1.45065023933478
1.51841173768484
1.28550184592929
1.45572269128324
1.40751341831703
1.38251316057987
1.41477245863234
1.38982990576982
1.4822315621109
1.43805062705851
1.4180435024111
1.43469280441089
1.37662057808058
1.39795622436123
1.35253984930908
1.4406908584176
1.30921588723741
1.37126554479352
1.322286999935
1.36371761936377
1.3904586445868
1.35961720109049
1.25939270332762
1.35139469888125
1.34140220917419
1.32205406538902
1.26455574660525
1.34806955991621
1.33380092437658
1.36948519342122
1.23718711647243
1.35828483295534
1.30724263921971
1.29736673437193
1.36847697890634
1.27829740528196
1.29631142996536
1.29493898475271
1.25516168497528
1.26803557783955
1.19751731620634
1.24959018438427
1.211080001904
1.31711100689473
1.21461808755287
1.20932525338171
1.25797163711797
1.29074500260502
1.18669528551524
1.23573246738336
1.1578419860111
1.22381559080011
1.20532802836863
1.21917720231938
1.1549076138638
1.18198280457286
1.19338607923184
1.15640992908269
1.09802226018262
1.149672480604
1.18895183776388
1.17577271507791
1.13636507392858
1.14533173268329
1.14462899778665
1.11287377381132
1.1166904956194
1.18631575706815
1.08142837003014
1.07700282638603
1.11181347422634
1.0888468519933
1.06284683274894
1.10016310014924
1.07323580136453
1.1069264371001
1.08213283900641
1.13268098805712
1.09532545474574
1.0851433037039
1.08461742866554
1.08983687326379
1.05376915803162
1.07886759573188
1.03552292920259
1.0612818465464
1.02575538180173
1.01758755432706
1.01818261526119
1.08319530129099
1.02294145166661
1.00292941293968
0.972863771140782
0.995866080893316
0.983157211269533
0.984238823362889
0.995823694734259
0.982600503555752
0.964252236072908
0.984428803284995
0.97149160036616
0.975738751274052
0.945712769005546
0.960753168144392
0.939478213137165
0.945721686429095
0.930369050564496
0.931816900050691
0.919861881861907
0.913298241135965
0.911691805155134
0.928183504808746
0.88531471930238
0.900151797871983
0.901234428078081
0.922914847813968
0.898201010498556
0.890620888862202
0.865237152385618
0.891928480439399
0.885331440922497
0.899565664531036
0.884731205656511
0.883587705516687
0.875875346813512
0.863640527208798
0.853491631592817
0.828391773625914
0.825282166426365
0.863294596986372
0.838221819907643
0.813680235951268
0.821785447383005
0.855803176918402
0.813953872235831
0.837266726561807
0.819440454429274
0.835404169461759
0.812344429400969
0.783753818404227
0.77773879831424
0.810289431672888
0.804949124288132
0.79121446443716
0.7848378181282
0.782405590648263
0.781161512141978
0.767102574254117
0.757494092508602
0.763254665629161
0.762707467690212
0.776504872953641
0.759070466953553
0.763753814052219
0.765310731275105
0.764468959759452
0.753160320900575
0.759813877181475
0.745566612089826
0.739518336445711
0.725719653132065
0.735557281914121
0.720836615255201
0.720380553520356
0.701129905403535
0.706644989395668
0.700110977343602
0.709502287830876
0.70708314313383
0.699615557222813
0.69243868718319
0.69567728295606
0.671354685968298
0.691347962378815
0.681797922342543
0.689803313823237
0.671934542716524
0.669585909790642
0.681785703297388
0.679623831153684
0.675659982684717
0.679682627963232
0.66339173822082
0.660083966645368
0.642268201377728
0.648081643196397
0.637508880389538
0.644160380069077
0.638901984434972
0.636386627839753
0.630730958646042
0.638577855168355
0.615654753289918
0.629373073819443
0.616287085519601
0.615350956224319
0.610343264526238
0.613784901344242
0.595108866813504
0.604623081574987
0.604294161079579
0.601292611212458
0.596442908457117
0.604440679702627
0.586787703449148
0.60327432650119
0.592005857129374
0.582329427573094
0.571710183138415
0.579999197375559
0.576297113669025
0.584232241304203
0.572171758218207
0.56194674947712
0.561007014044614
0.561843468173155
0.545008114528249
0.564449664743945
0.555951501370249
0.549295702197938
0.55380798613066
0.559400697954085
0.540773676448704
0.540518597944554
0.543365658143481
0.547369347817115
0.538011768146558
0.539193969269298
0.517822731263513
0.528591343860216
0.526054861220648
0.530903660994535
0.528532213508213
0.530138610478694
0.52229421443398
0.530176918568819
0.525827408136191
0.519618726886396
0.515106370799559
0.519289821999893
0.509881413427779
0.515567846450221
0.509613819527471
0.528074807974927
0.513194697156882
0.516846864698278
0.518164585319386
0.52699515745899
0.514783204385251
0.514202879602791
0.513958503374193
0.523520193375567
0.520742845949581
0.528081560882913
0.525122435462018
0.516603244458452
0.517810747868461
0.521965168338096
0.516759909238786
0.531121601646988
0.532049373475148
0.537235656407752
0.52867122354436
0.538695231095172
0.546817483140368
0.547438325612005
0.530406576174445
0.541802311515046
0.545915600549949
0.554653508103784
0.556409781070843
0.559994772286522
0.545709445494749
0.55965045778193
0.562635707617912
0.565081753810163
0.549390154607665
0.565198288617022
0.574984035561495
0.574625122247621
0.572446959020869
0.579561788983039
0.573252528006505
0.578289442859662
0.578851383225573
0.583755122306901
0.581666450459794
0.595114533554989
0.596195566099251
0.609412869089362
0.615329189224829
0.602499538078347
0.596390817776844
0.622397897853721
0.609844887339201
0.620532839650695
0.619293170360824
0.629797320701062
0.631333522506977
0.630258599818792
0.645470562304494
0.646775586377375
0.645128501959854
0.659112472059008
0.660322361020405
0.666946999556815
0.656008149325133
0.668314980797499
0.672097888218961
0.679440362164905
0.684720604497602
0.699928489584767
0.690688314287495
0.677402490860958
0.686763674383054
0.692237317997557
0.675973111621142
0.682285825345881
0.697952107370762
0.700273189143815
0.680213125656254
0.685590689748507
0.688189745187095
0.681684705004494
0.672415547562971
0.681215212770136
0.680014613846624
0.682629094188618
0.678144080052038
0.694976603153502
0.679600296422748
0.675239218146488
0.68269931441487
0.677490080353257
0.677248987105508
0.680727927128019
0.675277743713842
0.685200329292255
0.673933500746034
0.67703473763661
0.666768079390331
0.668048337425753
0.676640849920283
0.676294308215872
0.671189688454941
0.672520507742724
0.668045611595849
0.676021503347492
0.673819790418043
0.680150521211087
0.679965973649603
0.677066648511654
0.673319221485415
0.671510111757857
0.660273757609662
0.670321572531601
0.667884760750611
0.662008996631487
0.665801778794744
0.680228812446531
0.665541875902759
0.666157742485662
0.66938033520492
0.678286798086454
0.676498152683164
0.67638546300976
0.674445281227347
0.67309096250343
0.662878497947728
0.664180771837655
0.664207392282062
0.664822240306217
0.672652407009851
0.657438280203343
0.655690872468763
0.659504124079164
0.640162123794027
0.652102299407336
0.642403713713263
0.64418013341725
0.652899028288053
0.653758352308336
0.64732617810634
0.632451277394342
0.61611305833234
0.618547535478096
0.610505563776614
0.605281005680226
0.598512642098553
0.60107265133887
0.606133263681007
0.595573256824254
0.591485333348022
0.591242948249132
0.578890127462868
0.586808178171208
0.577201158276919
0.566465244840203
0.552089594788802
0.563505310732093
0.565023799368404
0.558113994823684
0.5515206567288
0.549498139467802
0.539104947003102
0.542488228443284
0.540443097991003
0.535783005417155
0.53309876509331
0.528679674298941
0.520251623042521
0.521085345948078
0.516452085761437
0.518809704446695
0.51679312757148
0.501224206428972
0.492610575312557
0.503120163684096
0.494774368189955
0.490244116118687
0.494048302775244
0.49465392744584
0.488831221014517
0.486198315773234
0.477421517092871
0.483808022411995
0.48019346545359
0.476331586179894
0.478461927573984
0.4717893929176
0.465990109656149
0.464344726524711
0.464773344739569
0.470498180730532
0.471857024873298
0.470982996374189
0.461674925151093
0.459595025251183
0.459561897798666
0.456656365594026
0.445038828325543
0.445242259983309
0.445390658141617
0.442319735176641
0.439852296082195
0.449655125017596
0.443779239304563
0.437429989824036
0.438069906441032
0.44114073984784
0.432603270702692
0.435552280123883
0.433428524925212
0.42878642995252
0.435255137938309
0.429483318568721
0.42103671260133
0.425879488773047
0.422076942441236
0.421879751563459
0.412044960628176
0.424671639111349
0.425873077918622
0.412483205098453
0.415339042838894
0.410682101166031
0.414190008048106
0.420242156257256
0.41325581433852
0.40825925792094
0.405594216580714
0.410378885043627
0.406637428888114
0.410533377535398
0.403704960282454
0.405326023490965
0.407661161544826
0.405489887024394
0.404055652958269
0.401428012398954
0.401212091455517
0.404674654837152
0.392960757195177
0.39432168876049
0.384253586048787
0.388937273368898
0.390717244072834
0.398516464260108
0.391871422062883
0.389664400498227
0.390627457232388
0.393259519815583
0.387202517205548
0.388671680305802
0.379384183857838
0.380756210320009
0.387704580338316
0.386014580420424
0.379701594459108
0.383509118997887
0.378298305588751
0.379461149287157
0.379254119792601
0.380024341438876
0.374311719614068
0.377450744790936
0.37868719242494
0.376218992239496
0.37634937511441
0.372264724313921
0.369802069086014
0.378539080327961
0.371057678600291
0.366094576980554
0.368561261334338
0.372457694840038
0.368330570815349
0.367892190214269
0.375179930578529
0.37679574012722
0.366136616551485
0.364956133714987
0.37033238030636
0.370659607572791
0.367075964603442
0.363788235962739
0.360741218258723
0.36409955720765
0.363655111835492
0.365169337133711
0.361994103702417
0.363697260816653
0.364861761547223
0.360982563002715
0.354609515315307
0.35757292311403
0.358192321689164
0.362170864694341
0.358335535338522
0.363267931732499
0.356797444050451
0.355014124865258
0.356687247413808
0.360806024933542
0.354459064712439
0.346998994295964
0.352296797806803
0.354950274755054
0.353521875719512
0.353823120048536
0.356188285208266
0.346955156131512
0.346748153602546
0.351006596569496
0.34826341293204
0.349252231563592
0.350176024620118
0.351904782085671
0.346609968184896
0.341828532785319
0.340133106647927
0.341869364066705
0.345451349903974
0.344881890986727
0.344626995445314
0.337463825455673
0.339242267018158
0.339055428600673
0.337373071303449
0.335433214332031
0.336081292362178
0.337440870079544
0.337157764633807
0.332757484272366
0.331746681917781
0.33229157972561
0.332009175161237
0.328304594672192
0.332159891052423
0.333613047556158
0.327706682905642
0.326677020107893
0.327992306320262
0.328440097866285
0.327097217651166
0.328314108348869
0.324560280416931
0.326040050768728
0.324597652073333
0.321914369050631
0.319431641928857
0.320520172216427
0.316645436982729
0.31864520543752
0.317923751578211
0.314106410513944
0.314656903707336
0.316411610236877
0.310096926998173
0.311167902104728
0.314344150528227
0.30644643984983
0.311570797972138
0.310301296995287
0.311820496945554
0.309466446303271
0.30724208176525
0.305305312222237
0.303398117807029
0.306503018926834
0.307353435920336
0.306874700772355
0.30056186154673
0.297303594652043
0.297984050296205
0.298379733070251
0.297659946530553
0.296442449788688
0.292897140278867
0.291992553546566
0.289946621013635
0.29327761738602
0.29117531778348
0.287761546380101
0.288253912533342
0.284811110448319
0.283925244666927
0.29019344642934
0.29099020185273
0.286535359062053
0.281787065718497
0.284754157537111
0.279234749045513
0.279224637484771
0.280727484969999
0.274848056858112
0.278326140237902
0.278435425510044
0.277656347925501
0.276351321701457
0.275580428753968
0.276205212869781
0.273756185833194
0.273649316697953
0.272315268818484
0.270578667544009
0.268949464123403
0.272432153615987
0.268890308870693
0.266593448405022
0.271299996692811
0.269080378707248
0.267519636675013
0.264161730143291
0.265115997908287
0.26795295669771
0.266022844538835
0.264284239524755
0.260280641854958
0.259057701527755
0.256899833149615
0.262112917241114
0.263005660530045
0.261786695031018
0.255356911079415
0.256533812271692
0.261189217743072
0.253815889122895
0.25719410059358
0.257686380438791
0.253948403652746
0.250320145047913
0.253751495947066
0.25341802293669
0.247217385875411
0.253853484120842
0.25210671591415
0.252467353593113
0.254117940518041
0.249972280105274
0.247078989333617
0.251592201599064
0.245933537723229
0.245373904280299
0.24594880192888
0.243518060262424
0.241548995741503
0.243605564538793
0.246506352277206
0.24299760384882
0.241477582028076
0.239756929700021
0.241458330184393
0.243034724795507
0.242950184573291
0.237267301997287
0.239940594246069
0.239546538363674
0.241725591078963
0.239165467221168
0.238812743206281
0.237002617736588
0.235748468028463
0.237024922052806
0.236321424474177
0.238777278576621
0.236436240885705
0.234865600843404
0.234500239095091
0.234803863160863
0.237701075538179
0.239289337324251
0.232812841141193
0.231515814229241
0.232753616660862
0.233035143390174
0.234303116233386
0.232471412382444
0.232554842712772
0.233713115917856
0.232387303195748
0.231486982415925
0.229229234949752
0.228796124970931
0.231773103368456
0.229301796365039
0.2299618835816
0.228543549531601
0.226421278216663
0.229239708908746
0.229639978636735
0.229520653360219
0.228089308118515
0.223372025885515
0.222677586419974
0.225134545736605
0.224649033246732
0.222376159161031
0.222277965005153
0.221355429540886
0.221533008973208
0.221441493291507
0.224310939377104
0.222145463328403
0.222086964160266
0.216205257979984
0.216371491924522
0.217185277745929
0.220685002877584
0.220967738253584
0.217759658505099
0.211412723081432
0.21655262956256
0.219437464300949
0.215152635694694
0.213948150482045
0.215769562741266
0.21369277417897
0.216282161111747
0.213982090622839
0.215696493247568
0.21363824541887
0.213995561658463
0.213968039513598
0.211337188671973
0.210370234761316
0.210009856772673
0.21091575694783
0.211300271889726
0.21173478393625
0.210622033759358
0.207978361558757
0.207353315145048
0.210361743463192
0.210109515937881
0.210116948395047
0.20790139532899
0.209158608321503
0.205987207868646
0.2096429052055
0.205745301918381
0.204999277858671
0.205184507200924
0.210103885116047
0.205664127441506
0.203759077849495
0.207472876149365
0.20554342533906
0.200128442067361
0.20026108090435
0.201260744484192
0.200860125476497
0.203334927798934
0.200975670102641
0.200344957178221
0.199750159629378
0.195080128342908
0.193793333155495
0.19581286774203
0.193226877471353
0.192165387885425
0.192214776052247
0.195076209184452
0.191315174479493
0.197342588053982
0.194415903852503
0.195060529379463
0.193507942404597
0.189544549508048
0.187548451228672
0.1877965548849
0.187736568645144
0.186058033358252
0.187191751062927
0.182754502724421
0.183446006095709
0.185877190381291
0.184905813817748
0.185566647082784
0.181222040916682
0.182168467684662
0.185524770014677
0.185282970084233
0.181027777098629
0.181275779047692
0.181154155984507
0.178289450224693
0.176776898513171
0.175349442820371
0.179762642968431
0.1775252322351
0.177347138561303
0.177127726266767
0.176037716968344
0.174298702602171
0.171815564125761
0.173870248040773
0.17492122039333
0.17290268685599
0.175820233836313
0.174217087103372
0.175270558028737
0.172119887669256
0.171304109410079
0.170955564488425
0.168107439644982
0.168710052150069
0.168451500971992
0.169748011195778
0.168030606494467
0.166024496470674
0.16679278805772
0.166926043974509
0.164866068212243
0.162302722519473
0.166956583043824
0.166357702147439
0.161827538960336
0.165561635115407
0.165009848836282
0.160290910461778
0.160709288979193
0.160742634657091
0.160125448868905
0.159450627287978
0.160082607285303
0.156227345485389
0.156085962196943
0.156288563844983
0.157708068279639
0.156822045106051
0.158301720603958
0.155143102391857
0.156424185903308
0.152524502271369
0.152052145835689
0.15417992570209
0.151830193079121
0.149619808150035
0.153575438226892
0.153866567674786
0.151367052574121
0.14847168336988
0.149727828474608
0.152910977192364
0.15357230976429
0.148292056206189
0.149066949956623
0.15008500226216
0.147731534246737
0.148460375128464
0.14620105258674
0.146500253385521
0.146204756093106
0.147167425297509
0.146108337614664
0.146244065123494
0.148033761600312
0.14744520404717
0.146431648256465
0.144546278891763
0.145990382150773
0.144778335532022
0.144724294090036
0.146828406778899
0.146453616054887
0.145331397853675
0.144997779100576
0.141697637867272
0.139227565162213
0.140987398601098
0.147438788244008
0.14215086907077
0.142855008892393
0.139528736862532
0.14368399593494
0.142394911451794
0.138742002834299
0.135467967579863
0.142200274431067
0.142386439589758
0.137910448349462
0.136753310096303
0.142114212857456
0.130176770994347
0.135136750433314
0.136409201302626
0.137452085302525
0.14092995862305
0.141314907627713
0.139205345510119
0.132661894779621
0.135255880448358
0.143023455957712
0.135982703207924
0.140880379347634
0.132440031555438
0.134777440288272
0.126597068080956
0.135517195811085
0.123740782484752
0.137391617211809
0.130050406608637
0.132794057082304
0.13138213072003
0.136886252876039
0.126311030922596
0.135284139703195
0.120582798232191
0.129744585230102
0.129626924079986
0.134154500935335
0.137371978451697
0.131141540720452
0.141499999407227
0.125412585697368
0.127868139493391
0.123006691409689
0.147907896677444
0.125510373322027
0.146616089054751
0.11229696764853
0.142132518982462
0.111061494258548
0.160085773280767
0.109008919657792
0.149742054044658
0.107215151691337
0.158614921110495
0.102344922960064
0.15241684737923
0.112410580949223
0.149415807358604
0.110101813107491
0.140360242357568
0.11439481930191
0.134943195407419
0.12494697054324
0.128080274192188
0.125695140305407
0.125101254830298
0.127794095566064
0.12340078203062
0.124353232121495
0.131152587974819
0.119175257466166
0.128762599365959
0.12193463854513
0.128573049019752
0.118831770806733
0.130155096866182
0.123178059969571
0.126515777896697
0.123120504569396
0.12210119565314
0.121085110608471
0.127330608655178
0.122652243001917
0.124467485963409
0.120636087299408
0.125857686416038
0.121788592106776
0.12414181490628
0.121825573521966
0.123319822111659
0.12215923500947
0.125560021063169
0.119739554965712
0.125335898833122
0.12053743414988
0.123795045131358
0.123171573928058
0.123647346518427
0.123619913493629
0.124376129735165
0.119367506219081
0.121839051643684
0.121994404073014
0.127194744195476
0.123553246360448
0.125467738878387
0.119631906906027
0.126601403640172
0.118265954964776
0.121998315931452
0.121103070268048
0.126118768929405
0.121308626419525
0.124127003632397
0.121554680936352
0.125232753338751
0.120048342667725
0.1240224712154
0.118842969816154
0.121594415871907
0.120435225465955
0.126016853063728
0.121032541074541
0.123008556994082
0.12325451029375
0.123534347017466
0.122808850457708
0.123692134478038
0.120906554472284
0.122259208768038
0.120519577948101
0.12435026307504
0.120030670816555
0.123360734900393
0.121175872530098
0.123802795019862
0.121022094267331
0.124266703534744
0.121130141673866
0.124044213044822
0.121718995164327
0.124408633399235
0.122162462054423
0.123610641442747
0.12082633485657
0.121562218647332
0.121018680747529
0.12235245447038
0.121530446762611
0.126488485804949
0.120945349802904
0.123513283961782
0.121728934486655
0.123041937304353
0.121394007893071
0.123991611232573
0.124654400302341
0.123296604939821
0.120555883379024
0.122016351791249
0.122806629029261
0.12626471904045
0.12219916792906
0.126469494850595
0.121144282678951
0.125536589457235
0.124153296013204
0.126896426781949
0.1224650605911
0.125468499547356
0.124148047274636
0.126845494939842
0.126296016816487
0.128624280000196
0.122062963570325
0.127945724040927
0.12468787515609
0.126306129869703
0.126030228776055
0.127890383607099
0.123144646597541
0.126484125248488
0.124872598017046
0.129077767368799
0.12734453608187
0.123938429433648
0.123090345880473
0.127430512246324
0.123062680563035
0.125051965740134
0.122298831150571
0.125083855187912
0.125583822627635
0.126845043391358
0.124488317064904
0.125808411749703
0.126049894761103
0.127660713242759
0.125686190114245
0.127292349771508
0.124000911287101
0.127879815825585
0.124470875390876
0.128823151906203
0.130383064727677
0.129314418831616
0.126922529588615
0.130202036515365
0.128191735108877
0.131519769867003
0.128505862440228
0.126039283312862
0.123814383725307
0.127789921089235
0.127271852216335
0.128942448330682
0.128028679065727
0.131082187237749
0.129314818591732
0.131338149210399
0.127014454221329
0.133752698088126
0.129314236827969
0.132119271169148
0.130606106808608
0.132140114658921
0.129456732560787
0.132939115488896
0.134088456486814
0.131780358580305
0.12919070258059
0.132539582144892
0.129295162970723
0.13263024901436
0.13156699634175
0.13284761117613
0.128888620310824
0.132159731420116
0.130977659082285
0.13325873112783
0.128878908416295
0.132153831691126
0.127783949634475
0.13146930928224
0.130244758653066
0.133778778171916
0.127140470314055
0.128553670302815
0.125345739401801
0.132257026246349
0.129004762277929
0.130701555260619
0.128173310562926
0.129298567980925
0.125732507356306
0.128729690122698
0.124877978998662
0.125222943022283
0.126661070666375
0.129644873595961
0.124743628973228
0.127179618174175
0.124966689375077
0.126689118899227
0.123488343189618
0.129712933592193
0.124770996178986
0.122765747378802
0.123326941567137
0.122943197378705
0.123420085350918
0.128490932259199
0.123402257180081
0.123766936701996
0.123066447094997
0.126457883127102
0.121257691371888
0.124953207390389
0.121787360523093
0.122224058218917
0.123459412043371
0.123271186203895
0.121763715719053
0.126012231424621
0.12192176242991
0.122215437658398
0.121392083479744
0.121648405318605
0.120523540072219
0.124216129356808
0.122961589971112
0.122315747481387
0.120456962572408
0.124159177268166
0.122463875294942
0.12084463494849
0.11920407150046
0.122601107420136
0.121338797035957
0.122292191129935
0.117860296840498
0.122591047000399
0.119873827495943
0.12261585168122
0.117120241735959
0.120217356827744
0.117768091967366
0.122289683033822
0.11692914045435
0.120330150222204
0.116599358468294
0.119444523643674
0.118116001077069
0.123055141829372
0.119353205819028
0.124243266354849
0.120637208141304
0.119572815308232
0.119619283405938
0.118797521768569
0.117306117623282
0.117946414870605
0.116790825123974
0.118850192330165
0.116679562742342
0.117996674100234
0.118992150651377
0.119556510941624
0.11725182755404
0.119020259756145
0.115230992388924
0.117452154383581
0.116206777239076
0.119457466106748
0.116804308846885
0.118788095700067
0.113774122411056
0.117765362957489
0.115398984459205
0.116214055955607
0.11549819923506
0.114223251367739
0.113372593993906
0.115144933884262
0.113826386066742
0.117752298677963
0.112493502556894
0.116833928279016
0.112187742478879
0.118054201506574
0.113347834808266
0.115493245477702
0.112712423325242
0.115390175612385
0.112347878595983
0.116391245561643
0.112763165909931
0.112016909647783
0.111646430843055
0.115777156921592
0.111537468096698
0.114504279336777
0.110479063938561
0.108056699616647
0.108053305550571
0.109493428721874
0.108288838550539
0.110020594917045
0.109691044289659
0.110854689606827
0.107658949917663
0.109040076667873
0.105789010463685
0.110584057068296
0.105230609353027
0.107169698180995
0.104754290651647
0.106776527207979
0.106469343754996
0.105127734935888
0.10505494906202
0.103871370837756
0.104754971487068
0.103762838467857
0.102545511207482
0.102439900388777
0.100087618763177
0.102088972735611
0.101173306115798
0.101678765918318
0.101884721859243
0.103325948783711
0.10019925142663
0.101280427629037
0.0983077223255556
0.100436789512853
0.0977193612785678
0.0987822643682149
0.102665023552414
0.0967605999589418
0.100029226638147
0.0980938113950398
0.100322660780068
0.094771467428278
0.0995526775629787
0.0993293977977986
0.0973223709344475
0.0973931083936498
0.0961670008342437
0.102488727825867
0.0951673060140554
0.0994223650038897
0.0937207642083105
0.0961025399996503
0.094163907725433
0.0967521083032527
0.0973030446040438
0.0976818057935763
0.0951691635996543
0.101231151688927
0.0955882653704457
0.0940163841858759
0.0951913649015647
0.0988206467743278
0.0932450206857127
0.0966250531848434
0.0935714789089832
0.0957667430873725
0.0931350064210687
0.0941473242738005
0.0900461717323882
0.0972122338156459
0.0943898329205451
0.0963478170508759
0.0910716772726798
0.0940561362035144
0.0900854785485388
0.0947262375521228
0.0912580491397212
0.0920861216906356
0.0933312585332031
0.0938927895587079
0.0907814966157747
0.0903348565495118
0.0916967692200555
0.0925190434593639
0.0876530919764836
0.093355959043314
0.0872366585284598
0.0916886600865542
0.0885409784029076
0.093745306420826
0.0885431009166363
0.0923020665748106
0.0864472998687194
0.0939094277275234
0.0837696520579349
0.0890666837170696
0.095379724553855
0.0897295599829889
0.088689775883168
0.086433578305085
0.089895229028749
0.0891028260271874
0.0874265892873462
0.0881629740333094
0.0871350479180675
0.0906937565460628
0.0924026769604654
0.0877330940089947
0.0872516444118442
0.0885831698765799
0.087151214652714
0.0873123116901314
0.084493932050783
0.0848883645175724
0.090951916297819
0.0850093740748154
0.0854463759590621
0.095199121091646
0.0865605170741356
0.0877540617567291
0.0918657794755672
0.0747653431002991
0.1006099362955
0.0850551778272354
0.0928235043998088
0.0859779934243168
0.0879596221237541
0.0876510721312033
0.0875670790576445
0.0852115814984563
0.0868462675339615
0.0904550827625175
0.0829162638684877
0.0896666397650641
0.0838544648882484
0.0902250317930517
0.0848677083625142
0.0873420409496432
0.0845306825901192
0.0884964232130123
0.0879906149608189
0.0862851848340259
0.0837539632117429
0.084805712124403
0.0886458199876587
0.082150720707705
0.085362413899294
0.0891826670599043
0.0855739825851026
0.0873732915152921
0.0884087433966373
0.0839023410890351
0.0811757495813816
0.0981261234940921
0.084097916179431
0.0912333151055078
0.0825548419051871
0.0901505221167143
0.0870053296884575
0.0880668203947816
0.0817691306524757
0.0879818190918626
0.0827361201576673
0.0891003211140047
0.0832256766620274
0.0891263727156343
0.0836923898406347
0.0867887658694631
0.0830425204968494
0.0873525176952007
0.0881641778125834
0.0842650807705558
0.0890267465469941
0.0771836510294987
0.0836701669787174
0.0921477440420682
0.0898377364048509
0.0872010105907513
0.0845090477626193
0.0868105963260127
0.0846932409668611
0.0886812123617831
0.0826867012299751
0.0895477065436283
0.0853340595886707
0.0896312701532519
0.0819748936031
0.0893790365151106
0.082285506951412
0.0857968062908282
0.0821008028741795
0.089487478393981
0.0808401586406562
0.0897426963013814
0.0790119462507699
0.0911210674716426
0.0780248998111031
0.093762147099043
0.0775953916959294
0.0986683648755138
0.0630402268379514
0.105324281485714
0.0909735726452644
0.0875872985455559
0.0890037099455557
0.0838066671901093
0.0909512320546215
0.0852488192717125
0.0866766549574053
0.0905084620902893
0.0862139642560528
0.0859442136711392
0.0845496526813408
0.090587290699194
0.0928379432189674
0.0822178931458518
0.0760094453210433
0.100801420500866
0.0862126460762686
0.0974653500896976
0.0815919746810225
0.0835411071340003
0.0988673502364149
0.0843520018873754
0.095300777381233
0.0867006229235765
0.0888941270691034
0.088451094083133
0.0899257025716043
0.0862403465192615
0.0884477901820375
0.0933970571091647
0.089668815424725
0.0921664599139978
0.0857789612752248
0.0972698463785087
0.0874174249304847
0.0954926194644816
0.0974011864183269
0.0876998766974557
0.094872082237829
0.0945376397669852
0.089891026195166
0.0896512870938389
0.0949940700659656
0.0870736518158131
0.0904116958642236
0.101660428417568
0.0881564996013049
0.0988823724574913
0.10136464107437
0.0911168383719725
0.0959959637446454
0.0901739618438426
0.10594109091245
0.0826413198104887
0.0929175333991059
0.113928672666865
0.0915099859755958
0.115977010026321
0.0856962116625893
0.106944496386518
0.0904140638281065
0.106787158387134
0.0838660269846942
0.118251149019992
0.0867933535450161
0.109762551124579
0.0848896642181915
0.11050091331397
0.100972817721452
0.103683846333988
0.101453158474922
0.105368737646924
0.0937364642853739
0.111154265302811
0.097312079037092
0.0858691834040578
0.109890128294795
0.110361553196052
0.121488977168856
0.109048409917922
0.0870135557529124
0.135010267420756
0.0983676205356683
0.113754423010447
0.0981604082932941
0.116028876050701
0.101994139353811
0.104230920610838
0.123987892815047
0.110549279813856
0.108056902659222
0.120271982600345
0.0963602025895381
0.127176044055448
0.112522710862189
0.118987011678765
0.109040178694714
0.128012202072079
0.0922740371806996
0.159771944195743
0.115792632488509
0.127026064916863
0.134030645446179
0.128729003960241
0.132579381684093
0.128604466422125
0.126740633980882
0.132761331340209
0.13791692813293
0.13862098247991
0.120411184465343
0.138735852214124
0.153256624145288
0.128005212753126
0.148554744908977
0.135125350286636
0.122551608735627
0.146324056161008
0.166075023272059
0.160053914845913
0.148941749620397
0.142751631490987
0.167265077929912
0.148502465368568
0.152862523586338
0.157217721654996
0.152354673045997
0.154732041787207
0.150252748237436
0.168809540742072
0.157457202334782
0.163468788455778
0.164365944665042
0.161478463321623
0.158281891090805
0.184059807172761
0.207040739383412
0.158799086315509
0.207646208401598
0.181224071677839
0.191436797549371
0.182721851227419
0.178333892922436
0.190718708573518
0.186726124169683
0.195622398559594
0.179726089620438
0.209504261308846
0.205048590363469
0.197514122372799
0.224613741613179
0.203837144134985
0.220289356231083
0.156577774298628
0.345635570891451
0.222320846319347
0.258757367160911
0.231410907662996
0.231123515802781
0.316406374212026
0.273615411856642
0.281159211974039
0.285216867667352
0.287578975510631
0.301404080615422
0.305226689966519
0.318232469165698
0.326985629219215
0.342565515129327
0.323394186117744
0.340720058568753
0.390314911071916
0.404268495054617
0.408658562218811
0.378524261593858
0.403687249860453
0.425260248449457
0.415764698258847
0.437426464481064
0.432999418484014
0.418395061720029
0.50832209147759
0.465642911783951
0.499089626131532
0.467681634107515
0.543548334072421
0.476520136022402
0.571263015701532
0.552256625143472
0.552285946121631
0.553200917151081
0.56981877451567
0.585613577569308
0.574592582474632
0.627210706263004
0.623925123843033
0.622819166824172
0.635508188979867
0.639605234485869
0.655020921747073
0.651068368269435
0.680152203773688
0.641821362700662
0.699793225326812
0.610526745765831
0.856274282313664
0.734057034347293
0.686236945416416
0.697741008514629
0.681186536472271
0.72236688793851
0.699545621178343
0.725509306373862
0.740906016866251
0.69532792650823
0.731071882202837
0.710720284147721
0.732069071665614
0.696310580185809
0.725381964488273
0.686278556815904
0.743473495859349
0.701887778843598
0.706306370977551
0.794839049912466
0.722721868706615
0.716497939628438
0.716665703619721
0.707542478901546
0.726955975243456
0.705211212682823
0.692550782930339
0.725935637713109
0.70228220264311
0.719914064310834
0.671872472165226
0.681841920978818
0.712136510687824
0.659672432291154
0.660911526265838
0.639049666297529
0.660803857739577
0.617428954040321
0.616362190923472
0.670539324264976
0.618994483684379
0.624374084712448
0.618441775965165
0.607210547137109
0.605756746572408
0.611631049839768
0.593828894133154
0.607530019278073
0.58506232030033
0.593813133921823
0.585614796844886
0.589402013561122
0.579059693055229
0.58111628877617
0.57103116282929
0.586651758385428
0.58905425538734
0.575370376717184
0.584954002941072
0.585388864773031
0.581869418531325
0.577753651268442
0.585989566530272
0.586415877874081
0.581490522162487
0.586315600030441
0.581593893896362
0.581505027999189
0.577937444283491
0.577065624578153
0.591586459505207
0.581025589052971
0.585716978600107
0.577865304409597
0.584469268714624
0.577600753551031
0.58269219294813
0.575499692451993
0.583355916969558
0.570496131527862
0.585395995519089
0.531920693586103
0.61630658900061
0.603157334896053
0.565156207582414
0.575945354595687
0.564469195271121
0.576800841792359
0.544718983914567
0.591945881034894
0.572226628729696
0.562813189932509
0.564484497422977
0.552080056750658
0.559146620677113
0.564652583657019
0.529906695636033
0.560157631452393
0.517977516899751
0.556989776973854
0.562300086929128
0.529174801891619
0.614736634597562
0.555642891398233
0.537149821952631
0.521780842166249
0.590714913084884
0.528345821065764
0.545720771022637
0.51883890850142
0.563065326227231
0.545441729943131
0.530861838699756
0.542919422284204
0.516209943152489
0.526766294727803
0.543662805159757
0.51328830817776
0.50710132006364
0.537514463858942
0.504320102688235
0.548873493431391
0.540033593907639
0.529319155861478
0.495122281021725
0.496683399382881
0.487553121592612
0.459716881390144
0.530575079595254
0.477206391504022
0.486411341224618
0.478650291448274
0.460075322255962
0.462068007488156
0.460308664799062
0.467122182038556
0.430831784836431
0.485787203633861
0.424830602755092
0.452279848268862
0.432842085105941
0.461180907500367
0.464905046240195
0.44194519711057
0.411651227491801
0.424590876949949
0.451845457716705
0.415022343153143
0.430765819539882
0.404515844858631
0.3922728915143
0.42213206601816
0.389602720763599
0.390921536445296
0.394595899923739
0.375384479321364
0.402857311661365
0.388260088756579
0.420068072868631
0.38714093297429
0.365301492188478
0.373297648313545
0.361858722460375
0.377167000164023
0.344803344047041
0.385559300741702
0.380893961277837
0.33106448708468
0.408113403515627
0.368234398314961
0.366900954999956
0.368739754147445
0.363219598984971
0.358088030566552
0.371465246128644
0.394174368069439
0.382032376981967
0.379195932778019
0.40829687803268
0.375775407584182
0.400550638202453
0.387159202535078
0.40606347588228
0.395713237423365
0.418980331634493
0.414721213563367
0.420488648475961
0.420949838758515
0.430712419118362
0.426457776857789
0.488865445368529
0.426791566091308
0.494263785607477
0.462320885171946
0.531819935287608
0.498332887448238
0.497677447213265
0.511480933457208
0.511372632506664
0.532592059992416
0.529597115339286
0.516425556004773
0.587781574099727
0.537087627621142
0.570418755732736
0.549165950483376
0.576095686360794
0.55603569158106
0.59809474501252
0.566683205472348
0.609863009687199
0.642342784583731
0.602458062398644
0.614911745115581
0.592724259955613
0.623263582715798
0.621261344634473
0.616482806717343
0.614170729212128
0.606210731002247
0.642407423929971
0.618471359469472
0.626249924867637
0.632908670395439
0.621272457794095
0.635027211755494
0.63842317642707
0.642480710637198
0.648104853465925
0.645611311938053
0.667099944689004
0.613949151983951
0.717691198874837
0.674193369028736
0.66776386818051
0.669127871542467
0.677141008461354
0.689059435206164
0.682699663696702
0.694221456485601
0.702772225944842
0.69633134965139
0.706657310232456
0.709323175026968
0.723152712305303
0.699679781484658
0.749002496410306
0.709899584605173
0.744226982458699
0.715639547654372
0.727200199106508
0.794090370430732
0.74205173451133
0.774285471728987
0.755939596738011
0.757867424134999
0.751218759601963
0.758882513053965
0.770608946182137
0.771585662332032
0.766035761647997
0.775304390913846
0.772835843119233
0.770675717248289
0.781322814303758
0.770355651244389
0.789473273892886
0.769966767197434
0.769925676864372
0.769869413875756
0.775785503692739
0.756099921957623
0.771578123711065
0.783983779743134
0.765196245556677
0.782068351715859
0.769982535060825
0.7819174206333
0.781964190092464
0.765781195725721
0.775514994308201
0.76628004601225
0.775855731487106
0.765421094938166
0.766249575251486
0.791092511042008
0.782472464222375
0.788937822534577
0.779368397625924
0.786927786667197
0.781052834642582
0.7831139087977
0.787366055384896
0.802685757671357
0.791021677247815
0.806094417190287
0.800745631701865
0.799630871221055
0.801918352249416
0.796672668683059
0.806872226950664
0.799837070239651
0.78610508558801
0.801778245851099
0.791708225556162
0.794793945697772
0.778264240512496
0.778919647435243
0.77209817743407
0.770416115800652
0.746527087263827
0.789708453448257
0.756007834488993
0.74564656064981
0.749837274784703
0.735486645339041
0.738658273708769
0.72671377091111
0.728212802662668
0.71918318699656
0.714197015305646
0.704731727396073
0.711783681132699
0.711038072325783
0.70380224332629
0.706072191985111
0.707374350293956
0.704825222088277
0.693802914279761
0.701439019115537
0.702099648167428
0.702104072543898
0.699102548799869
0.703510036325949
0.693303780336738
0.693889663306837
0.698934496560141
0.698152353341855
0.69314084730762
0.693382976400002
0.704212397158421
0.68997994358732
0.698538776114885
0.690419382010497
0.686902829276091
0.684237742419171
0.688995791927837
0.683968986810783
0.688627655281292
0.692140169566008
0.684654560166239
0.679288415617624
0.683893850460014
0.680511616793277
0.684845010887002
0.687251738794172
0.687660549470539
0.681675295819133
0.696606973937338
0.689910505400926
0.680285861970629
0.694629088864043
0.68620679716892
0.687699182603897
0.681045657983892
0.686172769386038
0.693040463614281
0.688736171958371
0.681741199763479
0.688617588870803
0.684198097941665
0.679981724320863
0.681809248299619
0.68204776605038
0.683311404969128
0.679806789600706
0.666087738835705
0.66360397534135
0.665579937460223
0.660402080602648
0.660528727941532
0.657036480183043
0.645159312732698
0.638043277491352
0.642259429739772
0.633700460001429
0.620279030248551
0.626597019886041
0.624320647370077
0.613925968741986
0.613373382346485
0.609999720515075
0.608249674522623
0.610061257658025
0.609574474211775
0.603376954454804
0.606127805505221
0.600859130944279
0.596826298762736
0.598194474108502
0.597680133584861
0.602200421702858
0.596126834891781
0.60283577419627
0.606432620526798
0.604821200893401
0.604240009114288
0.608287380026279
0.605850321570449
0.606562377364717
0.61296167103181
0.614013661884549
0.614961156623443
0.617686600719387
0.619774358639894
0.623571759794561
0.623363195389957
0.631676084472058
0.629464244291501
0.627312418113248
0.632264757115169
0.631147826690688
0.632801853231528
0.63481281381556
0.635978713451312
0.635866376433703
0.633113584591275
0.634950809813656
0.63542404983567
0.627667569617429
0.628892611972221
0.636050718784211
0.631418759175102
0.627863536541347
0.63174295053418
0.626073599371555
0.621720999357076
0.617895719812686
0.617353634010508
0.617710021088101
0.622882837359297
0.615967064591886
0.611183946243636
0.612850415062293
0.606859505570946
0.60277699511788
0.603214586050748
0.599914618245471
0.602038484855165
0.596977265891741
0.593750084562603
0.595426593201997
0.593801625847057
0.594132415528723
0.588141859759886
0.582681977487728
0.581210412752226
0.584230755550895
0.581220722767177
0.582281788325871
0.577995235757871
0.57347554322018
0.570996559782475
0.568006622543639
0.565958906658803
0.562132911570414
0.557897769085162
0.554560302515974
0.551302275179705
0.549134823524209
0.544046772699094
0.538620970016609
0.534590144615714
0.534628538571597
0.529171697543977
0.521965427339238
0.519911257511966
0.516213101907772
0.514050944737025
0.51078504346709
0.510185097639431
0.508129831730382
0.508008207151532
0.509035208517011
0.506958923534183
0.501510411802254
0.498031571299671
0.495876653661014
0.492205305602412
0.49228066613877
0.491791201521454
0.485393862638021
0.477631801560466
0.474525722374767
0.469942201677543
0.463619942298262
0.458983695138788
0.451268150743673
0.447358191836273
0.44601808969797
0.443435967508863
0.441427468413164
0.439905573843528
0.443598527747947
0.447632495042592
0.452199986099618
0.46158616095035
0.472491092031615
0.484407635789745
0.495932180089655
0.508763586814362
0.525416144260334
0.538766925037161
0.558073386061272
0.581136193376665
0.604837173228714
0.62349947110288
0.643445479009434
0.658992850735133
0.679950328120761
0.70059393725207
0.723851439211944
0.739793534973897
0.754648459246833
0.776458685177319
0.790374624531257
0.813602215306331
0.828348349351457
0.839608283226471
0.863321934959251
0.876367898107447
0.879749034664482
0.898663240699235
0.91289920477577
0.923997219396911
0.927032123235384
0.937230516475072
0.957756132138684
0.956370884432738
0.952513760027516
0.96190873781264
0.965139841097162
0.965311386380427
0.966192404786882
0.969218906801175
0.964194648265627
0.955902793026599
0.962922711687944
0.966563284130721
0.968545203111524
0.974257491863878
0.977549714611617
0.978056288335183
0.983831922730482
0.996678357893596
0.992334479951611
1.00346650638493
1.01841037438368
1.0093092859372
1.03087774038444
1.03444972968947
1.03419206121119
1.04995102269251
1.06396775634969
1.05228590183083
1.06728189720417
1.12020343441171
1.11501917410106
1.12465873645686
1.14998043420919
1.17312380603763
1.17307809361526
1.1821326778293
1.19894219562654
1.20235587860778
1.2011143391932
1.21826439311563
1.22004259753895
1.21165578552783
1.23282009894911
1.22831816827329
1.22491495760439
1.22209217351697
1.20818257148612
1.21034336770897
1.21179781968684
1.19946884532595
1.19330890557799
1.19826349674039
1.22106269756637
1.23740749448485
1.2401906936262
1.26282014234777
1.28955558830074
1.28324412799074
1.29649597156285
1.3070803057893
1.32152136156232
1.36182559008839
1.35702306989118
1.37950397128042
1.42965576576913
1.43201437939754
1.42779695165954
1.42622620072374
1.45025156851022
1.50239323535731
1.53303515842785
1.52643266051968
1.56230214887931
1.59962947454402
1.61555371026984
1.64570213657774
1.68735121582898
1.65027744482469
1.76274811641982
1.81374011620694
1.71133430400639
1.88750870494627
1.8760636343891
1.83336799816264
1.97531865848069
1.96159646756311
2.01040809841113
2.02011639158684
1.93733888448963
1.88787376705903
1.99230321714778
2.03328702554418
2.05700089960566
2.00240156201708
2.04085063329705
1.9739616589033
1.98018966451615
1.93880945578503
2.01222897255022
1.96496554790646
2.04805716208561
2.16630044598893
1.93317341385059
1.93081157434444
2.09278608650944
1.93031931405324
1.88440496667304
1.9443860702617
1.963547544518
2.26569556808249
2.176977730508
2.02192806926431
2.0692016303279
2.03788404045844
2.16914718165198
2.06470084447263
2.10340381146305
2.07863195830774
2.18567482758925
2.25098466645676
2.20670167583562
2.30020864924444
2.20153497236021
2.26602321400196
2.34209286697731
2.2629642559004
2.43005296985211
2.42018580762906
2.15787184013947
2.17990207029594
2.45145048241636
2.9414434570826
2.62580262794446
2.22353253052303
2.30969988123323
2.43784734385598
2.66578410393792
2.74077691942506
2.342374414482
2.36391834102783
2.89439141444113
2.23544310064367
2.26779570841317
2.39160538563861
2.55130669095892
2.18312076874308
2.05578886191849
2.40653445020785
2.33221793457586
2.39304799442844
2.28285464043364
2.27618486715191
2.26685110058725
2.10057202830553
1.99923209419053
2.00753202819154
1.99873745114405
1.89894705515742
1.86498206016197
1.88567266573851
1.85904841630605
1.73770037937506
1.70053375454121
1.72454296243613
1.75691327291322
1.70104424704031
1.66472506653912
1.69014023277195
1.73847886279339
1.69603728299068
1.61447338734855
1.62923102860366
1.70829346877821
1.70651514324254
1.61584986452299
1.55646991268383
1.56228266989951
1.4680720646435
1.49293796015217
1.56389406132007
1.52375569335294
1.46873898804377
1.418585955953
1.40236242901187
1.3942366694728
1.35227390991628
1.29974588429749
1.20858507527386
1.18376705635517
1.18783867267667
1.12043030197066
1.06288710124451
1.04018879825945
0.992501846364522
0.939285244239477
0.897531871044612
0.875315162558331
0.839411078652118
0.808239253194872
0.79367598984103
0.756978399059474
0.734499344935916
0.722453936927759
0.698887825574439
0.681828903846359
0.673854282181857
0.666576364142063
0.648273276109989
0.647927159061522
0.646533368244311
0.629616256965561
0.621297537902955
0.619102690486745
0.627185981336745
0.63103434356377
0.626051580771123
0.626347784491372
0.622556781031703
0.621935091832551
0.633070708303774
0.630574253070213
0.631647790429439
0.636351430485099
0.627087110844593
0.627929920121576
0.613768767482552
0.618021604406005
0.620739962751232
0.611287006086356
0.603333896323373
0.586839097118547
0.593817561776916
0.589522547819076
0.582733684487144
0.58289353190783
0.57624214201975
0.579148244961468
0.577171392770341
0.578485375864082
0.588989710563564
0.58826969052209
0.587815453752215
0.593498404976935
0.593162553864963
0.597288508675678
0.597500460724054
0.599356181027719
0.603425168930228
0.618635295839152
0.613639377014068
0.612096734708941
0.627484653158993
0.62531129077102
0.618280893462838
0.621118110717714
0.623160172563308
0.627411545223439
0.624651474450163
0.629448143910073
0.630350557568575
0.623888128430007
0.627284146030915
0.633444443230072
0.642128474276125
0.645363054832919
0.644748936020738
0.646383243455346
0.659829963221155
0.672814625875726
0.697177259306584
0.700516960566407
0.71082358711213
0.730707140575625
0.754655818225404
0.775507207535881
0.791865532127758
0.800711191527667
0.814968659798999
0.820624405577961
0.805050347575034
0.796097744001584
0.803927318777147
0.798036929664149
0.791650339573594
0.795369546118503
0.768017969809166
0.766449096034485
0.752097576042178
0.744681275902995
0.743702713856651
0.734330229579776
0.737363781305163
0.74668278487773
0.738257963923354
0.725290546117949
0.732782586152441
0.737611629838849
0.742948489262553
0.747154597443189
0.736694989090273
0.724194694465951
0.726322098718952
0.724791809199562
0.727670626302971
0.716337069597647
0.720146345669264
0.702931381846608
0.675473849179493
0.678369274899566
0.678372389371265
0.692320606105223
0.673345300881682
0.648264488971474
0.644085318251595
0.645818922668448
0.657707263358354
0.662806432348942
0.657955071895342
0.654630202344993
0.656740867268074
0.650951850077282
0.648664237440583
0.67180779134692
0.660795247351744
0.638562432406918
0.636103311086298
0.618816809246247
0.644801788599537
0.642471925009303
0.614915385583585
0.648266282543391
0.633585517848652
0.62434597243363
0.608363940106787
0.603594569882634
0.621494700406556
0.610392289083382
0.605358386929839
0.614784790134084
0.611173054202465
0.600136731339382
0.589992994988323
0.604751680294584
0.59993496271781
0.594785974474074
0.603261598645806
0.585606889344158
0.589622439801593
0.604204923122886
0.591311271063304
0.597824480552944
0.594687303383705
0.597436935982888
0.598214221486002
0.606770439238661
0.587777840499632
0.59350292961099
0.600642361535723
0.598207284149042
0.597990665879313
0.619050075317958
0.623266953930054
0.61669507326265
0.623506773432672
0.622468967122571
0.627780923901692
0.661644287032976
0.648381306980641
0.621931117247975
0.627523501438944
0.643426845184689
0.657083712176725
0.649235438459036
0.650506047576518
0.645511375548896
0.70129376588088
0.698763052226797
0.688456281639673
0.703509467872539
0.717912194543556
0.734986225608557
0.760182061983887
0.765653218423991
0.795189515640178
0.800861559305968
0.817228225304439
0.848485400519098
0.903356211595256
0.865529430289975
0.885495092992284
0.895577732887687
0.888411216821656
0.958989823131958
0.997868178779856
0.968265608091171
1.01708281140626
0.988213927347692
0.994282648744516
0.988912324355071
0.99860599877059
0.997101188487108
0.962394685600062
0.939083385258632
0.946495487499881
1.00462331562385
1.1022483887207
0.923129686000353
0.992262553318789
1.0124086248977
0.958390176449202
0.984349227052357
0.976216559489775
0.940877402662465
0.954389386478529
0.910997958581442
0.904467872824181
0.925410257060773
0.974200811623916
0.941262017810204
0.955949373957395
0.927701578416575
0.898397447931829
0.936515024090176
0.938137029368596
0.902876560090221
0.974323809847121
1.0507699964016
0.969286805796797
0.914150756584492
0.887665474908038
0.941847342064092
0.935974958959665
0.877148966272935
0.821055450759464
0.826863657790272
0.896682486987867
0.900513355458069
0.924396180995887
0.930980268587059
1.0467924150677
0.895062859891339
1.03143700982183
0.908347695503573
0.962758724802968
0.923916946112629
0.878834910966535
0.927434175939881
0.877943670602758
0.868274081163484
0.878698949961183
0.905177188635642
1.10464704265214
0.893028624108937
0.848634977300162
0.944849271534402
1.0433255567833
0.853007982679968
0.923119828225648
1.03243846103724
0.887443877935409
0.99805677101488
1.14169868689137
1.08136498044541
1.10247941458676
0.967200931183444
0.957479668740203
0.8802340953386
1.06042538106126
0.961934926985348
0.992324034591059
0.955084100078898
1.02154924315434
1.12776816067503
1.18563018550448
1.12505824925403
1.07641843212306
1.06078366525962
1.25185449341979
1.10499212603524
1.10617921017059
1.36995658457184
2.27008858555203
1.21727618659561
1.45012332203161
1.46875663741787
1.02203980884739
1.03621330507762
1.213443631808
1.16497378264199
1.22388198254404
1.2777092792477
1.3876279554562
1.00727953570513
1.36869879224889
1.12715711038389
1.2210508248281
0.999860521717441
2.16747364549498
1.34773351116384
1.07498634212825
1.02789904424836
1.39542297918488
1.03328813983745
1.20531106893884
0.888540543285405
1.35860524708939
1.06701470564425
1.05097723490224
1.13144662090888
0.975823461493007
0.886900507173444
1.45250531830968
1.05735707328433
1.11124811000608
1.34139095229192
1.88037253755204
1.34262907779834
2.01895863946589
0.97975598498139
1.06422882547248
5
5
0.960552095664136
5
1.17973511636233
1.23419327313876
1.3887135759647
0.810244474923532
5
5
0.856355744429792
0.931533104763257
1.13227778043511
1.15825910333028
1.12388762144304
0.992472369339286
0.635232719490139
0.896241753483705
1.85281420783677
2.19763984546711
