3596
4000.36533379555
650.420452594757
1
2
2
0.0153367519055154
0.0253932104726838
0.0207821412672726
0.0248420001204757
0.026243032165043
0.0138172593508292
0.0235942786625598
0.0257551530509765
0.0232988072955338
0.0273645036958831
0.0283971519380792
0.0238580311539261
0.0267898132565438
0.0235908694503109
0.0238237027494431
0.0234383537966998
0.0236435833176938
0.0217562016344227
0.0259484273933901
0.031235229541661
0.0216304621406574
0.0172460983792141
0.0206327638060148
0.024684622692554
0.0173882437405967
0.026292028729705
0.0218632961998208
0.0221464032512768
0.0310589508443259
0.0277002991186522
0.0273970005173304
0.0230776774686997
0.0278620631240549
0.0191758507409296
0.0218150533221553
0.0277988383677881
0.0273650264927017
0.024647608372812
0.0175136979826708
0.0270025471596565
0.0208615983644763
0.0219893124937893
0.0231717150863454
0.0294218504996604
0.0227044245500687
0.0165395647951603
0.0248973766561726
0.0240999617265686
0.0219179362085247
0.029390819426856
0.0262097940671321
0.021109273464834
0.0279298464717487
0.0209029571351883
0.024997856393352
0.023200060480782
0.0193725830114212
0.0294839129976138
0.021158589173818
0.0250568583827869
0.0150355497569666
0.0207535095953411
0.0253823095146593
0.0233569635139198
0.0218160481876247
0.0247173537292563
0.0232808187729829
0.00882291180997061
0.0208536663995109
0.0252922574936255
0.0283647637192315
0.0262538611011658
0.0259648015188522
0.0180336831403823
0.0219499088263258
0.0174969395155858
0.0217782199540795
0.0184898709526109
0.0213320654852085
0.0238299210005793
0.0243287324072636
0.017593519872677
0.0233825918710945
0.0149399924420933
0.0184845341063983
0.0169698380418423
0.0235741125146346
0.0178524911736436
0.0230040422775709
0.0135618041995811
0.024995178706807
0.0210263522568591
0.0242417536943985
0.0245663456530613
0.0264699822627346
0.0129398588292636
0.021884811598046
0.0230600727941677
0.0272474679404592
0.0230883909294984
0.0201409210350685
0.0250724571020402
0.0185487389620785
0.0237446517192703
0.0107331119711449
0.0216228208419044
0.017771650351358
0.024978861778001
0.0216937027294291
0.0135422754074642
0.0264855680329437
0.019202060305154
0.0182925355148172
0.0210652180924094
0.0223097912549602
0.0170415234706921
0.015217972369284
0.0175963591225363
0.0211395088334115
0.0155668262748648
0.0214092087411096
0.0209203062442505
0.0281499795112783
0.0205506085737826
0.0120200268601641
0.0190992751919141
0.0192232689850083
0.0207298860879716
0.0215705352293186
0.0183618853098832
0.0193719766470757
0.0177004599878293
0.0208391715077332
0.0166015948907231
0.00897793084409776
0.0182363271995152
0.0180112857773305
0.0138647569159609
0.013618464127757
0.0170887711632035
0.0176751128404482
0.0196317858930731
0.0176331336934605
0.013793040744322
0.0127910608214552
0.0156322126673232
0.0186686256385336
0.0164658231583094
0.0172113235672704
0.0228659256444975
0.0126549855462754
0.0161494676262966
0.0194662359060785
0.0189875863942612
0.0195630981484094
0.012367266324979
0.0330023965951881
0.0261527281019934
0.015824542593484
0.0187996064142411
0.0138553296772458
0.0198645413278846
0.0170518577177415
0.0137313422487081
0.0214957307169862
0.0187198038647567
0.019972638612547
0.0247272296961155
0.0245082595346779
0.0220423120584509
0.0203828605166813
0.00995362564772951
0.0141722611109228
0.00699094255732109
0.0237163273950594
0.0199257067216775
0.0165674359287922
0.0225489477523711
0.0167376748653695
0.0174885549085732
0.0163031988280549
0.0178495147381568
0.016981716112791
0.0203446595269706
0.0194352017640038
0.0176241851894176
0.0152462398326609
0.0201714242515982
0.012677168312399
0.0192399970048362
0.0171975862197467
0.0195223070859346
0.0211845749673923
0.0230998459344745
0.0198803739789852
0.0209851682805073
0.018671223378609
0.0241916614411944
0.00883242000117487
0.00955963919414345
0.0197685111495814
0.0208747593277962
0.0176782156752132
0.0150706872979643
0.0130264141284605
0.0129042421444008
0.0191269854515356
0.0168695051330188
0.0169078610984815
0.0247719974450943
0.0155442487242139
0.0200948528253774
0.0223616024631384
0.0262398225130488
0.0266172065304021
0.0174858027874899
0.0134518538162415
0.0161162564090118
0.0193353997821561
0.015233604605774
0.0219488402570419
0.0186262865714416
0.022872155472934
0.0257907472584354
0.0167132876698895
0.0166170269273768
0.0136497726058836
0.0227650185837752
0.0196845256297181
0.0168220700506643
0.0200330925470607
0.0184533081828667
0.0157195549715411
0.010441313828847
0.0198919780941212
0.0284483812193316
0.0200850573968794
0.0185606992663061
0.0150557479352033
0.0211386404746295
0.0198076422291833
0.0183910104434888
0.0193777526749125
0.0167802094296975
0.0237682781254713
0.0328877038962128
0.0178228235285592
0.0266142163001162
0.0151348530758248
0.0239721226012595
0.018201121889599
0.023558287018704
0.0241318667175635
0.0238848872723578
0.0139493540884663
0.0248279292473943
0.0104547238440407
0.013335704216281
0.0240517347387649
0.0208425016115671
0.0153128184636363
0.0209070005541413
0.021536939155241
0.00710810339836287
0.0216040483388907
0.0204136063498853
0.0149105750500638
0.030736522843729
0.00966670592496984
0.0192704538086132
0.0163182510650549
0.0261682604665756
0.0309287139160865
0.020290963519332
0.0168808626637185
0.0165732112103086
0.016801730045331
0.0227408061453345
0.024669917897844
0.0173176755741963
0.0219438704676427
0.0189114063914901
0.0266253177219262
0.0249034132450894
0.016607793045771
0.0238168355741275
0.0174919167077079
0.0274252823387651
0.0223765520229869
0.0242134289133568
0.0209554307797447
0.0203947823138152
0.0248180240791844
0.0202826190554337
0.0168158707465951
0.0238759991664162
0.0218543784548749
0.0270633698419804
0.0239730501576737
0.0191388312264632
0.0314096776886298
0.0166611123943109
0.0206636756133029
0.0187900085101017
0.0276020330875495
0.0193083375757871
0.0256108991683417
0.0287161650280061
0.0216953496566594
0.0174548475629027
0.02467951030369
0.0248664683819231
0.0357566747224019
0.0243564555823992
0.0236526668585724
0.0277158687187054
0.0305699463393064
0.026332389114401
0.0244829644556766
0.0311503162901184
0.0290770671085493
0.0286664654795454
0.0291685998620584
0.0254638952233779
0.0296053058106847
0.0320943550038275
0.0238384707270354
0.0335000264399015
0.0298126298110771
0.0333282354759772
0.0307333756494163
0.0285042896460856
0.0342882033175443
0.0512590671931714
0.0294682903309182
0.0291397564426554
0.0373040865211922
0.0384558346518611
0.0292708363112251
0.0331192922813917
0.032934861696417
0.0443430234751309
0.0387147716456819
0.036934525980313
0.0386541328261031
0.0417590403889229
0.0342365040267012
0.0354060220128583
0.0389463506105165
0.0392097758958419
0.0409485812957028
0.0359787296984349
0.0365509755533055
0.0476254042990967
0.0514270746645438
0.0418075848888381
0.0415159805719485
0.0460371834905316
0.051859553148914
0.05477437751306
0.0496010447244616
0.0549217257794353
0.0481127885480921
0.0537408354547775
0.0660048547701209
0.0545371100876609
0.0541600494061061
0.066521943965075
0.0701225309491351
0.0662144439672847
0.0619642527712025
0.0585522205189995
0.0695122056464566
0.0775277474802699
0.0755049949237988
0.067796072749915
0.0797204318579114
0.0772104003230951
0.0662689827527829
0.0798743663147088
0.0727330626190957
0.0828326605724175
0.0810888107683297
0.0791256364377224
0.0864859001032451
0.0929529853627622
0.0952047291753242
0.0917539569988865
0.091112565504771
0.105672764864249
0.089812161338416
0.107878657685865
0.0950542680092689
0.104168889760295
0.100771803106917
0.117379303457153
0.11145764063396
0.123457142308105
0.116057535658044
0.108320987002171
0.104104980486958
0.120186718502351
0.12629000447948
0.128105811269889
0.120877506528819
0.133382051685232
0.140829501384002
0.130976086162736
0.13621618097672
0.129839892644967
0.130774726113333
0.142497225705525
0.133650561131639
0.147444071354129
0.154611081429107
0.15158435311976
0.149848274719167
0.166633805139001
0.162986747936681
0.157785008247673
0.156655339337439
0.162629529314857
0.166240063190376
0.174087375910251
0.172292254658527
0.183342089843333
0.181852407200951
0.182094540413683
0.174683219494749
0.181222016760084
0.187363052015959
0.200950077335123
0.186919216889851
0.1916422828433
0.193729279577562
0.201417903703658
0.198388214949767
0.215084206720347
0.203542170752276
0.219609931537764
0.219171804239375
0.226022310362642
0.218833238271512
0.205257579093146
0.224770177859222
0.232881482510891
0.23214885144109
0.236169865948582
0.247199049733762
0.248683569420464
0.247950421196906
0.251248371359576
0.248901486891841
0.256868584586849
0.257775134338939
0.261474386459523
0.257641242722007
0.273898833826173
0.256615703642217
0.283685763695056
0.277766439950079
0.296470311401383
0.302299946420534
0.310554827084369
0.293397962727563
0.289357393455039
0.294277179799683
0.293625826235512
0.300880158150551
0.295603019877981
0.30024014375168
0.330025111272356
0.307751289540224
0.323369433668341
0.320220699243158
0.355180294668248
0.350368800762438
0.349609709277444
0.341444297101214
0.354556723313558
0.356983393983955
0.359718046093634
0.362308155764201
0.36912518789692
0.357648660937029
0.382893849318149
0.372588240883824
0.400930984659362
0.368597021466973
0.389573772676594
0.389798011158288
0.407626303152698
0.38504948438695
0.400961131674736
0.40451609931231
0.416296283466202
0.413127969749013
0.432193406701406
0.427296184915688
0.450512498664149
0.425683991215399
0.432829921567193
0.437391571296358
0.472225376872214
0.447827527293446
0.48029652279884
0.451828063659468
0.469355292712306
0.465334117196995
0.487257130937245
0.475969713266966
0.512434955229285
0.479010981504856
0.510334551151609
0.476568456488089
0.507660331771996
0.508971590966378
0.49663325951918
0.533720279572465
0.528182220876531
0.501221228943553
0.547404007428445
0.534614054133954
0.548971100304936
0.524676559974356
0.566249384283462
0.531484564660247
0.597153473568955
0.565255788013642
0.586989419202291
0.56781831741606
0.57576671010951
0.558985327229197
0.591448174847884
0.581777825572001
0.638001454169606
0.580293627093935
0.64830557668247
0.571175623356
0.640558646392813
0.586481122574923
0.654345819487665
0.625084098620825
0.68483444051224
0.609897003006777
0.656366960184755
0.645591105712922
0.698720838290035
0.631835302781889
0.668216752832897
0.688876983249014
0.719321749855819
0.688271578077477
0.721343820823491
0.665831846684601
0.730279208733454
0.689222156992383
0.719231169412486
0.711462459488054
0.772716576871537
0.724002884087871
0.750525121194307
0.738829109032233
0.734617866952841
0.722178506034427
0.768325417972782
0.69139089231695
0.785629131129349
0.672864702252977
0.753654552931952
0.742409538414135
0.767608888890439
0.7396091640866
0.80905530273258
0.781517039433451
0.863696568595292
0.771480444296611
0.858513941432759
0.787380344336924
0.853261280449587
0.774295613402407
0.861907463020665
0.816237952263403
0.885376785901918
0.790726566191627
0.919258902455191
0.784310418126788
0.864161949406578
0.834329355172046
0.885461036567914
0.814821585411446
0.818264545182922
0.857124008161929
0.898987620969585
0.890495749738279
0.89959135831908
0.849151781071543
0.927364884652561
0.85573102484789
0.882176816496677
0.869523578096026
0.905753557367697
0.8904163867436
0.927635667418484
0.876159229792859
0.936441518901998
0.960283908882649
0.943706081130243
0.945701160414289
0.918532349521868
0.914135045626743
1.0412082325876
0.933359511705012
1.10082600088442
0.97956406808598
1.05989730184681
0.957211527163258
1.02043271558021
1.03416902468083
1.0490294336924
0.981647915655173
1.10482183670549
0.976138949713398
1.07091137691884
0.9634136768837
1.11139131673904
1.01585911783226
1.03435157506965
0.963620464088199
1.05007191928088
1.06643007297875
1.10020507495149
0.978923836424842
1.03637629484893
0.981635228536386
1.12916330975569
0.996185445147476
1.11566649543534
1.01093998597114
1.0742001744031
1.0108570845514
1.14853033130328
1.08042135179874
1.06167515279341
1.08222223459363
1.22710711848224
1.04912981381673
1.17431752358424
1.05867179029008
1.11750553451554
1.12126959600189
1.14912843194294
1.0363709278716
1.233040333708
1.1175467579062
1.14439551624389
1.09362346784623
1.21732791836669
1.17934802580747
1.1790199707074
1.09608763669624
1.22820903673081
1.0457199281783
1.18780340690639
1.09077568610745
1.2095747671511
1.11092737990523
1.26248374689916
1.12558249734675
1.1899284569493
1.15168236158693
1.23304417235257
1.12958570359684
1.22285488962123
1.2341698423062
1.24355360145922
1.0999363623874
1.28226664074481
1.09123710532853
1.3373868793829
1.0518137100388
1.28228650051752
1.12335196962664
1.24951940296821
1.08840732653603
1.30344211323778
1.21920573866007
1.30880484487893
1.10689657498385
1.3612752747055
1.15198482883733
1.32777234175333
1.23076284376701
1.21502714038042
1.17927663096899
1.2319822115002
1.21362340895586
1.31550650960736
1.21052281829059
1.2405526545488
1.10073111033279
1.22583919247333
1.19050650749635
1.31600498110678
1.14925292371868
1.32470932809455
1.15714544049069
1.274681689217
1.19956926603598
1.30515728968035
1.26499704556662
1.35355151498776
1.29217543104498
1.28418952879809
1.22546495625018
1.38262777379859
1.17045925078788
1.27765883743937
1.22066707109351
1.37888939836878
1.22314324813566
1.28227184869643
1.22193949690836
1.31166739487851
1.13868828234804
1.35633349088619
1.21444122094318
1.20325241524057
1.16898493484493
1.32775505749011
1.30746466903226
1.33557886530877
1.16090494576175
1.38598016629788
1.24024879554516
1.21357045065029
1.23679324032463
1.39455750976894
1.24509300931343
1.37164592575812
1.20200747727333
1.34764065203085
1.19302322304111
1.23334793976654
1.22292105485357
1.28781213839411
1.20009085060967
1.41900405494979
1.21337288733167
1.25312257126273
1.14888542802869
1.24498146843214
1.32746584297111
1.20657560223018
1.23784735910661
1.39569436203615
1.18300092035908
1.35164703666903
1.17642663269628
1.40843120929568
1.25744515484968
1.28862581265486
1.23854094425768
1.41605974613301
1.14822861491471
1.27909722316725
1.32208535096535
1.33226141780897
1.19783478412956
1.32835249502865
1.21418172447193
1.30759979490744
1.27363616200129
1.25975231544019
1.20327445957629
1.30011572492577
1.17666227879598
1.23348298039443
1.23824070547499
1.19637669759468
1.14557901917411
1.25637826627609
1.19007524867739
1.23484151441345
1.19702470896709
1.347317922105
1.17126393197624
1.33436272559995
1.17201404056945
1.41417718874947
1.18186594415602
1.24583746798006
1.19455990045853
1.24092139711632
1.23457466733115
1.22370065089393
1.1925512575435
1.22495303525235
1.16105877439789
1.2945658502143
1.17229787906902
1.23584257696793
1.17858874651393
1.21335214566461
1.19544989293335
1.26791503526964
1.10859906570106
1.2199374369585
1.18062925284461
1.21493859894902
1.14831453654528
1.26833420051684
1.10017766630909
1.31727311245122
1.15583011832316
1.17951472019093
1.17054113866298
1.20678732708854
1.0627998351592
1.14159613828479
1.15585457173563
1.2343549388016
1.09641635193385
1.17538093134164
1.1063720898457
1.185724343876
1.10870180809415
1.14853703211933
1.11491816009408
1.18875700884445
1.16719289281382
1.12591421510308
1.10595735067838
1.09345417338035
1.10543685025138
1.14999879131083
1.0837145026773
1.11101218431084
1.08341961997743
1.12455926615411
1.10307632357641
1.1188423102417
1.04510091586326
1.08137110420263
1.03491238620001
1.12666763599296
1.07652100395411
1.08629870313416
1.05246974076389
1.09077538542196
1.03939345459812
1.06148511579577
1.03705926143424
1.08004000878448
1.02668601338741
1.10481120846916
1.03444448529379
1.05484368568428
0.994518323136073
1.00756986898892
1.02757970207791
1.0484498413156
1.01506873641251
1.07010369439139
1.0331594661636
1.0308617956648
0.97138022502781
1.00987215922686
0.969742651768021
1.00384771440103
0.995790292086253
1.06883411588317
0.959896071235847
1.0291251476953
0.962585821070929
1.03488546079293
0.972373044395212
1.00233136578539
0.935318054048088
0.966398880763043
0.907222022675867
0.954268111000912
0.940175118409789
0.945256432114286
0.941243438118219
0.946974799470754
0.908241787839038
0.928167809757346
0.89230228336875
0.940166143847385
0.896448956659188
0.946115744741902
0.891716368360053
0.939734578819475
0.858311554205523
0.905192982927789
0.865613989121114
0.902508846751659
0.870908392035949
0.885317809531513
0.863724214584232
0.882922010971928
0.850141706661417
0.856888752671349
0.849027995836151
0.875998409307809
0.811118341152086
0.842597813537572
0.844821852927973
0.843417608514155
0.835625311357708
0.832418492579925
0.8099341237356
0.84336576957645
0.810505317379254
0.813118637605892
0.784311418499601
0.797490222027788
0.77988599860037
0.82192823937769
0.763954147553403
0.808607931981898
0.786764212766254
0.778458247142479
0.746823283066419
0.798104504760001
0.775935210959214
0.784347913257281
0.747166584002244
0.767024948126854
0.756099367349475
0.741451883644226
0.728831308614932
0.728654616269829
0.711842043811907
0.720876676212963
0.718607471016707
0.748372970772131
0.71737651891265
0.722059037538344
0.714020222905856
0.72398757387486
0.691365599892149
0.720858828205876
0.688052898536101
0.682669034352942
0.665556268702252
0.711152652750299
0.682525174348565
0.695410540226247
0.679673621679431
0.692831548544041
0.658910797929578
0.667847596763352
0.631146980965244
0.658267029089083
0.633186567242147
0.660104636813618
0.658478770169629
0.662780417599704
0.644325016862676
0.654040575651061
0.634326527072075
0.65180557399191
0.615487122862813
0.632636375404855
0.617411192768896
0.614997323122013
0.605130279818121
0.614232717132695
0.589201007027695
0.618667554092772
0.599421057979927
0.60363715189714
0.575182049136628
0.599825425583476
0.583089839256245
0.596187181352932
0.579574637451565
0.582428497126049
0.562138727013333
0.580642083103671
0.574358513716334
0.572079870599672
0.568972764356817
0.567142249579671
0.55208027439792
0.573172033203972
0.550703724684107
0.566852459867994
0.546033962406806
0.5390663343705
0.551094540413778
0.541307057253341
0.532196390082828
0.539481108309323
0.514236505546112
0.535741302114502
0.522121879046756
0.521789965214175
0.52433854231569
0.519178149858143
0.511453100171059
0.513499498091793
0.503076132357284
0.507628475473646
0.495689486376466
0.496004703828811
0.49017554861179
0.507297191726645
0.485955534368029
0.488104038686216
0.484222057109856
0.491434788602079
0.474067716642158
0.486734768263218
0.472610894553345
0.472533900566071
0.462427897526138
0.477132876515138
0.466826830731157
0.461937495604066
0.462851053936269
0.472492698555581
0.4606223070899
0.457653750217685
0.442044977005123
0.446721625119758
0.436179927474422
0.448795503252361
0.441558898579134
0.439325783484978
0.4213373438379
0.42957394453844
0.422303188856952
0.432799251095699
0.417648098401507
0.428737341449843
0.425483213054267
0.426491643560219
0.413242887979669
0.425321169009548
0.418504066899982
0.421168399945002
0.408742382403035
0.402683033479516
0.409638046656137
0.409361858706369
0.401046522057781
0.408314478939528
0.390539367282175
0.395039291213896
0.393222488506001
0.396407094475843
0.382174909967453
0.393468847949855
0.375175823643461
0.381117429441083
0.381828683266049
0.379289322941015
0.370450004657162
0.37572216072819
0.37163968515296
0.37092571638102
0.374969570061388
0.381016826501385
0.372767785522122
0.365009417691932
0.363380203332231
0.378532007148111
0.358830726353341
0.376396496833189
0.362523506602443
0.368039676384348
0.360768709434734
0.365888442999843
0.362019453560448
0.358241634883814
0.351455546023688
0.365732991030283
0.354185852153673
0.36930735114526
0.355031538538526
0.366434256394213
0.351707026817132
0.363940064513492
0.360222595102677
0.367138870937337
0.357802741473111
0.35541786482725
0.357408275862465
0.36208113063921
0.358607119812261
0.374956827967883
0.358219904508333
0.372256067297458
0.369015609376251
0.37059465555433
0.373086329832236
0.377425588743687
0.368781126632732
0.385411087855009
0.37551044067148
0.39253243833179
0.381958973106769
0.394560767911425
0.383417307446382
0.388175224384023
0.402376800178885
0.395169894113492
0.394826304306184
0.412643441757728
0.392594158895931
0.40566495680721
0.405759311463017
0.411052779725155
0.407910276524269
0.413067340777077
0.403939126389124
0.417129125960572
0.41429703982363
0.42406382173642
0.417650816156474
0.423447358662714
0.427183293391153
0.443898409054692
0.430615614666151
0.443622911566433
0.442905618846654
0.461348315751881
0.45668712129491
0.460148900239019
0.450559229892025
0.470471251510578
0.451623972036186
0.464275831706428
0.478087586555739
0.484856757194871
0.475691232799537
0.480897009339917
0.48493462950565
0.491268376498861
0.49728134953617
0.507793689013952
0.496308581863376
0.511690623487725
0.495478204272683
0.500859566127512
0.496833153383478
0.511708796011681
0.501556632670813
0.509968807347514
0.489861070694033
0.515217138528013
0.498439058213329
0.511687014949191
0.519086915729209
0.517283600329023
0.506818859356158
0.51092241923258
0.506054008415598
0.50963985477596
0.504188098855305
0.506467793971792
0.497824285742401
0.509905834453621
0.494734454750263
0.511483547695807
0.492871103559409
0.511352151606969
0.499257196450194
0.511950956970848
0.503399284267422
0.513789187866323
0.504629122944612
0.510017543620449
0.501275877693507
0.515239493033054
0.499966839138041
0.499971802095109
0.498389647231678
0.511991309622281
0.49637813224733
0.510738383433068
0.50915214172661
0.511654399323096
0.515246065556644
0.504025988099376
0.5039751523963
0.52007400032694
0.503203143937797
0.514564145711566
0.502764710925606
0.514157273330805
0.507568207453988
0.508048956895209
0.506482408460518
0.515098276520647
0.496744524481432
0.505003983917975
0.50212743024069
0.51054072545148
0.49414760998057
0.497547273293441
0.494319451674151
0.498856148000849
0.496474038703274
0.490911551452296
0.480939444426178
0.500628801520977
0.488256222775579
0.493859663228395
0.485267780219426
0.485037585403156
0.481584573132727
0.47641458165717
0.473238106621873
0.476025571701952
0.463872948535166
0.467975437290329
0.456856974722227
0.465055049612591
0.441964766520841
0.452316862591993
0.454462062498372
0.442248734781399
0.432526190927933
0.433225611637716
0.423945202289169
0.437012226627721
0.42332114637966
0.42136337951875
0.419495642138258
0.417372800062455
0.404930441473694
0.416243842440397
0.401778521109139
0.408300123862419
0.400844443534596
0.394437487404069
0.386166806072285
0.390825995461108
0.380954351459811
0.384302195391965
0.378360434284932
0.38697147719219
0.375894444081665
0.373807206868086
0.371131132138936
0.370163879702445
0.363413166540465
0.359371427359431
0.35358914770758
0.359955968156834
0.35428524224903
0.351606481165247
0.351020754278179
0.345219976534696
0.339194695727277
0.344745850397477
0.343311003968944
0.338338046901126
0.336190852669318
0.342535567310662
0.334098501085731
0.334113278593623
0.328223446730076
0.336501657989608
0.323561759061918
0.333824553684567
0.325153949812622
0.327619898039731
0.317358468494353
0.323180341006813
0.320631388738408
0.315941700549997
0.310738089638132
0.313756196711611
0.308587425523575
0.311690289377063
0.302762569586762
0.312492021473762
0.304896347152469
0.301429576928437
0.304349253651044
0.297705051063655
0.30074934744488
0.298444604596162
0.293770848356692
0.295876298671686
0.293392723304416
0.300860770413848
0.296527885430114
0.288827681476308
0.288771927030416
0.286427503711401
0.287523692886587
0.288807677387953
0.286646969254813
0.281392588490847
0.275486959188828
0.281809478404194
0.277463456915463
0.281899926139195
0.272932234047788
0.282929269099544
0.269171991417293
0.272242644177435
0.275205990494959
0.272043371604797
0.272050870599909
0.26872544257382
0.271701661350953
0.273755624994558
0.272626895381345
0.267054633219175
0.266945495226769
0.26822865557318
0.265275967461826
0.263575767436454
0.265132611366777
0.265698014072606
0.263049928969563
0.263916506752898
0.255151931505115
0.257273169832616
0.260249164269593
0.259274245281394
0.255162594438642
0.250791262850777
0.25544736135946
0.258883361215114
0.24774741925523
0.250267005800469
0.250782912806797
0.249061167750337
0.256413854534334
0.254655561543981
0.251139088829975
0.244948729217283
0.248338285173973
0.248889592047784
0.244505750328967
0.246547521675933
0.250613037109065
0.243086919203928
0.250316122894267
0.245982019553206
0.245134369902586
0.247916729074339
0.239576602381515
0.244725556026896
0.24231962099332
0.243641309698835
0.239555365854756
0.245868312701935
0.236191832756751
0.240702157234662
0.239295286239806
0.241123620287762
0.238845055047014
0.240277422853608
0.236095901714446
0.237465887392808
0.240792554206364
0.242944027580766
0.239253130168735
0.239682374684004
0.234699831115815
0.23268200968159
0.233517073114974
0.230495905519261
0.233521242960517
0.236543879638071
0.23010109824426
0.228774042876958
0.225982877884252
0.234099548623353
0.232395805115808
0.228759012949792
0.227019581692827
0.228799439157929
0.230848664360327
0.227826502804414
0.228940329529052
0.226339795409034
0.225914034921087
0.228448067558694
0.224365592829298
0.225527523236477
0.221717656686068
0.222995566407594
0.223348490903858
0.224720648814398
0.219873129812079
0.219306742705401
0.218561755806552
0.218154976349058
0.215969385700844
0.219005721873388
0.213019699749407
0.219285475746542
0.220383935416253
0.219611229389383
0.211914570062118
0.2105789920195
0.21398834546199
0.216225072438251
0.211014233671446
0.215847521535545
0.211725729443381
0.21193975057457
0.20207668035161
0.210400589521349
0.208211452961698
0.206467795564513
0.205846355470976
0.207373849732337
0.201438088407137
0.20330797981495
0.201917876213478
0.202214456873411
0.193298002682938
0.19799138517698
0.200807094092856
0.203727977177652
0.200701187270723
0.19632496362919
0.196818233317037
0.197979359185443
0.191934154672597
0.194625730067239
0.194059431292941
0.190205288457759
0.192495541049572
0.192139238415358
0.184297527210038
0.19341698150789
0.190003001046984
0.192305160617384
0.187225692716724
0.187024782899612
0.183007781900588
0.185660780095659
0.183811662287041
0.180183330705769
0.183231940587152
0.179514530259819
0.178481464714719
0.180066595656473
0.177456859389174
0.178959284092847
0.178971044640368
0.173150912507781
0.172558508231459
0.176183581696187
0.173930034905893
0.179221064711631
0.173366957700815
0.175098069370044
0.168477193705898
0.171336750457865
0.167184467913222
0.171802290159796
0.168023618128996
0.164006322084867
0.164139940521434
0.164361562517888
0.162174370239892
0.158939615132252
0.156790729770337
0.16481033381108
0.158838070314796
0.16114148763526
0.156503281021007
0.156218320068748
0.160987871377546
0.159903431984793
0.153244078735937
0.1580458594927
0.157361342866352
0.15470693385362
0.155215161609363
0.153024050611753
0.149303606272041
0.156298915885322
0.151386938159561
0.152163260209214
0.146720230771823
0.147425862147524
0.14781673522009
0.151167422360632
0.149306401245688
0.147313036319456
0.146058351612339
0.144583107288676
0.145596614310661
0.141560270085898
0.141917010239034
0.140132478929639
0.140247252606553
0.143519574701418
0.139174898001921
0.144254895029535
0.139519548819406
0.140074769385298
0.138315858816413
0.139753000722383
0.138344138226113
0.140394428623861
0.136886491635872
0.138740518327292
0.134470752733898
0.138766799406607
0.140539834758383
0.134648225257559
0.134484769167532
0.134766553810954
0.130429075175805
0.132835099247467
0.131034695488969
0.134683070083599
0.132931327962088
0.137362253769233
0.131405256932347
0.130298437890763
0.131483299711098
0.128652812443276
0.130552811723184
0.131460930519201
0.129546783465243
0.131284829922367
0.129561530398482
0.129442761577498
0.127876929973634
0.130646304806785
0.127826395983624
0.126570996293376
0.119394721189723
0.127454816620489
0.127568242226165
0.126216185168668
0.123161953117862
0.12429783866441
0.123432817833724
0.124308791078642
0.12434872559613
0.127486007057018
0.121370680097912
0.123423203952903
0.123086659787285
0.126246287221936
0.124168755430625
0.122994417428315
0.121963477978944
0.125147996771356
0.121037752484814
0.12365980364268
0.120932253077032
0.119473814638092
0.116738686008752
0.123081836839658
0.118204490693377
0.119229875772344
0.114692148275172
0.117423272466906
0.118326340514241
0.120695546806464
0.115310738351085
0.116215590691666
0.115947201726116
0.116642769421334
0.114880084186745
0.118168287017698
0.114536796600711
0.118153036550067
0.114398049935349
0.115913234671514
0.117980356737876
0.116800493656054
0.11585094913605
0.116516031799049
0.115447206219303
0.114511805698231
0.10904414834179
0.109277880493628
0.110436079195373
0.114129759905202
0.110169398901383
0.110900221166521
0.107992805865474
0.109775565068365
0.106055663103151
0.106672456776521
0.112002091259283
0.11179526562822
0.107331056813067
0.114402492383228
0.108991968188121
0.109899484624623
0.108833830319648
0.109786346634071
0.108156740419415
0.108537671085808
0.108962762235192
0.111544332137209
0.107564722507354
0.106828911526012
0.105061275735493
0.108729635202387
0.107727237577457
0.107653542289005
0.106960088712418
0.10629676512538
0.106257628514292
0.107805194390112
0.102449087835468
0.104898252674425
0.105989928114306
0.104042632339605
0.102489047602927
0.10476440925066
0.101579893969765
0.101433846913636
0.103730165347405
0.101608354359446
0.0995369811452191
0.103428031114943
0.0995931986575078
0.100094966065417
0.0985557845611159
0.0994839966231138
0.0972877561691273
0.0954655423737921
0.0955149267840576
0.0993328914859945
0.0920889943628469
0.096890570210754
0.0954076293311239
0.0970226533461563
0.096635478294505
0.0973418638825184
0.0959568415097865
0.0942335456790062
0.0934341743954052
0.0936118623605227
0.0908045699300222
0.0916086283394663
0.0908400439181678
0.0923760524058566
0.0908417244180887
0.0894665349413389
0.0875214740372236
0.0941152436294879
0.0903184310006288
0.0884548933508751
0.091082506574433
0.0905727419272615
0.0871794345509811
0.0885269341546663
0.0877767827485869
0.0850680447072517
0.0849652178937545
0.0844381201530778
0.0864311064506331
0.0866555438582648
0.0839927676359402
0.0865642560375113
0.0865665561716507
0.0844060253093112
0.0833494680147652
0.0843659839996547
0.0824300960369038
0.0820913380090344
0.0842618765614397
0.085041732386025
0.0821807264101967
0.0821743522014821
0.0833835296485718
0.0801195741273932
0.0786011357319916
0.0802784017743437
0.0797432740268062
0.0801870655457648
0.0796193307532813
0.0796110705302649
0.0782276521058032
0.080365444145506
0.0777099988420352
0.0753623458959692
0.0779898364472973
0.0784837979262089
0.0748353919770692
0.0797009837827724
0.0757795846833537
0.0769178857087379
0.0748561117840024
0.0738929034196478
0.075289561963696
0.0754898048053253
0.0725980152687179
0.0739181505541689
0.0719271052274162
0.0720206749710969
0.0736903842132353
0.0734929245780712
0.0740709990507679
0.0741979950008017
0.0720000306440885
0.0720497005326581
0.0700987376911825
0.0705504037504823
0.0714753604232604
0.0721901559578255
0.0707208473497275
0.0718760824698095
0.0703588073216361
0.0687607735345241
0.0687346341175148
0.0721377365833573
0.0721554307234212
0.0692074045400903
0.0692754433570507
0.0709771630633129
0.06808493219873
0.0699754065520374
0.0673592915993704
0.0668060424256565
0.066387670625512
0.0668451522217258
0.0687219288804132
0.0662120622737166
0.0669425202111551
0.0683519336165658
0.0661939378171518
0.066673140947178
0.069805141106769
0.0686965891379243
0.0647856283076181
0.0690991818983332
0.0641925101251841
0.0683023202763616
0.0656361501991882
0.0658446040501797
0.0677228671274632
0.0657951294221084
0.0631417434673223
0.0664131530392111
0.0659113658715312
0.0677907403414345
0.0646858963437735
0.0673402913422155
0.0622806171175115
0.0648775726918433
0.0617301000488171
0.0686426439917994
0.0628213459812373
0.0649117607279437
0.0645264522823725
0.0632613641588535
0.0628726095644197
0.0687738828523399
0.0623163495634703
0.0714601657472749
0.0618653342436521
0.065771461468532
0.0631854009265278
0.0648419968437435
0.0582080380749211
0.0625479657479019
0.0634729493274964
0.060589242056467
0.0582692676741691
0.0644998648860895
0.0590356102788696
0.0618222308288046
0.0669500835472245
0.0666924205933391
0.0583198728602011
0.0672059417781266
0.0686940192734669
0.0706623985118534
0.0667457348272966
0.0734273784387902
0.0670243436052792
0.0737484168267843
0.0658860926178896
0.070843832764581
0.0581765723292327
0.0690738445914129
0.0608580775702133
0.0679261540772217
0.0568022515534238
0.0690519171957898
0.0581155738938396
0.0639467937958104
0.0564609761161957
0.0664792859023684
0.0523622739938482
0.0634121164111237
0.0568811533113382
0.0613281129250491
0.0596337503526133
0.0605131029847764
0.0565706740373544
0.0611543332419412
0.0600413638739668
0.0562789505620623
0.0574918681509667
0.0533740163007268
0.0587516417422151
0.0553569571651543
0.0630449594120212
0.0562542073186956
0.0564633799919136
0.0549312214181766
0.0596542520149257
0.0556582015337777
0.057788210872267
0.0599639401717115
0.0548393112370036
0.0578387643039884
0.0583769014163137
0.0587718429591913
0.0594974196700711
0.0575463953724674
0.0601560031612714
0.0556842182772075
0.0555921633741743
0.0556814818111653
0.0595720887656092
0.0578234724764842
0.0556967497775761
0.0560042417926209
0.0543913973889178
0.0577511115124888
0.0565944310202721
0.0566563176185517
0.0587065863799098
0.0584949589732078
0.0581528555046171
0.057657900864618
0.0568701202969346
0.0572761568948182
0.0557693769374123
0.0570963293234488
0.057648747914431
0.0568669474387719
0.057396632184481
0.0560888988456017
0.057409620746791
0.0546456779140242
0.0551337467757471
0.0594685203362435
0.0580259493346465
0.0578290415361897
0.0571863379551476
0.0589302699368126
0.059304177115938
0.0564827101096725
0.0558029131098697
0.0528079619984986
0.0562432330218501
0.0596116108667328
0.0567841585048652
0.0602078519128075
0.0564462052587286
0.0547551259350639
0.0564301646737493
0.0557768832917932
0.058158663304732
0.0580752093773269
0.0574120866689253
0.0573683099640763
0.0574377403443773
0.0566409905158404
0.0556436546003362
0.0568841197599939
0.057739288132439
0.0579402646959069
0.0568639347155233
0.0582542527577306
0.0597966098402201
0.0575793345337295
0.0567004007093978
0.0563088855885164
0.05764648153425
0.0569902258702362
0.055542808727318
0.0573528813008378
0.0596378733972538
0.0589663096072106
0.059259998886431
0.0572936776384919
0.0561441364682644
0.0569838040043365
0.0592132747124855
0.0596933021273002
0.0570209260543744
0.0578514050950203
0.0606512357103997
0.0584835782738595
0.0586747724250496
0.0589607984623034
0.0611137388118942
0.0591662680791306
0.0582783801721335
0.0589404944700969
0.0585134777008268
0.0583395384582787
0.0584721737623956
0.0587696049316053
0.0569072123078861
0.0584778654227481
0.0580926818655584
0.057061954097119
0.0597629379294609
0.0598649696924682
0.0591938724281337
0.0598479435448502
0.0605729253972969
0.0596145048383895
0.0588455683600523
0.0625593757910011
0.0594508168582425
0.0607901740590253
0.0644238082913767
0.0606927449316612
0.0602250063354922
0.0587907885777905
0.0591999095317526
0.0606638418787674
0.0601953202849264
0.0594665642719137
0.0612673857111839
0.0596227023051303
0.0616461074068472
0.0614760825647243
0.0590018824701579
0.0627537079425444
0.0612766746027708
0.0622446801173266
0.0622989938091332
0.061515459945658
0.0616434992039922
0.0578532415866527
0.0607837672282441
0.0637175318586756
0.0606259818170651
0.0600513255486708
0.0602093372433835
0.0609807648539441
0.0623324448378054
0.0607941261277654
0.062350600764471
0.0613360286019948
0.0616338900284117
0.0649073529360184
0.0612167666977832
0.0632217614294568
0.0666135368244935
0.0614046018817864
0.0623901094482772
0.0633239127580398
0.0648717961188427
0.0646582181500155
0.0624946335412518
0.0636323740588739
0.0628362074348509
0.0628363055071347
0.0631008928453078
0.0628031468127714
0.0645579654187758
0.065167096144017
0.0646050278917853
0.0643801562403524
0.063312604206694
0.062666898884747
0.0658570022140842
0.0651322831069429
0.0622387734152557
0.0639427635336118
0.0638583280258749
0.065211404462581
0.066294879862331
0.0669328276837625
0.0617463897668714
0.0634103306607139
0.0674225317540529
0.0640272581795642
0.0634343411125176
0.0630137530584733
0.0633760921458277
0.0626777943920176
0.0655977484868037
0.06539723451547
0.0636333063273627
0.0627041601866126
0.0630981644287667
0.064170181080777
0.0625760947249803
0.0643710788488492
0.0649782655675687
0.0630588722418698
0.0620694424361463
0.0622967505148034
0.0625604560158112
0.0618136688662399
0.060234071372718
0.0614806150821514
0.0608442192889498
0.0614225173452262
0.062208646722981
0.0640174950180931
0.060769620249912
0.0591143115454458
0.0600251742791525
0.0611737682313017
0.0601365685575998
0.0598073925098563
0.0605818548886734
0.0620875770290087
0.0622006985155916
0.0600740982805007
0.0604616673367574
0.0608716809969009
0.0608437709446335
0.0609117051702046
0.0602871363794018
0.0577247931848393
0.0577836743419594
0.060418351008662
0.060276225303481
0.0614381648624332
0.0587599218767491
0.0575875931366662
0.0573455098273777
0.0583178049671194
0.0575386259201386
0.0599562852829575
0.0598157442289666
0.0571933570340358
0.0593571117639857
0.0595581332070745
0.0580288383453677
0.0570317990689488
0.0572790672144161
0.0598413961116113
0.0592356791089261
0.0573048581157331
0.0578566875751285
0.0589186728576228
0.0585221471523777
0.0590618232592928
0.0596203339438329
0.0590545049711277
0.0571147032749037
0.0584671867496654
0.0585278572252371
0.0573898785261968
0.0574755511853721
0.0563571321031059
0.056802605015434
0.0576303976926314
0.0591990001786362
0.0589138814120592
0.0578731918229153
0.0590697582630931
0.0601017250074845
0.0575425008177564
0.0562549366296845
0.0554383927755645
0.0570013059002321
0.0570905587347749
0.056167768998384
0.0553943082009033
0.0561452013311833
0.0580161031493054
0.0571274095869825
0.0568133788101111
0.0572640583285216
0.0551670503548184
0.0536884926617933
0.0559005345170799
0.0553504356772494
0.0581924111558307
0.0559976572562759
0.0574078586537694
0.0573428790661449
0.0556825365399621
0.055063847035741
0.0556998014284165
0.0554902509556766
0.054190362389281
0.0548593811461765
0.0587409736676178
0.0549964395585953
0.0546609586909453
0.0560132891298125
0.0549163799404384
0.0547440163743721
0.055143987707012
0.0540056308672489
0.0552136118845992
0.05441036743703
0.0549352959847236
0.0553414784926822
0.0523940294863182
0.0539972602747289
0.0568941765348156
0.0549672248874826
0.0536785660334105
0.0530734997694721
0.0527809369528093
0.0515851239548294
0.0529684994789452
0.0522933742534883
0.0519734826064057
0.0523502143509423
0.0526257334968262
0.0527912548558124
0.0519190459632604
0.0513420201004943
0.0511155234258007
0.0512194714633681
0.0534387349312128
0.0518472589402828
0.0514193331361749
0.0516775785802038
0.0511086885053517
0.0508059785553996
0.0492462696455377
0.0498872226384448
0.0505980325195407
0.0480425790483855
0.0470257429987895
0.046522053050664
0.0478947474137791
0.0484744667081431
0.0480180436754843
0.0493475774229784
0.0497809874879398
0.0499271738159402
0.0484792149158294
0.0461310353009026
0.0480766017646069
0.0474906499463622
0.0475310738271489
0.0473751305692287
0.0457946139693573
0.0468459625431645
0.0490388406783821
0.0451362836950903
0.0468793809682254
0.0447457775222819
0.0440735681642494
0.0455044651111229
0.0472084236416162
0.046450285236664
0.0463405240507009
0.0468400351835658
0.0458288709505368
0.044771982366286
0.045955108014587
0.0465762726593285
0.0467647975570713
0.0442640238642856
0.0440219399062041
0.046038695628675
0.0474823157587781
0.0442912796847159
0.0439394485134604
0.0454929969367616
0.0438153595680567
0.0438422304005812
0.0449199200172611
0.0449622124953236
0.0457544228990062
0.0457637194378501
0.0440522197766545
0.0436929005761901
0.0457036500440202
0.044066054211122
0.0460044802483094
0.0437088350533463
0.042404018296385
0.0447312994399447
0.0465479634267863
0.042932902636422
0.0449020314702811
0.0458678521406562
0.0434510843686399
0.0430331315285513
0.0427783897582789
0.0444828543886533
0.0419299404836042
0.040488896933715
0.0452899750688059
0.0426817634836494
0.0412777638088567
0.0414616444477724
0.0414993965699415
0.0431268360966146
0.0430136016429565
0.0427211597321009
0.0433324910153149
0.0406902663911935
0.0416366789207801
0.0447155999840326
0.0401971665157626
0.0395425767214788
0.0384203390332788
0.0426018650812491
0.0431220833360492
0.0394327474097979
0.0423831683183287
0.0437947658697172
0.042073448007699
0.0427407667415795
0.041002858480268
0.0406807410305905
0.0400464426404478
0.0412060104648499
0.0402744995126195
0.0392718663079202
0.0398107006468902
0.0422132133043014
0.0411396664313399
0.0395338393857031
0.0406883376426754
0.0389933675007446
0.039606905550039
0.042703996433
0.0395551052410305
0.0403594998307858
0.0404599626868892
0.0398099688981231
0.0406528251364622
0.0399712002353474
0.0415417914032787
0.0396238741140781
0.040539680270697
0.0415074059793711
0.0420093564551121
0.0412945219269188
0.0423842885680901
0.0403729142663004
0.0408545271146231
0.0407386602985387
0.0406767378258844
0.0421361906259914
0.0422851733436761
0.0413329272256259
0.0405533086272353
0.0390345875659912
0.0404439872563807
0.0407321587294686
0.0400857726537386
0.0404320055196617
0.0420413814901015
0.0367291853302062
0.0418159536095917
0.0416567368079926
0.0398509313797675
0.0422551176757474
0.0425056826061175
0.0389854282167919
0.0410838501785524
0.0402602736720028
0.0427737917526898
0.0417194988897074
0.039491383951965
0.0397026695552263
0.0398468599599521
0.0390345017653233
0.0410801435259121
0.0398221624145984
0.0401971721077745
0.0398334108368626
0.0398662673546829
0.0403571402223269
0.0415789883262459
0.0420673762789932
0.0399964632413213
0.0408027339015375
0.0391603430637162
0.0358150647720475
0.0414319853106798
0.0396245439472876
0.0401925039858542
0.0405149208627373
0.0412467601423656
0.0397523388623421
0.0414119932407409
0.0398225255542519
0.0413644444215843
0.0419506636266915
0.042169537060842
0.0400418622527462
0.0416654089021682
0.0412064331423548
0.0411782399314533
0.0394325713805599
0.0417745084892386
0.0402591720222922
0.0406201493464803
0.0387429448763461
0.0432406004181208
0.0397725632912799
0.0422369500535948
0.0404574739523665
0.0412494968546889
0.0395808244281309
0.0417504918934107
0.042801798982692
0.0384676146597842
0.041838070983339
0.0426502176726541
0.0411257668251253
0.0397097884785805
0.0417757085276484
0.040396995979933
0.040571268205368
0.0409024959055263
0.04173766138581
0.0440306604130163
0.0435182259860349
0.042578265742566
0.0423311173012109
0.0410325767710871
0.0407759070762587
0.0432309721300029
0.0439812808869577
0.0409732788485729
0.045176494000306
0.0460916862969349
0.0439992282782283
0.0442566488054093
0.0412759215599964
0.0404023478475902
0.0420993055652526
0.0428675453063422
0.0410748583273353
0.0446877467062464
0.0450531873617012
0.0443110164796329
0.0435583604321137
0.0443039750217081
0.0463576653815277
0.0439395270018885
0.0430140060928924
0.0455434471638986
0.0449455184854399
0.0438967074333336
0.0446701580346703
0.0477577975229695
0.0461889981534895
0.044396268202846
0.0430001852076168
0.0462745554278188
0.0467066309669439
0.045936099517131
0.0471631148246662
0.0473183442847129
0.0459543030467492
0.047054849809294
0.0478694790043577
0.0467714969842393
0.0432760208426006
0.0502683043710279
0.0467100044033967
0.0498825175475124
0.0479426775885871
0.0493866277918739
0.0476052150175929
0.0508367555015123
0.0483734326970673
0.0496081747573172
0.0495416749491268
0.0511231745111876
0.0477370498167573
0.0507417074790423
0.0522883560164855
0.0494400114516878
0.052298402149682
0.0522609885320658
0.0504890258122558
0.0492151582470388
0.0511265492396575
0.0496070246926872
0.0547556457528813
0.0547536025759142
0.05341523643285
0.0530448626238371
0.0517306773674528
0.055442020984979
0.0509567539266172
0.053906152446066
0.0534076322618709
0.0545406990846214
0.0572951621491837
0.0548968181955651
0.0559839018544473
0.0558723721813973
0.054314314278749
0.0578899103990857
0.055050049723659
0.0557197445984233
0.0556534896784171
0.0563048439555823
0.0577592971616402
0.0596484664797835
0.0569938191155043
0.0627815172263989
0.0638545427254374
0.0609132276336132
0.0670867613544297
0.0643729456139363
0.0640475905680512
0.0609035806582232
0.0645787400389738
0.0651612057067039
0.0685829302381485
0.0659901622620808
0.0663891728567023
0.0683689065218254
0.068393893952309
0.0697451738346815
0.0741421384958252
0.0690457704628646
0.0711495314757262
0.0739996987694523
0.0789168122522365
0.0776942593865098
0.0772632050410896
0.0797054559416733
0.0857828494230201
0.08128367530723
0.0815155209117037
0.0850139031180618
0.0833059333783441
0.0851595100202418
0.0864011687572208
0.0886362458249665
0.0888603553343091
0.0893135913009733
0.0910544102653877
0.0883645519071702
0.0947410541711217
0.0966997681216197
0.100840430495749
0.0940629335687595
0.0985150860285668
0.101278955216874
0.0985790908290482
0.100035949152054
0.101314663238763
0.102823696111262
0.10341716090999
0.106770214383747
0.104440467540993
0.106251295925353
0.113573678648113
0.111470874733913
0.121714467867669
0.115576144749785
0.120720711787902
0.116565432356153
0.137704132461806
0.127459638433741
0.129984173648231
0.137233302847439
0.131877470320279
0.153845749286918
0.149067319635172
0.155106146880183
0.160873601887122
0.158992514447718
0.164618940011563
0.169307220528055
0.171257116085657
0.179292396279583
0.185826053092947
0.19160121126809
0.189352771367936
0.203020259461034
0.213942359522806
0.217488907730688
0.212557105614466
0.223424122596678
0.234093252332706
0.236852140594709
0.240683838281986
0.250204160994908
0.252612411215444
0.274520943782119
0.264072505600381
0.269996668160821
0.275086720347372
0.291858755039358
0.288712909043053
0.300750168648203
0.309908042491978
0.307821971401412
0.315870074326832
0.318056597028967
0.32834423668309
0.329166163958901
0.346225221208833
0.353676120288031
0.350595601548489
0.352634221649883
0.357689238016913
0.364474208407684
0.367021657153494
0.37217987595741
0.368217355012192
0.38005751580951
0.385450382272129
0.40760592597176
0.384107608618652
0.376465853320161
0.386746036370573
0.381170615137725
0.3906111451599
0.396598713491333
0.406322615925666
0.403505883682235
0.391682961509925
0.396124440528153
0.397088518006489
0.395618412902955
0.396558453387606
0.397970135159312
0.392926038135874
0.39825814958857
0.388206444651066
0.389452249831719
0.403104487980363
0.39243314621753
0.397190173857525
0.389300967011121
0.390725941767524
0.385546837829398
0.385841900525957
0.387789587192667
0.391179797150127
0.383070351830622
0.383583467236275
0.380469054510707
0.381317738356556
0.387573081435573
0.371470287935513
0.370468406113404
0.368076359091872
0.358534643833972
0.359761278657601
0.364452578064393
0.36805828016663
0.35666545384353
0.353224158919187
0.350815895664064
0.349967706132885
0.35139937801429
0.350266480492943
0.349014203328508
0.348827777401003
0.340434325545233
0.346039016869786
0.342520429031541
0.335651849799081
0.339680436240932
0.339687716724024
0.336119762805223
0.336811513552286
0.331656209269974
0.329762497342265
0.336360416306719
0.336308672830494
0.336239763511343
0.335381687025077
0.335091179925183
0.337445265968059
0.327991756740705
0.330020677886195
0.333844651150954
0.327382286043157
0.329098435283194
0.331977957936461
0.329683373881691
0.326934880731991
0.329181306182806
0.327750704967116
0.327393466962814
0.325522893925147
0.322593368277861
0.322243706905394
0.327051579187096
0.321527133191043
0.322535003748392
0.315339431022304
0.32923804843168
0.322969673530211
0.308971687475624
0.314886942182118
0.31536932127056
0.309871448352416
0.298227793086318
0.311277186191929
0.310007441935258
0.297570307505069
0.295227369862881
0.293426207311881
0.297695714052397
0.295994175373457
0.28585701886676
0.28739799826875
0.279921685020281
0.27425291750731
0.293167987481022
0.288784174313264
0.291848511154495
0.275171980994484
0.272618726793408
0.274099981522425
0.27914371338984
0.26793277697879
0.270331136496863
0.271546032354606
0.270415730040797
0.268236842390515
0.264153581004827
0.263013476506624
0.256043116171233
0.256293975135025
0.262291432444042
0.255252715584796
0.252266928882539
0.255663121091249
0.25232801134049
0.25425393818433
0.26337884854153
0.245689836153107
0.241096341885934
0.241397289871723
0.237817016586582
0.236460775075474
0.243477873473491
0.237646140994274
0.233917343698811
0.231100517229167
0.224581206616328
0.226514886008436
0.224640923441028
0.225967628605613
0.221582140156329
0.220116741923662
0.220326497108864
0.22148787697715
0.217244592449017
0.219330571373031
0.220478175652816
0.210932083812192
0.208171705074595
0.213392522617081
0.213970201170392
0.204091263156651
0.209733875876443
0.206756585873014
0.202224151436818
0.203126151389516
0.201480868808444
0.197231729661703
0.198394258002593
0.194185309697463
0.197706794061545
0.200534265910702
0.203304090673342
0.197444337264487
0.190618496871741
0.195322548303568
0.195045372012496
0.195336855602999
0.198086215068898
0.197445442818521
0.200511652760738
0.192628496508648
0.203269564804655
0.204003458487864
0.202136569440313
0.204552849335257
0.209212114300552
0.21037195851108
0.214191650372865
0.22019343906057
0.224117901232535
0.214360746675656
0.226249814543708
0.226485229071514
0.231341224336819
0.236877332529759
0.239406025456039
0.240838264868516
0.252321100373513
0.251925394654192
0.257003981122377
0.261431294629765
0.266402873504835
0.276765813839576
0.285768167041529
0.28140513805335
0.292492826600649
0.304316143053745
0.31439216083688
0.312521585574583
0.313446653416861
0.320446579125919
0.325300451609928
0.332035925565846
0.336301780634489
0.341573070779383
0.35604861494351
0.349889377244964
0.354694374744366
0.356683775643336
0.364674994533112
0.368514899507737
0.378440924016883
0.382435263670383
0.386052926589859
0.393584454138432
0.385923397253405
0.386860763300161
0.391022360172074
0.396935673079024
0.39525039249737
0.399057412296363
0.400160455993496
0.404389662208251
0.412393094356605
0.403277765417869
0.410053737137304
0.414186271304475
0.41425889816637
0.416693537391703
0.418799142669794
0.426243917147708
0.430210280870222
0.426672160091289
0.431797169447073
0.432895743058964
0.448119271871992
0.442532760947155
0.442486856825285
0.450688394719056
0.456792939759788
0.458955195240074
0.459302519860267
0.466952302143242
0.468708475823603
0.466082284762542
0.475828338423069
0.477613988319689
0.481733354651574
0.486664941996204
0.491420587096948
0.490598659948286
0.50104314889094
0.499669990721075
0.499850144942591
0.507765921331453
0.498293287380953
0.511241854989059
0.502787537897592
0.507519504793384
0.506600991714033
0.51233782260122
0.522541258880417
0.517451129200163
0.513750547315722
0.511531765118019
0.517407989380887
0.519007284001806
0.517931173678203
0.519965738281455
0.5193127034829
0.521935410924564
0.513806220838676
0.515099538388188
0.512064832755893
0.512365663119331
0.51738590251864
0.512616121278872
0.511979057483525
0.51389583932392
0.509264525550866
0.514892562600171
0.512536058905707
0.504825185861522
0.509819193770984
0.512503076263149
0.51560606252413
0.511830309745225
0.515497832020177
0.527713521969831
0.521607230082952
0.524324361942067
0.525389744445196
0.530945731509465
0.531843399327025
0.530503676299332
0.530899271552846
0.54085358146837
0.547030397558877
0.549079035136508
0.545910232675629
0.544247520929613
0.546884265383094
0.549610597553568
0.551651618533035
0.544366644434277
0.535556804050694
0.536522089035529
0.537729107516436
0.534579327810448
0.5325051324951
0.520361095333864
0.519826511288248
0.517556479032645
0.51387168782143
0.511919380311352
0.50348414239116
0.501951949955248
0.49509213072208
0.492583433247598
0.493855481333771
0.489194053208249
0.480433262628616
0.479167406157625
0.483502668180943
0.474817680229419
0.473554699841422
0.470900401078969
0.47482539012218
0.473438430686952
0.467622158219591
0.464333368166669
0.467933663027346
0.465991704666242
0.461361901631561
0.464407508785658
0.466111396122598
0.464016283809891
0.457772403065731
0.454397560829566
0.456852964557673
0.456023699636996
0.460245059723784
0.461455969828832
0.460674069482231
0.458539051576392
0.457396250143632
0.46105452441044
0.461643827862189
0.462387360596525
0.462573020176888
0.458637968004324
0.458790530737243
0.453214410645082
0.453481580700292
0.456178963938191
0.459498959220527
0.457724021909538
0.453106093935306
0.45376881423791
0.456063911256481
0.455603039181372
0.453457697659552
0.455044337223803
0.454105504358557
0.452356724912495
0.457496165662196
0.456066766076286
0.454643905048969
0.455848605967796
0.452373494524376
0.455883609270423
0.451724274685026
0.449968738837029
0.457286778057455
0.456871234743048
0.449766315673538
0.451986448793312
0.447750564310649
0.446797627594725
0.445049048398659
0.437849360789766
0.439549376136272
0.434712321693013
0.431849105359978
0.42631554351258
0.42526677554318
0.419818525572566
0.414272079316365
0.410227278466261
0.40496722970324
0.40500150432293
0.405784020669642
0.402226342952079
0.396084224643126
0.39546776066375
0.3934967678457
0.390312288256353
0.391463948155613
0.393331421247327
0.390267983016664
0.386042972230486
0.383075400526941
0.386350317579642
0.387133146249091
0.38690810963714
0.38958146907663
0.390380771220536
0.390714787537637
0.394365711097098
0.393615676853586
0.393347116571724
0.397760644378268
0.396424822673003
0.397841854030714
0.400528942537346
0.402692987235981
0.404968617448422
0.406598559123495
0.406623373173206
0.408866895757201
0.412883634868973
0.412540160882625
0.411332457360398
0.41265892665765
0.411649336138986
0.415455281792201
0.415666462337936
0.413830774373543
0.413538572356207
0.410581466895946
0.412733646908089
0.412819930611626
0.415167328690263
0.412745663501863
0.410729723180774
0.411230750366746
0.407614600750996
0.408390612699287
0.406731446006382
0.404728166068624
0.402508806105479
0.40244845382074
0.402215055942618
0.39751243412254
0.397038052258924
0.397114884869709
0.394912007592189
0.393907569502132
0.394296419028927
0.393932713803405
0.388904059558595
0.387670649411797
0.38710583558411
0.387143897384202
0.383479796669404
0.383991892503397
0.384402923215115
0.381698904692738
0.380686311445272
0.377771729379052
0.377463164665825
0.376037412734053
0.375465339355667
0.374303806301093
0.3735603535433
0.371226985079383
0.369927887536434
0.36949993050371
0.367733693648746
0.365945674182594
0.363233322074014
0.362587859400657
0.358976417914122
0.35732318725704
0.352934911065285
0.351017060365344
0.351299412323208
0.346014773152389
0.339686263948426
0.339941674791581
0.33674566182187
0.33568392579596
0.334639297022294
0.333974802915162
0.33268244160422
0.333990497902464
0.331399575226743
0.330997679375987
0.33078290788032
0.327265788788622
0.325253352362546
0.328131775863034
0.323355762110675
0.322454613734947
0.31902297886164
0.315180865243838
0.31351483993785
0.307255139905385
0.303501174654414
0.2992055116969
0.296584520927982
0.293375705252654
0.292453021590159
0.291881754731343
0.290243495339587
0.292836224585924
0.295106534805259
0.298374574939569
0.304976509829807
0.31027517609748
0.316270495996471
0.327708347731177
0.340680942487272
0.350953761327168
0.361579349084088
0.378135564918598
0.395160255381841
0.410298830952881
0.423934914314991
0.437617182930356
0.453802668958057
0.472806988836367
0.489192367517853
0.503033896723338
0.515817789848154
0.532812580777677
0.548470043240073
0.564156679983494
0.576842722133313
0.588620074994443
0.599105958688921
0.606505879181116
0.62216028628348
0.635548731031358
0.643953846029381
0.652583904282459
0.662593007498202
0.665221011138947
0.671200499505071
0.687048850526269
0.691506918375666
0.688408445645487
0.692721290752863
0.695755533515599
0.699360332899357
0.69945793258297
0.69230461251988
0.698992819070784
0.710829227012
0.706854169967571
0.704235907452552
0.707132051342706
0.708909456157504
0.715068399454193
0.712344971207063
0.712732161335088
0.720976876067018
0.723214910575586
0.728121112882201
0.729968518369472
0.738891212861476
0.743097580125834
0.751112543888108
0.760738125225868
0.767352016365491
0.777360396791303
0.787707083871079
0.794399081318211
0.808426110791273
0.812653468639463
0.824729231543507
0.842338663441025
0.843801326629046
0.860096062344434
0.862128156339426
0.876536917472125
0.893526681693245
0.899966704309065
0.908998894659029
0.904071780198921
0.909978829956218
0.916774323949254
0.905890338965026
0.916928616453099
0.906640825157389
0.898882585267568
0.898100732286743
0.897558424806367
0.894159979823594
0.891781435664913
0.893095196004258
0.902996196891188
0.895142484717423
0.907769984873134
0.921180032838755
0.949936355819162
0.951485294406859
0.977738332037631
0.988976566248825
0.992584096923374
1.0069044684781
1.02592890990974
1.04422166947555
1.05263377285652
1.06927653491851
1.10770365389718
1.11869833021746
1.13059379058891
1.13163403699482
1.139235977085
1.15664921464337
1.20477953640576
1.2043204926688
1.22554345549274
1.23768057173177
1.26746631464816
1.27416742195676
1.32101450126237
1.35033666330195
1.35639238225562
1.38093102808576
1.40407056404299
1.41072538836255
1.43589859038999
1.45503646466526
1.48295094017587
1.45485831855083
1.54874865519646
1.51332273301854
1.52138933796782
1.54681029045577
1.58278426579829
1.59336589959351
1.55964864207181
1.53096792046294
1.56784029174238
1.56906789092581
1.5861790612618
1.49747929063879
1.55847605371757
1.51823014849674
1.52548926274898
1.48045779959898
1.6172651832337
1.54310288980692
1.53748886049328
1.57515149638926
1.57360307557825
1.55337927396437
1.60522808833727
1.58450861932391
1.62328451652238
1.60712036043799
1.61615035280794
1.63568645814558
1.6769284708985
1.76922448481431
1.80565552513209
1.72658687836321
1.75455679479453
1.79251260875229
1.80719082230074
1.76810391698637
1.81864455759753
1.76905601507319
1.77165921646388
1.7639625795188
1.83293526425042
1.83042265087535
1.80409930384444
1.79866848984418
1.90133145428778
1.81250439929634
1.8399008733773
1.79805619783036
1.87824419398691
1.79574103473238
1.77534006927662
1.82424029217788
1.94437948480328
1.82521937697017
1.74893802463091
1.77598755389167
2.02824168709119
1.85488321119486
1.7137491637075
1.75828140447011
1.77532322543874
1.75485807743511
1.71348174020527
1.59025480625987
1.62723778779915
1.56550761888844
1.53274917796022
1.42271129711687
1.44591598011838
1.35807265963061
1.30298597998985
1.23351791904325
1.22863518163006
1.17580152007499
1.1406884992017
1.13244751810837
1.13788098621498
1.08936237796355
1.07890222479824
1.06534706919742
1.08309561648155
1.04606670315084
1.04617993401926
1.03537845905897
1.04218703885185
1.01754816335956
1.01017675858863
0.981888084153372
0.966101238399866
0.935858274328903
0.936684415337823
0.906954686756995
0.899221097004244
0.869797849189373
0.839700242949952
0.811677365244541
0.786057473152485
0.754980538646385
0.724351376676719
0.697083079044487
0.67141089784695
0.633053142393388
0.598220136989123
0.579136319044472
0.545932065265966
0.513345222273979
0.495328800002058
0.47724228607643
0.455978665186551
0.42426376129051
0.411247304918491
0.392649513430172
0.382588245677887
0.368719576781342
0.357973581897
0.348434663689415
0.333545704901636
0.329293741672312
0.32258985682859
0.317463777339242
0.314413777835633
0.311776924526848
0.307942500631549
0.302405508417304
0.310338009926933
0.301540230434298
0.308573818074108
0.310154112016636
0.30760592333207
0.3063165407979
0.309973777601407
0.311083810330919
0.318796331431988
0.316186058419233
0.319147014717453
0.319068266132168
0.322505728755775
0.317186456526317
0.314410906704423
0.314563238910512
0.309264677459898
0.302841599267942
0.303364801100034
0.296952600242682
0.297634584263902
0.293705514150151
0.292324722295649
0.290627546793303
0.289686063012987
0.289365237424509
0.289497573952701
0.293248726594049
0.295590312335642
0.299564535483777
0.301968956893845
0.30367851070853
0.307055511537719
0.305070105464638
0.314117683807627
0.314140069173259
0.317839092241686
0.314890889552131
0.320036335575733
0.324010179960461
0.327158061700783
0.327369893456909
0.330956439438489
0.33407090370886
0.335030844862459
0.328622082829011
0.33920578653565
0.336019850116525
0.338709357055962
0.334941209367721
0.345657835054677
0.345691700516732
0.349846334648503
0.348293483564153
0.359298561853816
0.364231552888014
0.370752714769515
0.375788301693086
0.389102083879372
0.394737852738907
0.412049865563207
0.419774881206583
0.434037815247181
0.450023913117884
0.453877689410543
0.472461535064757
0.468285800044893
0.474751609119295
0.47690239527155
0.467998455125024
0.468527903080029
0.467999175847667
0.459584401139812
0.452252303466991
0.436991440611251
0.427345364233195
0.42502434296294
0.414632933629047
0.416624085075822
0.40999925538352
0.407309381492163
0.408332876051385
0.411088414023124
0.422928491579489
0.409902139470111
0.412517054484981
0.41438138750818
0.413886924246676
0.404378820942907
0.406610979886006
0.403969285657894
0.398658305724143
0.395340766209198
0.38243182102792
0.368668945641984
0.372370448442727
0.371051152995475
0.360084662476311
0.369467810279165
0.366568633148996
0.354953685665357
0.350264409728144
0.360715521822732
0.357274560312237
0.353912679240888
0.343379115440835
0.344418443549892
0.343672340563578
0.342231906033208
0.337133196843184
0.340627761771308
0.328516186533956
0.333364539868603
0.326613814220672
0.323649085693391
0.328225137851571
0.327949718074572
0.333001283352877
0.322278810462991
0.314247194050451
0.316877327863269
0.319301472503537
0.316424155819114
0.312292929093208
0.299614315781942
0.298265969586092
0.302734812529659
0.303763864428572
0.303336515998429
0.293814990920059
0.296869496400043
0.296002394524845
0.291439942640456
0.301673682208815
0.294938592272476
0.288243281831359
0.28358443684299
0.298658739796464
0.299768226848301
0.291286092891242
0.29944186554279
0.298108392158125
0.299866350173786
0.297930793736171
0.298979416967054
0.311355523692674
0.309593573030657
0.303854362512772
0.309105792386468
0.31354449611128
0.323651234902251
0.307772650820494
0.325730973302454
0.314624351850972
0.324256786991467
0.321804642381011
0.3193334584136
0.323764316075784
0.341753468843597
0.331211135969813
0.336388608241663
0.341464923957264
0.349776990059842
0.352950722113896
0.36798420491974
0.359324983515993
0.375053860045023
0.378750178395609
0.401406832655867
0.408102970123714
0.42707952829949
0.417058202371864
0.433977467457509
0.4419386953271
0.468023944784663
0.472526989866923
0.48002328616538
0.493901196687329
0.521603157880792
0.525382060023401
0.528546946230597
0.537041227723956
0.565707059239032
0.578529369694637
0.588979891331993
0.588105014366672
0.600917289614767
0.572038524182657
0.575512129758947
0.554031660547627
0.590106075030402
0.551705215947353
0.564730070847345
0.546780161063133
0.571298705757095
0.535525001404337
0.582658365628589
0.521468175167706
0.568950093514978
0.536169428627862
0.51282726390296
0.528400609572235
0.529108568387216
0.518307642053288
0.498956481932795
0.495052729783037
0.536843802960163
0.515559737365391
0.503816694380191
0.47144469878963
0.522787671766327
0.479207828269098
0.489808986965408
0.470944091009213
0.480731440384815
0.469949219640378
0.476153013549499
0.453315054436711
0.468883520565362
0.471188345763888
0.483508985425719
0.482976167941304
0.466182375846572
0.472111337637199
0.4792985033842
0.470398809724808
0.481374549106464
0.482809825215621
0.465346171109188
0.499034164730822
0.486430268735755
0.458153295045687
0.44231483239311
0.510898494206434
0.532771204493064
0.481006839551096
0.504650478145304
0.46023158951217
0.510098154737349
0.47430147039652
0.481945738628711
0.522957478348085
0.529925566595373
0.468339917797617
0.531064706460852
0.475500341221478
0.531151392437491
0.518069283706865
0.494031638470122
0.501891838202121
0.53939709117651
0.518315913961891
0.605799389074994
0.558480178367745
0.627329570708631
0.588945490063086
0.577391297490679
0.581343367293945
0.608803930169247
0.570598975273983
0.622017583307672
0.633777258344816
0.60321807539881
0.621750802765976
0.729435118780938
0.627531042181465
0.704288855662252
0.808554229807143
0.749435009410914
0.707583670523588
0.746323347870541
0.661747831267878
0.769067102257335
0.64673488766427
0.716317803041087
0.588266271807978
0.653795989228479
0.650694128621224
0.666759509646491
0.655630802274845
0.708954978622138
0.634151735811721
0.68558670823998
0.632399081595138
0.684449852669811
0.608156436177351
0.65939294462413
0.618464439340363
0.568923918276042
0.599955758976167
0.708541337149784
0.577281539722855
0.549642877284817
0.519938254229403
0.628122641970921
0.626641146300595
0.734622744943892
0.967143604020351
0.790605752597522
0.516292550674426
0.603552216465156
0.514830261163195
0.711525560871967
0.56597712708637
0.589990265822114
0.587715247449502
0.496501684704779
0.641812610657627
1.08318561638458
0.414939697837939
1.15760973309854
0.794578178188212
0.539741962759697
0.507019296713483
0.759487669158472
0.584150482226154
1.11096264127417
0.540697256712259
0.731630813547356
0.796308474074027
1.17968796294014
0.541421368420825
0.452757827790564
0.45334456372095
1.09324076724193
0.586169347692104
0.721098024535922
0.76197733556085
5
