3596
4000.36533379555
650.420452594757
1
2
2
0.0561319290771566
0.0516452184502903
0.0589636785935427
0.0418600819165182
0.0660815036172313
0.043119579349341
0.0718411290057291
0.0453401056135748
0.0554873916007512
0.0378145548397108
0.0619221847742453
0.0451652037437606
0.0558560287579069
0.0453453936745113
0.063015171375883
0.039538011160376
0.0549640039222228
0.039629997831995
0.0582906730197234
0.0429666468399657
0.0637086548803798
0.0395462750771366
0.0537555443909497
0.0425306207114923
0.0643893916405879
0.0484366913234147
0.05762759795692
0.0436097784056368
0.0689159419430659
0.0521565711982352
0.059718050104106
0.0389787258851311
0.0583695903225701
0.0464028539519307
0.0581068113060191
0.054855678038889
0.0624848865882999
0.0478518275376584
0.0591467507550425
0.038998721882202
0.0614672435612195
0.0442861305130033
0.0583036012633167
0.0480137907782238
0.0585181710785022
0.0458115809646085
0.0592900545831769
0.0476309932220144
0.0586080809457857
0.0491089955029415
0.0632670585300032
0.0408497494189926
0.0568608201726443
0.0492719780446926
0.0551152528708159
0.0517859885970032
0.0599687389222554
0.0452891465307743
0.0596106958583895
0.0400039567145803
0.0623775889852301
0.0509047812210482
0.0612348454075632
0.0469376459781935
0.0574432797852638
0.0424980237564681
0.0633636617894497
0.0365502710640671
0.0550929853842397
0.0443857024065784
0.054378303709844
0.0502109692710456
0.072765557233558
0.0426389575135675
0.0577181387258938
0.0419019914928214
0.0608760219790628
0.03659686339949
0.0464248528864737
0.0524205143374892
0.0667304744739637
0.0401370112179055
0.0673554437890379
0.0322525162127831
0.0583521535452774
0.0503989190497552
0.0526645920710922
0.0405943993838043
0.0640060232126568
0.0491507937521023
0.0645328871764093
0.0434915760799053
0.057288494560238
0.0443341376615742
0.051476194820568
0.0381687781025076
0.0550644220641514
0.0437600838022865
0.0460197247077067
0.0418889938146202
0.0537298363296012
0.0509866161970052
0.0786738929597033
0.0222948919673757
0.0830391077729318
0.0473090018634441
0.0433634999321029
0.0701336969751018
0.0567141156185157
0.0417454303683518
0.0627763177032534
0.0384192810519044
0.0602635248279664
0.0449952010535334
0.0333250756234844
0.0342335592770021
0.0749619377902888
0.0477345052780899
0.0502617640480898
0.0467390785970731
0.0410106729911454
0.0385021305112607
0.0789788857121187
0.0455287174825539
0.0553614890386511
0.0477188677447733
0.0396447366707464
0.0517166400043169
0.0755640981154534
0.0435676896586996
0.0482451955428236
0.0362380647682033
0.0452535149761702
0.0254006769788262
0.0709338476400958
0.0479311607036307
0.0512632298262192
0.0163962716848492
0.0519139857402874
0.0611859397006793
0.0740631568364979
0.0437653271857701
0.0399070548567681
0.0294858645956671
0.0675141518100528
0.0422453849400157
0.046432073362553
0.0454427525476133
0.0563018511413503
0.0368272623239131
0.0469027514329362
0.0287692387587273
0.0581505896511193
0.0475429953415645
0.00768810862369127
0.0518571409517711
0.0814488355838996
0.0337591225945602
0.099783985096637
0.0382011428884164
0.0515528265039105
0.0450846430705426
0.0614398946235508
0.0306340104843632
0.0548856446672685
0.0293777722145084
0.0563441425290738
0.0538045939321278
0.0546918010588204
0.0363041095473419
0.0731984105895835
0.0296694554790432
0.023572500210335
0.0724381598775977
0.0696891462866523
0.025134774359841
0.065306281118362
0.0496134696315425
0.0384594775081474
0.0363935613955738
0.0694171103179113
0.0430454991243448
0.05148877357546
0.0348785127534085
0.0465317460772864
0.0427227031993175
0.0528954518464361
0.0414075243534123
0.0495327840662347
0.0212163119181489
0.0508837687779459
0.0620207945162403
0.0749464880688639
0.0448166059172134
0.0559073328058686
5.3442491744512E-05
0.073982567607815
0.068752466975905
0.0516808674400219
0.0377070012935732
0.0496212197979159
0.0381083080509358
0.0467886609228904
0.0439497386397955
0.0403338851844866
0.00459860113345229
0.0798313243690447
0.0543332354819603
0.0532933660166247
0.0335832036746528
0.0364263052234147
0.0180239302129574
0.0886166217549211
0.0653102667095845
0.0625392446606324
0.0374008009796334
0.0427430493954317
0.0361131103146562
0.065297461770943
0.0401066007665019
0.0533469362017045
0.0354292504719397
0.0498041214727078
0.0416694099543752
0.0475550251274037
0.0426151677244734
0.0536238207371183
0.0419459560527205
0.0507119328404662
0.0350465590811447
0.0638388334515956
0.0454316768320523
0.0528612635623098
0.0357608477912264
0.0428302690439955
0.0410635770041735
0.0680682774972057
0.0439489070597993
0.0522224297770391
0.0325469479711474
0.0499550780150784
0.0368174930264213
0.0490734019826147
0.0406611539037427
0.0435710519118278
0.0280521183048497
0.0754662886617682
0.0459636813152896
0.0541259985546032
0.0233878809027731
0.0613149983837272
0.0485211783220064
0.0516922198936715
0.0381877943349694
0.0521361826722292
0.0304183802119185
0.0341088253792119
0.0578002461148209
0.0579773594117238
0.0304521740980877
0.0613678743903565
0.0502104507941641
0.0507486876165264
0.0208363390782985
0.027327208182119
0.0931682164824782
0.0590307548312241
0.0113755274286776
0.098200198312492
0.0499094587544369
0.0563618938117329
0.0302803324422802
0.00274420994645009
0.0964759132644544
0.110338697922434
0.0418088080316071
0.0456397034161429
0.0613598508350198
0.0518606550381286
0.0422284146032269
0.0460447110097157
0.035508945931236
0.0596203670672201
0.0400236930389965
0.0826372846206514
0.0260083817610802
0.0646457291135009
0.0584273390882043
0.0646288336104044
0.0426396259525033
0.0520005941592037
0.0260294287225705
0.0623485088300905
0.0514015092916904
0.0593681199773924
0.0501433682247494
0.0438889545147971
0.0589937558981054
0.0719358768352253
0.0358939389729392
0.0550371532748585
0.0442613024740274
0.0547070927148478
0.0434516418801566
0.0537109970895939
0.0492693246997449
0.0430977492131894
0.0155371499203808
0.099786111766989
0.0419611061354204
0.0527391099243765
0.0618087437069753
0.0636986187863336
0.0436615024885985
0.0521828833524214
0.0398545023470431
0.0613617413826218
0.0371331267639672
0.0427827676994509
0.0590208506553848
0.0632084131548859
0.0578685677148772
0.0604592040201584
0.0399270305405386
0.0564694113188455
0.0443824087706418
0.0559400494743468
0.0505044806067583
0.0564162756201766
0.0314398863953078
0.0639798065780031
0.0729856332989347
0.0339623605800509
0.063095769194887
0.0952337990393294
0.0501144148382344
0.0631494117325678
0.0511521681641131
0.0617806937787488
0.0439932768450173
0.0633060671925579
0.051982733960924
0.0575575390261884
0.0558882810940748
0.0692094693829864
0.0429145864686193
0.039340720408392
0.068416637132065
0.123520044476655
0.0800580269685299
0.0772605302956996
0.0280580492685214
0.0873101072035841
0.0688499336171061
0.0927002144746114
0.0808893721684434
0.0692457694717573
0.062482803010894
0.0729194733824673
0.0697697480147857
0.0713329328619985
0.0734916631990529
0.0718244528850599
0.0685949621787556
0.0805753233150654
0.0699745425836336
0.0679409736068113
0.0587655051451427
0.111170297365176
0.0805767561359539
0.0882957132076955
0.0758507703633196
0.0709310216743923
0.0887946738703735
0.0846342107656243
0.0976629842580118
0.113234815178797
0.085478124074805
0.118283069750508
0.0901283529861862
0.103531610476513
0.0828039622518791
0.106558404766462
0.0939389032101117
0.11153152230037
0.101691162307315
0.110704571096595
0.0984733368484831
0.11195737534772
0.106876673030715
0.115598460530402
0.0951125298539944
0.132939866943507
0.109634873408503
0.123804162437227
0.0902108417045542
0.118110541309107
0.141850158540455
0.159901598074134
0.121690589028145
0.143692274611884
0.114784081494121
0.146319672203293
0.12438847827485
0.14318799331163
0.126831366540985
0.148857687075003
0.143436812474345
0.15842364068967
0.143639134816388
0.168388435862168
0.141656431668746
0.175221746154411
0.150961417726464
0.163995399014487
0.160479133656558
0.179003485784004
0.144567298755024
0.19405365386948
0.16712197094603
0.175801873730582
0.192252613088507
0.188600431714499
0.162279759114852
0.1865852743103
0.183691242783541
0.188225843405521
0.182456257172727
0.198622907330458
0.18292908000491
0.21363229531607
0.191417816147234
0.205423347325993
0.190909882630428
0.222282616173843
0.204810326435293
0.231601732023344
0.198616546223949
0.227404167389287
0.207460518679065
0.257984635831731
0.226939800832214
0.249175682862208
0.21999638915836
0.248878417444907
0.231529822247838
0.249984193137454
0.230279173303291
0.2487268531472
0.237851364495883
0.26072685110429
0.238949207975069
0.272582318836328
0.250404223022152
0.282761051841776
0.265598840372901
0.276074311524407
0.271262829126265
0.291742208931975
0.250563139579856
0.297908648377614
0.276625284223464
0.313606348094494
0.283726549503509
0.322102922908057
0.302944049831338
0.311507796432404
0.299018146754624
0.342618940182724
0.305978754510368
0.335188641847553
0.314772997554259
0.352737666885315
0.326852364233909
0.355575580640788
0.323509687164944
0.351642651679273
0.32232594041976
0.358714188797576
0.348642688064918
0.415362182542688
0.348180174658059
0.386943837049729
0.374181309062338
0.405161424076048
0.358099742572388
0.403592408373961
0.394277279844089
0.421655626271466
0.399123007560284
0.40457479732549
0.402119963553298
0.434550217874883
0.391918067268541
0.430698273665002
0.397163038004951
0.433685472810646
0.428714853548277
0.456576225811057
0.415825890599888
0.468166532186375
0.439025621342064
0.472662750553636
0.43302219257402
0.498834430889579
0.468898411971472
0.486500474029552
0.462363503446556
0.492483001942741
0.474107934894142
0.528049144818779
0.489584370039236
0.526845002784822
0.491355381735055
0.506536267730385
0.491617894925724
0.537019120181166
0.510712512718528
0.568435756475286
0.521030606230248
0.548779275554216
0.522913157005152
0.552514138402977
0.549420048421859
0.58050925776476
0.553320876983549
0.577154848961849
0.526029242992603
0.585498703442808
0.555465157852454
0.618517622390907
0.597883802961343
0.594937759057441
0.570182793779711
0.602133242327072
0.570271757634917
0.623243791377345
0.587537889424303
0.652668127916914
0.608408640475409
0.675193786714258
0.613361223103589
0.673254250606216
0.616520890241324
0.673822414114816
0.620819341618825
0.682151164909215
0.638021787258849
0.69821515329191
0.677147140767801
0.765182493074401
0.683756691475045
0.783791485388862
0.634842384640093
0.74446784723898
0.69988180895116
0.732460104075067
0.687547704134255
0.743347811254824
0.694216123795136
0.749779475155372
0.714810036228532
0.809251809598461
0.700182341492969
0.821786847306495
0.728080633374547
0.774302473499818
0.739569011589752
0.796628816066661
0.74071887987469
0.792818544420733
0.752902871734776
0.814548324634161
0.772398798828114
0.820332885784172
0.801718586646089
0.880803938636434
0.787288892013833
0.845634619967918
0.821442956249602
0.800016368175815
0.799126508423791
0.922332788264606
0.820089576839345
0.899171483209463
0.841152645433875
0.849818011918405
0.820632361345218
0.881044123821516
0.807416940608357
0.952424716594432
0.847837923354192
0.922376734279113
0.845597252684369
0.967820829131179
0.896896918087959
0.925760574476548
0.948841499201879
0.997509530036381
0.93346187946621
1.03468697852704
0.912406786669392
0.928840557189477
0.893207025329661
1.01208149132527
0.870869613615873
0.972182826004599
0.908485984557931
0.968300661708506
0.93389641398234
0.974369046024443
0.946786686880058
0.996963527473722
0.933965233242437
1.0996143479452
0.982553384234267
1.00905261090842
0.972466494702635
1.13997559926005
0.958792425479367
1.15091575075853
0.96955191165438
1.0623432066298
1.06703695079748
1.05242656078976
0.987928566309213
0.997531328985615
1.03788420244731
1.04992290892907
0.930525090383914
1.07984102567698
0.969625218301896
1.14361428283677
1.01567595255034
1.08006221051941
1.01093718929256
1.11112716583943
1.03164046306446
1.11576753159484
1.01057748607612
1.08706978151235
1.07169094534717
1.160178956496
1.06905580672756
1.16716387036486
1.0641092511249
1.09092479071239
1.07977387189994
1.20879136077824
1.11521842032941
1.19510497508691
1.04071202045447
1.21443824994489
1.07251087106958
1.29595886639116
1.15033396496995
1.148927485086
1.22230426469026
1.17305710371596
1.10964034877103
1.27305930792562
1.08695652755558
1.2056433154439
1.10667195993752
1.1877450202862
1.20434113027779
1.2426580785113
1.16379193779595
1.32493135771046
1.14204870441115
1.2682654348828
1.14015730445362
1.20101450668997
1.15135499334642
1.20280564337853
1.16038458921366
1.25102790268889
1.1157761541691
1.27236567417582
1.25522066418153
1.25595201319652
1.23095912031155
1.3163305364697
1.25565096205189
1.22204569758857
1.12580535713927
1.30529227286379
1.17592113749814
1.32633305408738
1.17576987988675
1.36203337008268
1.16560737929998
1.32480937595484
1.10003880509251
1.27184045020944
1.1271837324586
1.27139896845224
1.21841785771529
1.35363110313853
1.18521690738242
1.31258378038558
1.22331628990323
1.19160928781585
1.17582024189725
1.28498200483714
1.24252781630373
1.34185585326315
1.23731247906407
1.26846116981789
1.21875493947614
1.28792513212047
1.21557568262118
1.2483921425546
1.21947199948493
1.34055818245773
1.17532761413562
1.22156762798515
1.28859224125146
1.26641472184042
1.26830778067599
1.34561177439173
1.19180756625564
1.26213262951162
1.16185645720208
1.27478234819445
1.32235732777696
1.35607713342086
1.26954737611881
1.32627216926624
1.17334119158153
1.33756440054024
1.24391873274654
1.32333534333467
1.20804544147062
1.32208136082976
1.19376549692039
1.29203497055565
1.24028479194969
1.27392346069642
1.19404090063526
1.25877237941407
1.18621103091235
1.32812232693088
1.22412878655963
1.45339022644077
1.24755375919962
1.39510604259689
1.24841350423822
1.32593354009526
1.175141644669
1.27975814541272
1.31552970823452
1.40929939503994
1.1808781307857
1.36826144704247
1.21783952621008
1.29351692761894
1.16885304586643
1.23862696292318
1.15822293978451
1.31463980671019
1.23072556669487
1.33854286270865
1.30064419742773
1.25962149627215
1.23478721349858
1.34353823150042
1.20561115734191
1.32586768630805
1.27662717766152
1.20971463971292
1.18294511631436
1.28834672575484
1.28439626062738
1.32485522754273
1.19584149184727
1.30202359122403
1.18958543640544
1.24038741715788
1.22831344536099
1.29026829407644
1.23083921566527
1.22234090484596
1.22756935158241
1.23897778436836
1.22651777822245
1.39486076976309
1.17729048036619
1.24110859122158
1.26741533965746
1.23604174627222
1.21207628820796
1.29209668409906
1.19822998105816
1.29960925941378
1.1468572489952
1.22694637154856
1.23050986210675
1.25428879854785
1.16840901016897
1.19842605415184
1.11665984527739
1.24079876739608
1.12492582711571
1.2328185716245
1.14877491251482
1.22558770812453
1.15763627309599
1.26252600472739
1.15540950419524
1.28271677254461
1.13665617156798
1.24124807145816
1.14684140761503
1.2078004252072
1.19831708300176
1.21672933350987
1.18333893713155
1.16788494782757
1.09359186172022
1.17539292500766
1.14914510641046
1.1727927920583
1.13463746233251
1.16164806927365
1.14030013118636
1.1647719217904
1.10292091448224
1.25693642870818
1.1049694542327
1.15464820265602
1.09496704135372
1.20597354486455
1.09879642356221
1.14721133917703
1.10344589394146
1.10989472198674
1.09096583129401
1.19011011742968
1.1100532735775
1.07656771000305
1.07330990956313
1.10270907859155
1.07013451271615
1.10092686507973
1.07898747227555
1.11284550102503
1.04933392331546
1.10762288302109
1.03932992171969
1.1464388188585
1.00929866124325
1.0766064440091
1.02350839797489
1.06033102655344
0.99371945068033
1.03654622203536
1.0131272129545
1.03751367681187
1.02493927154631
1.02338621242535
0.987604793887896
1.05125640370032
1.03066357111706
1.02798889428062
0.974651498001762
1.02523411071008
1.0159265433903
0.992561227198564
0.958428542664604
1.01241753536806
0.956978415299576
1.00125509643889
0.984439144362831
0.996284819787109
0.954432913950549
0.945907196439686
0.958770397589469
0.993363640873103
0.930188606888087
0.946327184460745
0.928500301440619
0.923995860514297
0.908032370057612
0.933783538805278
0.896384196652524
0.960759921633063
0.928111631062898
0.902993007110243
0.901275242683248
0.933135020864487
0.885360219561393
0.909031224654183
0.898434993411795
0.912869711215393
0.895038141355238
0.909550010805544
0.874896281545239
0.871995642711041
0.853942150590768
0.875089575694913
0.840969209914042
0.875728179975013
0.854950346991048
0.84442216462864
0.8310337141453
0.857015153186806
0.819350105929258
0.840076661018623
0.843040515894465
0.827907897587869
0.807721584083153
0.834939217317127
0.805313937539354
0.824085273567008
0.791045843876988
0.800249824739487
0.780587083123324
0.810487929135087
0.789362481393018
0.795604882180175
0.773052010814434
0.772005294941465
0.772159095278066
0.767442702250886
0.751916224436304
0.767589834307521
0.758222590106856
0.745721344298377
0.755887766699197
0.753330997897668
0.737482476668116
0.733707173320518
0.720403621854252
0.742917324781361
0.694423122134999
0.728702339552521
0.717232283790233
0.728446657130841
0.721543401745138
0.731167241748512
0.685195921981239
0.701025475277722
0.673126636437838
0.679167736389781
0.700497429112524
0.699990398613549
0.677636185143966
0.669218964520234
0.676946757971606
0.675584425904439
0.658557144118717
0.668987131118648
0.637562667964614
0.655668150340112
0.648491326413426
0.656787835093811
0.64475903353161
0.647309361141578
0.638603642885594
0.645210418948232
0.624886532945032
0.643596721306164
0.619378215425408
0.62766530840739
0.618454277618272
0.625206754144392
0.601978283762887
0.613573196425669
0.603124891324348
0.621204960158545
0.588115559108735
0.604956856218494
0.596250174385621
0.590787444492307
0.581379083319929
0.587060178700932
0.576923609393755
0.581669836104226
0.578914285948453
0.572252204195232
0.567977895484972
0.576237082078218
0.551727988375516
0.564660899200309
0.548086996885028
0.556555665911309
0.544491061055185
0.554887309125926
0.536906631401621
0.549528691723826
0.538050306562808
0.541022786539859
0.532754107164732
0.548928946225421
0.530175871230032
0.520909344260503
0.519586321133248
0.532784765585284
0.509173981814658
0.520957439387438
0.51004211580573
0.511130775090514
0.501150764120051
0.510095985659492
0.496286509221289
0.50629073002991
0.489532736855417
0.494162530585837
0.483934929828887
0.48608894492011
0.48123164093168
0.487777924600939
0.478814817062008
0.479999797757777
0.467405201442739
0.48450939191896
0.459213905573137
0.46754498642772
0.466339443148812
0.474028605078569
0.453274173327642
0.457837460332158
0.447347490456951
0.460441180093384
0.43764861499345
0.456612288876992
0.436291751634141
0.438836359405352
0.430105812853236
0.440997267969097
0.436242629264062
0.433148159898806
0.422868282091894
0.419698940068233
0.418388802383916
0.425119872809576
0.412478175689653
0.426932934537858
0.418645723899773
0.425789531572989
0.404678423255287
0.425463394050824
0.407374459851224
0.412840781650939
0.396307171355015
0.409522526166712
0.399274813095999
0.399649563832016
0.384089900247627
0.395790819412536
0.383087093236104
0.385142030560386
0.38367231365401
0.389208420068478
0.378202593291316
0.380729885457201
0.369704890202166
0.381162484630128
0.374532282719768
0.38018419107533
0.367076294002215
0.37674801463053
0.37175293005772
0.37599773479638
0.372770585063894
0.371055595013026
0.361721639995832
0.363403433145611
0.365149310108
0.370787379321391
0.356167391461358
0.362980829824695
0.351553523283051
0.358401089752785
0.360553522864768
0.371406258017962
0.355707281698619
0.363819212480768
0.354082803663634
0.358204652706133
0.356842060075229
0.361389147609983
0.360572548037931
0.368154834656913
0.358901806934819
0.368068766454338
0.352483316509449
0.362827781854098
0.369490206758711
0.364535139320405
0.357584017541541
0.370402441485219
0.364805426030526
0.367356879534073
0.375129927629429
0.375860331071057
0.375718643162632
0.383930592884548
0.376867613108144
0.381217706954185
0.377659915219317
0.392246101278221
0.380656760635648
0.392829767027081
0.383510826752888
0.396236736796036
0.401503169581191
0.399784420236737
0.386412291012327
0.407115989182599
0.405054558619711
0.41090056675291
0.407660201305926
0.412448298787034
0.404969289932949
0.425666065275571
0.411567144993718
0.424589971881034
0.427289435924058
0.425162672827707
0.426452083098609
0.438912976946336
0.431502107102754
0.447532524902035
0.434874726657709
0.444352318719782
0.447864005020593
0.454651349621142
0.454184633275224
0.461330322338046
0.450779907899557
0.470218131497051
0.471571871647841
0.48240052815009
0.476856891889394
0.488289417076308
0.481351550722082
0.48682155462969
0.492413893205602
0.501485849186948
0.499442424189886
0.506101595753078
0.500051257694856
0.524043611015175
0.502552372073408
0.512409075076917
0.505766206979094
0.517839205293754
0.51858264329673
0.517377795766038
0.517846923845516
0.533530319357962
0.520803473547765
0.526292680649203
0.528361461055012
0.533436648650803
0.513781905929514
0.524470728792016
0.521300231773195
0.512590227197878
0.510202531435991
0.517006912227282
0.514386087137489
0.521203728492747
0.507823500646456
0.511002578568076
0.516716390315106
0.522211094389067
0.508762719237773
0.521120918828181
0.502242010923268
0.512332467625644
0.511300541906741
0.516273871166549
0.500919775344439
0.508162046110283
0.509115521359982
0.523741179985961
0.5184553381505
0.517686977172464
0.508205387892449
0.522473048572167
0.5169834418687
0.514454784634074
0.508204021127296
0.523020784073618
0.510679771058674
0.52648746331764
0.512023818115342
0.52050075779003
0.51607169389981
0.512856276521127
0.515668978657063
0.521509604450471
0.514568057760141
0.518831536894237
0.51478053531892
0.516510675028774
0.521251976167163
0.522041298418914
0.511545202468201
0.515782472824071
0.506192753656618
0.508607430200209
0.501053850068876
0.505247233111806
0.502105478651696
0.502251288553854
0.488689194971489
0.498195568184089
0.489506292061587
0.48798854211998
0.488323060452691
0.49652628281354
0.484646380784055
0.48137950066295
0.476299045998884
0.477767942701968
0.46161677065806
0.464018601871492
0.461646044661049
0.460767526554581
0.449340614147597
0.453058480507572
0.439729883992326
0.43961662386688
0.428785973960081
0.444216065844856
0.435576860925595
0.424189409188265
0.412050793317767
0.418589541800804
0.414816534254819
0.413333176250585
0.409015617497626
0.409797463288342
0.40525019687652
0.409688591869959
0.393850636560234
0.394336354439303
0.3865591865218
0.395763625262603
0.385364494188541
0.385409551513214
0.376126947760677
0.37430793343222
0.373013405367903
0.36847896023814
0.36146723348691
0.362119937875407
0.358499783744892
0.361169721743156
0.353309017919004
0.362784440913016
0.349238776450613
0.349866717026223
0.349342380743112
0.350959911728449
0.338369842850338
0.344657394061266
0.344833725333797
0.33799308480851
0.332126940613087
0.336823862676966
0.333085087969948
0.337371157893133
0.32542731714583
0.322150844027011
0.325584109773874
0.329195679853771
0.325445609442982
0.323511120637121
0.313336459000937
0.31996986981943
0.31609273260907
0.31552854184786
0.309366451804675
0.311034446209406
0.311169099199786
0.3141633654171
0.309627301965733
0.307239410316474
0.297251407434087
0.306598325385823
0.295273066499364
0.296783009173554
0.299022253973636
0.300276624397466
0.293552294622635
0.295422483025864
0.296237201187192
0.296879735217439
0.289909381971008
0.292554659802083
0.286815164822483
0.291336884054794
0.285223681172924
0.289332477737978
0.285029773364854
0.280614301388512
0.278377890881129
0.284201881066846
0.282558407495755
0.284122790586699
0.276621226240704
0.277522410709724
0.271697333212729
0.278274387903601
0.269864547788125
0.274224920093927
0.272757034635105
0.274506061904685
0.26975358403521
0.273487018768442
0.268698031555083
0.269287160135924
0.26382730593586
0.26865910641937
0.26341565060465
0.267861295102315
0.26120018574825
0.265885574959499
0.267455498596436
0.26460922159917
0.25514044032783
0.263029132782978
0.256579255148401
0.259235656025701
0.257276166395047
0.258351552373587
0.248950080677288
0.252782449927953
0.253515469342484
0.254987941430212
0.249647866194557
0.257072991340903
0.251903128695777
0.256773596424781
0.252555825170539
0.251464650473046
0.249961541667326
0.249288828458883
0.246414578349087
0.252776755825178
0.246525008867947
0.25120972378069
0.244776265336952
0.249568468580723
0.246233607048082
0.244363668138192
0.242636186930661
0.245412556859465
0.240822031066577
0.245622203880261
0.24227893499886
0.242929187404467
0.244521793478223
0.245849646921793
0.239302239284732
0.240649827894778
0.236530157979765
0.243261915485029
0.241344980865897
0.243865477121771
0.241103470316754
0.239933959660174
0.237030761094309
0.23951474922362
0.238252392860055
0.242619251264503
0.232172893055697
0.238136145152657
0.235468360465154
0.238333585091307
0.232871663138215
0.232822329121783
0.229482945296977
0.233782874072772
0.231761112252463
0.230402734082971
0.227598518374533
0.231427822351081
0.23019442619603
0.233279573786619
0.232312226431325
0.229407614432786
0.228249571626205
0.227007365486294
0.220978392659455
0.22961405667235
0.225620885318406
0.225632762912206
0.219824861000156
0.227138538039977
0.224080175621091
0.22043202015437
0.218962176848372
0.223143167601312
0.21813779856237
0.219317000348584
0.221718270414065
0.223277239900509
0.216906343452658
0.217355204298279
0.21301281268995
0.218064470771237
0.21336541654448
0.212492912177929
0.215806077308859
0.216647932948144
0.211879478712012
0.211097562676247
0.208749786650037
0.209289455846116
0.205950107964043
0.208126718846869
0.2118179382909
0.208163397201263
0.205020502988276
0.211608887117086
0.204845277092083
0.204688459018365
0.203109000709769
0.206260654213895
0.202576895330576
0.201597727610936
0.19761130088365
0.201201764598747
0.199268065498822
0.199875981359059
0.196903944465337
0.19912532380533
0.197188175040377
0.197483781515453
0.192657972789685
0.192682498796673
0.194272377934547
0.191276361211088
0.188707774209147
0.192162582193892
0.189824951978053
0.189604058324821
0.194238475196095
0.191674381404017
0.183642013315672
0.190679996439523
0.188012441437277
0.185773771702082
0.18247835245079
0.183846046770771
0.181166210192417
0.182456687746352
0.17594331590843
0.181643640407292
0.176417147254119
0.174560091856724
0.178505953323277
0.177777961629106
0.172541423981968
0.175884817063479
0.171357119932493
0.17469137905963
0.175587674826692
0.174347327507064
0.171988103933882
0.171068270625739
0.167911058991031
0.170305254605464
0.163027632435233
0.163405192489832
0.168516280861733
0.167755590695794
0.164019492783377
0.162409480202825
0.161296509543234
0.167750659744504
0.161853960844724
0.15980391781889
0.158085419672731
0.161021744774272
0.155569983403534
0.158374768253056
0.158690334475223
0.158782933017562
0.159780934654791
0.160859480006199
0.156348727911342
0.156321695515666
0.154810405797088
0.153349422163456
0.151870975291661
0.153722134703868
0.153263592481403
0.153394107911951
0.147298755104765
0.15088288661962
0.147394405031118
0.14945706700746
0.147515656689448
0.149688788436605
0.145138861251938
0.144384844773034
0.144524584903881
0.148606437237618
0.144480183190522
0.145052861500824
0.146836350309587
0.142591978013125
0.143581733768533
0.144033523636468
0.139500415582639
0.144811604400694
0.142682455749768
0.140096666836306
0.139788488996004
0.141797987654051
0.137981144787348
0.139998093442356
0.136454494768526
0.138910177384739
0.137795939299277
0.140220128728083
0.137610600253911
0.139979069131828
0.139473383834157
0.137458315700394
0.134352946377962
0.136839584323216
0.136198963373457
0.136910826866632
0.134944242736502
0.135950964399285
0.131653367917452
0.134728923447306
0.137770908711533
0.134412877728064
0.130060038194788
0.128968038491634
0.131820518796652
0.133789383030006
0.131587290093537
0.13320940789564
0.129268374961745
0.131609607396235
0.131860603098161
0.131590866129509
0.130126256050338
0.129033103363352
0.127054782723802
0.130850434468263
0.127526924188109
0.128433750620472
0.126977262158037
0.127919512827182
0.126909441483402
0.129778527134987
0.128845607765412
0.128099705306932
0.124463227411979
0.127791593542598
0.129234618109661
0.126020508552558
0.125309456036082
0.126744531299761
0.12554053581912
0.12275814814262
0.120783302883168
0.124388187366529
0.12309853047366
0.12139224409562
0.120164379570753
0.125363657301202
0.121717133221152
0.121520904895592
0.122488582713881
0.121210294634269
0.117424654911971
0.125236766006879
0.122218236338918
0.119173233962463
0.121089511415899
0.121766731576954
0.119457323365149
0.12040603412835
0.117213997442105
0.117347798552111
0.115262300070203
0.118567913314979
0.120052339136308
0.116070744969418
0.114265082818917
0.115436602903123
0.113494813577569
0.118675125066263
0.11525643845134
0.111314287080997
0.116822758417378
0.117097957552341
0.114277514206727
0.116499641260227
0.113070052530292
0.114661400145124
0.114064818545878
0.114301121992436
0.111885651069395
0.112281338898205
0.113311949162887
0.114316229306486
0.112011415565798
0.11148262559699
0.113741332275548
0.11307244121053
0.111683299942721
0.114101631005993
0.108345186621958
0.111864425864328
0.109270314986114
0.112088814330751
0.107046853298272
0.106024127163968
0.10970585343387
0.107575260148021
0.102724643565142
0.107000196491355
0.106419417184883
0.106777816033365
0.107605496543546
0.105698991461382
0.104048125982623
0.105012745137165
0.104000129516583
0.102662581969603
0.100539760377718
0.103385343176067
0.101389318315758
0.100781078902492
0.10104367418084
0.100886584364101
0.0978556187001531
0.103009063568222
0.102480636145099
0.101383417465561
0.0975476626371019
0.0991356464416341
0.0987183450563284
0.0972731125317267
0.0983086164246723
0.0993234934150366
0.0958203946700315
0.0966166310147061
0.0939890470281271
0.0947826820968118
0.094718754931261
0.0955565517974967
0.0932795651457621
0.095269402902554
0.0955791897287972
0.0946130441065407
0.0926862284686619
0.0927399051487632
0.09039440140861
0.0917118438481563
0.0893930027455255
0.0902652123724193
0.0884735945174713
0.0918825866836483
0.0905383153651502
0.0917442607008198
0.0903662047290865
0.089649578894834
0.0899350877421826
0.0881155494822552
0.0859431749875179
0.0902429379440264
0.0874971764919393
0.0868185584027416
0.0848092842822121
0.0882288267695153
0.0860343529549197
0.0850685508926121
0.0825727506897296
0.0865090145721275
0.0846187854964058
0.0828055132495611
0.0847626612171037
0.0862703295393161
0.08233731901703
0.0838898192264403
0.0803861244231323
0.0831437937812309
0.0839201527547288
0.0839641403785656
0.0845681983627877
0.0814482606943816
0.079463685614882
0.0797378208657269
0.0779855634207843
0.0827952025248038
0.080101928018823
0.0785525379748024
0.0735143002520976
0.0779761842491898
0.0763882744936324
0.0786292252300047
0.077240893606637
0.079105299984512
0.0754829208954831
0.0754187967867748
0.072097485803899
0.0741946153597255
0.0733225004785435
0.0776125119704054
0.0766929949560236
0.0772589750040764
0.0747037434526428
0.0756116436086721
0.0723634767271858
0.0727245980799728
0.0721296996236175
0.0758694423929114
0.0720851751947764
0.0737148488593258
0.0710326889073797
0.0730319324576122
0.0718794441587445
0.0731724321534466
0.0697526040476419
0.07416513620121
0.0686363947523249
0.0724737452155586
0.0705956053669319
0.0726717685416988
0.0698297492435235
0.0700484171980608
0.0674394388694989
0.0734452359462819
0.0680035362594658
0.073092574017086
0.0737651732967834
0.0722865683008777
0.0686940182724122
0.0680117934136089
0.066334118967348
0.0693737066032683
0.0659468069275623
0.0658879762171356
0.064171706856497
0.0662690476114731
0.0668709869631173
0.0720989075087436
0.0676347351590993
0.0699007196115648
0.0566697765465015
0.0640045904827144
0.0669730976337093
0.0703557173847763
0.0601289707286297
0.0700842667343948
0.0612015769386179
0.067909038314884
0.065470265979136
0.0663754999850401
0.0678003525567499
0.0691138941672211
0.0647032569444643
0.0698485318922612
0.0602874900530547
0.0707004818977507
0.0639287208301662
0.0710894340247021
0.0606550213317791
0.0675645176528927
0.0573310865140854
0.0658195511341978
0.0603394458946412
0.069278070087558
0.0594996419171059
0.073433415595773
0.0642747896281901
0.076047761899276
0.059808460396481
0.0722626888337502
0.0633333468770817
0.07274704313488
0.0611876045758511
0.0754231582958511
0.0662217194016611
0.0731345388210638
0.0730043426484829
0.0669691628751622
0.0563696381734897
0.0601042423651265
0.0681715281613657
0.0636426103654683
0.0722299801624482
0.0497979341557838
0.0689508085114387
0.0546932547545024
0.0843605787338669
0.0438857283723506
0.0766717166248422
0.0470394633441914
0.088282240122335
0.0428722045504193
0.0852559535151579
0.0460712317330342
0.0832514298355928
0.0403128953307378
0.0750753069830483
0.0506706273387265
0.0720230513818591
0.0582865504281811
0.0636502871036788
0.0572142349916373
0.0642671615025704
0.0615285494220224
0.0607692376032404
0.0585464771792237
0.0628059995683735
0.0560188283051243
0.0636606969163799
0.0586492497151592
0.0625703708987597
0.0571617478599876
0.0660912774514536
0.0567918179672546
0.0614888986805774
0.0576998266431752
0.0580974794925555
0.0574429079830214
0.0631868089717014
0.0569207239170342
0.0587789631920625
0.0567438718384341
0.0619543840133708
0.0576364704397582
0.0602028921358493
0.0577282718965431
0.0624623797037135
0.0570599247419934
0.0610657612720441
0.0579016274111574
0.0625547584915531
0.0570285297610509
0.0599712177574626
0.0577017099384068
0.0593839626661882
0.0566909922821053
0.0601284875483369
0.0572807439471843
0.0596969154380837
0.0563744339432727
0.0612060556564041
0.0587832430203955
0.0599381129643411
0.0593354912297297
0.059711139326044
0.0553408521173961
0.0612362260272822
0.0586716741812152
0.0587404970101608
0.0566253796115312
0.0638229249870551
0.0587501986421392
0.0607660265681294
0.0567914309477232
0.0605959641521508
0.0592958726421948
0.0588282883934606
0.058257674337265
0.0619797380489019
0.0578223680420805
0.0582866774073744
0.0571086040584208
0.0587283322250654
0.0573439690377073
0.0591316720440844
0.0555606298830146
0.0611195540215807
0.0589416118456789
0.0614956637835359
0.0582692293485257
0.0597261133327502
0.0587269168039703
0.0590342022069847
0.0583161214623267
0.0602724756843042
0.0551706935168747
0.057470258883858
0.0575923824766669
0.0593379086093345
0.0580287315216955
0.05919590632142
0.0557219372658279
0.0569107279330213
0.0580058329410563
0.0584121096528515
0.0554653636164286
0.0586820104881709
0.0580295597296847
0.0607752383307176
0.0606404835591992
0.0617322203961929
0.0599514247204258
0.0590650706999601
0.0582085854243723
0.0602681816477561
0.0585633506141265
0.0601102119337827
0.0574857156069045
0.0594327655556381
0.0560136570829246
0.0582112090578609
0.0563189023580232
0.059454574986695
0.05990669009119
0.0589745952598954
0.0568926961691398
0.0610808872025228
0.0583097399482781
0.0599148803223952
0.0581918645689665
0.0627612048360252
0.0591133816160107
0.0607491589440883
0.0595716234005502
0.0577232785606725
0.0584711400081343
0.062294264581003
0.0582195512485001
0.0610723267307823
0.0593334213818943
0.0618542100516106
0.0614991926249491
0.0619762244486485
0.0607526629460261
0.0634644327083213
0.0586701517594823
0.0609025271176519
0.0580701392767256
0.0583901488837587
0.0612523149889382
0.0614870368523094
0.0589073879355417
0.0595666298654821
0.0580899809902834
0.0618579749998674
0.060260961473574
0.0618503005260981
0.059165199629384
0.0584954220516979
0.0582043275620096
0.0585945472635937
0.060028433587894
0.0607545198479033
0.0600233120593512
0.0627018576345886
0.0602286469458483
0.0635502910048633
0.061321048361823
0.0605865712610719
0.0600846114726468
0.0618403317357233
0.0610143439922988
0.0642171640621017
0.0604920233233712
0.0631902551029904
0.0615390164513905
0.0616618401921319
0.061707361488791
0.0622204462305818
0.064237811430375
0.0650736206760826
0.0632783302841075
0.0658495558468249
0.0619632194394863
0.0630750359150634
0.0625588796686418
0.0635669698525522
0.0612470830227817
0.0619482275080691
0.0626963972005763
0.0655827194137785
0.0634287347497112
0.067277262393149
0.0620279530185599
0.0604364732852377
0.0610452672690716
0.0653968998668413
0.0620393629921659
0.0620945158429019
0.0615226157840721
0.0632609260973704
0.0626279699952347
0.0634369781303709
0.0612153383326148
0.0607056829697103
0.06179629615414
0.063115308278108
0.0602013686820634
0.0619462799206936
0.0604277080036654
0.0621531270431323
0.0603465036033462
0.0622494756525813
0.0609421318644865
0.0603086185152727
0.0594033634199917
0.0614277322289738
0.0613398824733528
0.0609279903771434
0.0585106960203333
0.0590016723441219
0.0573790711306514
0.0583103853781389
0.0622832297131059
0.0596369184785557
0.0564957903446307
0.0573593435020568
0.0546481568878139
0.0608631080096066
0.058850664158359
0.0601695838804901
0.0570619624335147
0.060618322751568
0.0566194179314187
0.0607331431028566
0.056079573828554
0.0556919782618578
0.0590702446498272
0.0610540927472816
0.0586600768005354
0.0576540071149671
0.0580326966584919
0.0596929822527056
0.0556355600122815
0.0588384145341277
0.0593353980677705
0.0597732756723687
0.0569385485666725
0.058814672902969
0.057218152357513
0.057767112168669
0.0560840710227844
0.0582654200299134
0.0557232246120531
0.0597716684550487
0.0567564540120073
0.0589917031709347
0.0560490973612918
0.058385736799061
0.055061115203515
0.0569771531236201
0.0588447365824658
0.059929430119416
0.054201328761864
0.057359793040801
0.0546793370000752
0.0578862352325873
0.0548942542589709
0.0570686815320808
0.0561855101298848
0.0583517621639528
0.0608289711664056
0.0588046687843964
0.0569830047019994
0.0577162982480598
0.0556430430172142
0.0574784036695731
0.053345741462269
0.0547244055920981
0.0541415180411481
0.0561802859475214
0.0548424490952511
0.0540184047957061
0.0552506892690944
0.0581481892549355
0.0549735466049317
0.0547696398182279
0.057252576188265
0.0570744104971224
0.0537517638634307
0.0574773557181672
0.0528091957101385
0.0568986122021979
0.0531024510273249
0.0570161059073075
0.0540234374147273
0.0540017816857293
0.0519723796433627
0.0565752349462805
0.0551109277321294
0.0541065362565443
0.0540925864846798
0.0574160740505064
0.054058847159192
0.0559101023545968
0.0556047705993805
0.0561951715842035
0.0543008101419174
0.0553104970418112
0.053673049700651
0.0551252228390071
0.054662533656637
0.0548988418101494
0.0535144924788918
0.0549978573251758
0.0544525539046757
0.0567333808940953
0.0541435545701385
0.054856524861521
0.0526017699798148
0.0524153550328922
0.0532886477033355
0.0529279909809744
0.0485971303357853
0.0542397518535766
0.0518932873318244
0.052742604762289
0.0506863094789933
0.051961402277303
0.0510810490177495
0.051650911958456
0.0479717255463199
0.0522655884311064
0.0508170285033267
0.0512138551191304
0.0507007265142441
0.0504522500203298
0.0514328595934566
0.0470359131147809
0.0489399870221244
0.0502224248637294
0.0499247574892278
0.050118789819364
0.0475126459620114
0.0479346433507211
0.0484157887346302
0.0480571803984013
0.0478636706468014
0.049028251945234
0.0493922658507298
0.0501961758347061
0.0487430213136563
0.0471220836726928
0.0460127816795958
0.0493644881439999
0.0505167475015729
0.0460422270731955
0.0468148531325739
0.0467613311364209
0.0506139351485601
0.0424957288984594
0.0488942029383792
0.0512078597048407
0.0464945879663178
0.0479813445485784
0.0474689860613157
0.0486838883935405
0.0458287584605585
0.0480176608962942
0.0444387083945301
0.0488841242104764
0.0460335889379611
0.0470995319521386
0.0457756708376126
0.0484138893065266
0.0437977726339851
0.0487020905108836
0.0459288847596363
0.0462668407846439
0.0446808646908726
0.0462946353713582
0.0420693653188646
0.0450644184911366
0.0452654852103817
0.0460758351826185
0.0444166100227641
0.0457224577205061
0.0428686904882141
0.0504102329281246
0.0478723795601942
0.0476991261102376
0.0422087447000782
0.0476653838197989
0.0428895484701141
0.0477772188480885
0.0429920439245544
0.0473074652254303
0.0453885203725837
0.0464404742257595
0.0419068332424688
0.043732680187782
0.0441984060008047
0.0447181074075785
0.0408247082139
0.0473580943178704
0.0417209452809125
0.0437076517901757
0.0412603985750294
0.0456549385498898
0.0421511918802094
0.0473013720181739
0.0389631718276011
0.050166720176633
0.0384414958276382
0.0416198702751467
0.0491428005062927
0.0438741920752715
0.0421119335719291
0.0395061920292145
0.0433819895906039
0.0416908563237504
0.0408420724430475
0.0433266655983148
0.0431255768561438
0.0445617410522455
0.0456328237736914
0.0411192088688147
0.0407491063047189
0.0431539577179634
0.042202261961785
0.0421358908525747
0.0393843209975642
0.0408261629428133
0.0436708298087915
0.0415879665766112
0.043679775975363
0.0508662801259728
0.0412110784079162
0.0456392414244177
0.0447852781514385
0.0330536391102639
0.0537085898574517
0.0404967728234142
0.049015042573634
0.0400214866555284
0.0441653463587798
0.0414133589562745
0.0439454947502556
0.0391941103123402
0.0438578268824362
0.0416610942798147
0.0401612625495694
0.0468270991271561
0.0404574830553312
0.0452377131188281
0.0404659212300051
0.0429479407221783
0.041155447400281
0.0434539501405486
0.0427943720078866
0.0422662384780266
0.0400340695026499
0.0427200616655112
0.0453105613198176
0.0368064950851901
0.0401771462333799
0.042870285457046
0.0418114223892559
0.0415609396757512
0.0451517533331155
0.0362295005855063
0.0374603189234135
0.0529252653372019
0.0402209670898224
0.0476256223508465
0.0396831338883169
0.0474155476298487
0.0424087222988235
0.0439856913368476
0.0379084055504243
0.0428334694193199
0.0399954593643024
0.0458813750988506
0.039349892420363
0.042756773744315
0.0394433496271678
0.04425292798418
0.0386353956171734
0.0439056542345839
0.0435913690933478
0.0404283871636166
0.0448403544148425
0.0341606812225635
0.0409712368138565
0.0486531297962779
0.0503932658018867
0.0451853892329959
0.0430130173770919
0.04336994933688
0.0420479855563026
0.0424708434357014
0.0422695352784384
0.0429741337679499
0.040232604762601
0.0443028966744883
0.0417690042173763
0.0439851264282418
0.0394751705419659
0.0445863113191037
0.0388796680566699
0.0451059254652126
0.0375586842518914
0.0444812546063158
0.0371567546884873
0.0458386974924209
0.034653405676053
0.0517131736800777
0.0358346670012894
0.0541732963656725
0.0212376423339262
0.0645243429555817
0.0480519048625178
0.0443521314753308
0.043461142543343
0.0411858856496107
0.0437056562133232
0.0415916564510989
0.0404217013481975
0.0460661263585033
0.0416876714157285
0.043972325024754
0.0423661392519889
0.0464827707180465
0.0468582803993519
0.0375275349717746
0.0385124473909666
0.0559277674916479
0.0436946619987588
0.0533081740379994
0.0366507096780175
0.0401670078022444
0.0540007650418277
0.0431250804478043
0.0518618401045282
0.0439928773533015
0.0449847566511032
0.0438486143509529
0.0442564328464986
0.0409469023434235
0.0433336175018819
0.0475156947764988
0.0448520066466865
0.0472255655693999
0.0432473224030336
0.0499029358302197
0.0400046871140464
0.0508367651011715
0.0514450435939741
0.0438152812107632
0.0483415229857853
0.0451813655126588
0.0449709182141754
0.0461195534037236
0.047911525860369
0.0418189871612945
0.0472910330802114
0.0553528725407617
0.0422164433495587
0.054939497546182
0.0528131428016816
0.0444211571040388
0.0492811503965218
0.0458373060180584
0.0631543650357273
0.0340654451760422
0.0515526439888398
0.0646762850645596
0.0490859692280308
0.0682860168125742
0.0413299682103169
0.060222205496719
0.042615866383274
0.0579871658623442
0.034914826057366
0.0698389990952728
0.0389780575015954
0.0640711517675197
0.0346845620401259
0.0621427175271584
0.052147224087809
0.0578980197449573
0.0513310016215658
0.0560843981703609
0.0433402826147305
0.0663344723185265
0.0479640709845462
0.0413005550640588
0.0586771652610871
0.061824422244473
0.0704321070522632
0.0569851963810309
0.0403284125811499
0.0824914140083873
0.0465238859861799
0.0637131947925145
0.0456506417648539
0.0626170848180747
0.0484170525614583
0.0525864608092071
0.0665395046657318
0.0572907110062339
0.0573047903275444
0.0632298797925037
0.0416943936654939
0.0722763157904429
0.0561578544838834
0.063996377012106
0.0524357413753781
0.0721516862184659
0.0344298691180993
0.106120726836084
0.0546913330751729
0.0728957556347111
0.0669036217714843
0.0698772389250781
0.0704209082050858
0.0689356076298993
0.0648463919348727
0.0702767566989442
0.0753756748769396
0.0773058092982856
0.0561021149462883
0.0742434311272092
0.0832852587571782
0.0643197619667027
0.0826681493640156
0.06510205097284
0.0566169870804246
0.0811242372311969
0.0978161094331845
0.0966582999881371
0.0819728908463366
0.0751747471196913
0.0999899446058431
0.0820057389414723
0.0806926649954117
0.0815446919040631
0.083225676190444
0.0838438995449876
0.0775556602447395
0.0964421293213863
0.0819449742983078
0.0946182061287136
0.083156060119633
0.0856184003656915
0.0789894134284212
0.107659140289089
0.126254794360112
0.079893482499418
0.125078314931828
0.101193313641443
0.10890012384723
0.0969149898587822
0.0966994207442108
0.109278613001497
0.105462829642407
0.111133408545236
0.092224708524717
0.12066863934213
0.106384845347432
0.111412933138397
0.131331437394242
0.113218676557095
0.124804379315359
0.0580072480672879
0.258853600517209
0.118898705298143
0.161177513468824
0.119208509762744
0.132383067597739
0.192745583328307
0.156318707740192
0.158249145061586
0.164042508783443
0.159896443568401
0.171927362548049
0.175284987830306
0.182040199511385
0.190169434728062
0.200467072166568
0.176841676706228
0.205893705176445
0.235122340028814
0.242488312952103
0.240416024779688
0.226519031709222
0.241545514248471
0.253086205493504
0.239286360913402
0.259500484446332
0.248097669219528
0.250950273431532
0.312119488506799
0.27402610263215
0.300737696292881
0.27438518465402
0.334407201303009
0.264952801171592
0.364245433936048
0.323051953917228
0.340553877824011
0.327575684512875
0.345321968188913
0.347009061265608
0.332332672621622
0.369257722427405
0.373560253632473
0.36584550716339
0.38071279852522
0.377908968933406
0.392486171421841
0.38323178686735
0.404992587574275
0.374272105432972
0.432260089983334
0.352622336814796
0.524603645146097
0.413767943336463
0.41914062109906
0.406040211114219
0.401938057343878
0.426098366189763
0.400947407311434
0.431522415656978
0.422842253441446
0.402055783359275
0.428516929388257
0.410446598578686
0.419757165234587
0.401367444467281
0.437897753822594
0.386861693636234
0.445184275362474
0.36952062235522
0.430392771922935
0.432904935724492
0.410810279295629
0.415267254963751
0.408455067390189
0.410136668187843
0.416602566822695
0.40085643496163
0.404474224000924
0.421077830321299
0.391823334782493
0.407024747403551
0.373349103271193
0.408380746259274
0.399066370399323
0.378991241802973
0.38825446842815
0.368911458707857
0.386569563004526
0.35609950903687
0.371870496387746
0.411710158231259
0.366032419596817
0.375534335409679
0.357505345606966
0.368489554718911
0.358505767468277
0.362139313632678
0.360005388465485
0.359229770274919
0.350206063478765
0.357449881748397
0.351589007439897
0.356441490354817
0.342146117123663
0.348244216724911
0.345799219946038
0.348861188093435
0.349618722624089
0.347492156017718
0.348285255351833
0.343378286783895
0.34144434686257
0.346895606779853
0.34446402756642
0.348033793718414
0.337926962788396
0.350035208137621
0.342015921322983
0.340067123435956
0.343432169510829
0.345738431895913
0.343792731187918
0.342730864745726
0.341241043897805
0.334389711768996
0.337472437604685
0.334344156340106
0.341523751237031
0.334208332972418
0.347012988578031
0.333041000828407
0.346850265831378
0.291998545193724
0.374937114460404
0.344476400675227
0.328879697420729
0.334797364454772
0.323067196360355
0.334140011479131
0.299753828245674
0.354381666119075
0.325799252362868
0.319249331091535
0.319512141135197
0.301261198122498
0.312021686466312
0.323243545670945
0.287996973585949
0.320136264436865
0.272103046535792
0.334375037665114
0.306945365556771
0.307232535539718
0.346013189268596
0.311869662734871
0.291115161854105
0.276101623518947
0.330635284054652
0.276235485054725
0.31084336218682
0.26565933436905
0.322303907120313
0.290730974416756
0.284405627048904
0.289912032748126
0.272957323523707
0.284251027856038
0.305731554968799
0.273824095423226
0.284531140336753
0.308317441758043
0.269983064344641
0.299266062302352
0.311721358423295
0.295831367188065
0.260439925613589
0.267524586930069
0.262150935473332
0.238248355583621
0.306103827143428
0.252403289573307
0.27035890655203
0.249834940210653
0.248952552653578
0.247148609023915
0.252194930266905
0.249573971929251
0.222073865691679
0.283051973812725
0.217922032847698
0.263766339774213
0.22654076336273
0.243284877200846
0.248909989863679
0.244152558538434
0.215130011361685
0.240204607051006
0.258196243578606
0.216452310013566
0.243261490597156
0.218553874635734
0.212304709539414
0.234327495411093
0.207360314203096
0.220489644297034
0.220411201535418
0.197387072317826
0.239665967688801
0.213277142095185
0.240762855870822
0.216845559314884
0.202698333073365
0.20886325811252
0.198204896447998
0.219005128487829
0.18579338466717
0.227162743616684
0.218095250257598
0.176671726276521
0.252135659688219
0.207047547866862
0.212040930435298
0.211830697242971
0.209421543625974
0.207148427208407
0.219239612419536
0.240689045327627
0.229772562400049
0.224541692220279
0.248085829590561
0.222382679993006
0.242922689867825
0.229471805409807
0.248623850440457
0.238086025851973
0.259963400314308
0.254051735083868
0.26272192434643
0.264145164106358
0.263393344775791
0.270020964925318
0.314655146013742
0.26205502370497
0.333024433068033
0.284996320761292
0.352453448160721
0.319334720300777
0.32424158908882
0.327613039131089
0.330716220625067
0.342691820194012
0.33641730215196
0.32694719334536
0.393103751828367
0.347291995791609
0.375654754957066
0.354004507086518
0.388153137251627
0.352898428330463
0.404396225521969
0.35353874769034
0.43122027614701
0.415217139564355
0.391905229512521
0.404570330253989
0.383964441298483
0.407926402334025
0.401733838782076
0.399402748656354
0.403795052349772
0.395954924496475
0.428372402477669
0.410434328144844
0.420789994842303
0.417442332407906
0.426135326335986
0.417619721611667
0.427610043731965
0.434094700527956
0.429724236323877
0.430368952884401
0.452830817171622
0.404050164609115
0.5072502660678
0.449671915848286
0.450759632657571
0.459258929980939
0.463767536269644
0.465520545052142
0.45865347072505
0.479614752083531
0.47859724894052
0.474958598461384
0.491808965146214
0.482141362210243
0.496765710472463
0.47494686558157
0.53110312937813
0.480702963385686
0.520970795324027
0.480398749696075
0.512450185049392
0.549991492404643
0.512524584986923
0.53631372320872
0.507323414820008
0.528089720857654
0.51991807601155
0.527232566336498
0.517945027099054
0.525032441020446
0.522433743188924
0.524210601781073
0.520809683044191
0.534433598236519
0.528843724886782
0.519900855555197
0.536371819676536
0.526571292830156
0.532498747038944
0.520669009653607
0.530051904141342
0.523837826956314
0.537832345348418
0.534633239521178
0.522594496963669
0.527510037084813
0.516061459107361
0.532217886489793
0.532488878575702
0.516140082326199
0.522158349547336
0.518670430194399
0.524316059864484
0.5236010891524
0.52184733856802
0.547355569289172
0.52826596952187
0.537667506878898
0.531932768561587
0.539226986029386
0.539396913928241
0.544954428040237
0.542088057176534
0.546838545648501
0.537314064950202
0.548641247382232
0.546111781999145
0.541435789538513
0.553510148336725
0.554108663934131
0.555387449078845
0.543040294660582
0.543756304262431
0.543547232594577
0.529681243960694
0.541497259590533
0.530958497408058
0.526658523770671
0.525835410115251
0.524542533210676
0.49915034437573
0.530598051853013
0.503273111191126
0.51271276522693
0.50293163673556
0.494749399502226
0.48985935933378
0.485497225518739
0.477918559798694
0.474208227372933
0.482788628258038
0.473965693332171
0.47411175578993
0.472500090320925
0.475172178903067
0.464965684929699
0.460883787606954
0.464649393363189
0.462201058753148
0.462471892157609
0.465073611935469
0.465169113689312
0.45761338079233
0.463178204348736
0.451956647943339
0.464213504188567
0.460133170598402
0.467588566088722
0.467276454832527
0.456510306336953
0.464604842244725
0.455760419669157
0.458740277940882
0.453174251704291
0.46009574688653
0.45400424949588
0.457894300650102
0.454367373211684
0.461068504057568
0.450929423536662
0.452663686561017
0.447114077665037
0.456093255850909
0.449677310915037
0.456521320515899
0.454801504482361
0.455134864816193
0.4506743052164
0.455147557559886
0.448595075245213
0.455983306250263
0.460074000418445
0.44908743643463
0.45386464119803
0.4554923153451
0.457920627210626
0.455895577945821
0.454728388890144
0.45436509507197
0.449851421747339
0.454595410003952
0.45178635068898
0.451916907920447
0.446523512966696
0.449508424652056
0.447236558811139
0.440543660171558
0.441554690202091
0.441070974124586
0.430079927678616
0.428697140777672
0.423467911201873
0.425442257902123
0.418713824103169
0.414683585904798
0.410768978594756
0.407660249547586
0.405529429382423
0.406838970121559
0.399207063210403
0.396431531846096
0.395333109946851
0.394545718687743
0.390194660084461
0.393360085491318
0.391155019880987
0.388840547144631
0.3867081631097
0.386336603531937
0.385092453917091
0.386917228761673
0.386326240528422
0.387510478509442
0.391112001347442
0.39228970691571
0.389872974981352
0.388796089180224
0.395323030191848
0.396906333311704
0.394486524100605
0.394191317623008
0.399063948746999
0.402577860160379
0.405281116262291
0.404930919682642
0.407707714231461
0.409407507432441
0.407369359781624
0.410184053008613
0.413584995874782
0.413783013986692
0.408091792289357
0.414041713303967
0.41653042977152
0.412503755743016
0.415448894376126
0.413336229216323
0.412425101088188
0.413741109326379
0.408854786993038
0.408927217588475
0.412711206112605
0.412079885079394
0.40541684530422
0.409449351902724
0.408984842723286
0.4059770442441
0.404859568137419
0.403143660479681
0.400712366172557
0.399480540331944
0.396559061815452
0.394347469069141
0.395217768257289
0.397775867074468
0.392724279958319
0.392815713079422
0.39252895705403
0.386998733541582
0.386808128467344
0.389484372654995
0.384137841767003
0.383101455937399
0.385519700331662
0.382393189837173
0.379652076380202
0.381120017821665
0.378869554832708
0.379379901596912
0.378963861863152
0.372049333266352
0.372246817036993
0.370711499782009
0.370383356882156
0.366684322090749
0.364240156989152
0.366405272085242
0.360399246180155
0.359411524201785
0.356028203585904
0.353751023406575
0.350999067667355
0.348970682035324
0.350841538957813
0.347422389224634
0.341408284344069
0.338718083346769
0.334487449666631
0.335731717280606
0.333438525988302
0.33345232907353
0.332712522978817
0.332437708888018
0.330047976782985
0.329007885006305
0.329545512154288
0.328374729694095
0.329067183291329
0.326305581282245
0.325131973307577
0.324266259831076
0.322143383332789
0.316414775675573
0.313582624376938
0.308709768905108
0.302084113861016
0.300693772115577
0.298084403309012
0.293297275330234
0.291130906743042
0.293652315202697
0.292498554928067
0.292418460778003
0.295896969645291
0.300726416579076
0.305736548537922
0.311979237014361
0.321496153381507
0.329825092699921
0.341243986468079
0.355165898439297
0.367816786312102
0.38271144492849
0.399152601162234
0.416501672809641
0.432880160236041
0.447438352143336
0.461991815339375
0.477033882010031
0.495320370567948
0.507400199691884
0.522006585206165
0.543208293356127
0.557994080302094
0.565802909589972
0.579816182910969
0.599083299082078
0.604202352159686
0.615375717719751
0.629713326266449
0.642080555465013
0.650866867860263
0.660645901409674
0.666034842783328
0.669051495181324
0.678538184158392
0.693001184392835
0.695562023469258
0.699805819782488
0.704241265465787
0.703706754683204
0.705949637604675
0.709178246438873
0.706036051606894
0.709808450062666
0.708949871638629
0.711513604640877
0.717236274110202
0.718293873307865
0.713780638182645
0.717089807014362
0.71996661900278
0.722026018500103
0.727378668863799
0.733552795957545
0.743723278345856
0.744899329150404
0.747839614351709
0.757338420829158
0.762841283662687
0.76641266745623
0.782509120528974
0.789577223379791
0.793722661892153
0.802435265466824
0.813139482712279
0.825401428979274
0.834764877230777
0.848632519449912
0.86443905789482
0.870018052342046
0.879725039447466
0.88184634456291
0.891404084861616
0.905596327788899
0.918220582406964
0.918534928636451
0.919612136230661
0.92824980766193
0.924211911874922
0.917640724032639
0.926897883333068
0.926822390259863
0.921380667359074
0.917495480593146
0.9126241282224
0.914539918714539
0.910936635290321
0.911476566584306
0.923488419742988
0.934805344735128
0.944027149179217
0.951390614146655
0.970972975472796
0.97957317548846
0.997368643421267
1.02447482314061
1.03106273624065
1.05448257079881
1.07266822885288
1.08339724659084
1.09748452819144
1.11554995582932
1.13632694133936
1.17729701422548
1.17677438556966
1.1781739447928
1.19912184756821
1.22134124232068
1.23149756191355
1.24633035968688
1.28917017576597
1.30386142312254
1.33970011235425
1.33554194606104
1.34796139710453
1.39645094324657
1.42841236049944
1.44461760002946
1.47706338463788
1.52849040365515
1.52368885950408
1.50309637720889
1.53804715673602
1.55784632250914
1.5621243521698
1.56505885549895
1.56867255938557
1.58829406445364
1.62155700404765
1.55069509094225
1.5833496577447
1.60134836483637
1.60831296389619
1.58192821594651
1.56248318833278
1.55687194840413
1.52882121078808
1.54951772728551
1.57209657882577
1.55003813056594
1.54728595744821
1.541585655975
1.55796579513359
1.57930221053036
1.6136019384859
1.61433141191548
1.66934788422114
1.70023574011489
1.6641550260804
1.65488606131487
1.7474842565452
1.70501378803752
1.75141984369671
1.75786351975082
1.75903741319489
1.7448423031694
1.75906069891212
1.73504594826088
1.76134092556163
1.81005213509621
1.82470251940378
1.87410446587375
1.76906439574095
1.82418959131911
1.99252379785555
1.78130022402011
1.82750616472157
1.80560362211564
1.85752673080061
1.9824637682846
1.86276885243553
1.829396735756
1.80230775222274
1.83398993584693
1.85947859696657
1.82021254476578
2.02144420273846
1.86158147734807
1.75286118819347
1.75730130925112
1.78143535294401
1.73252191683338
1.6935981114402
1.74407534466548
1.64677241123824
1.57473921280824
1.58872084357223
1.55960927038486
1.45952317790287
1.38925093990049
1.40477958659303
1.32030764610659
1.2448098913234
1.20295896430658
1.16183545892065
1.12247532168539
1.09178132000983
1.06537900229635
1.04986058511542
1.02263703992331
1.00902076179574
1.01415013482125
1.02337835239351
0.988380879757263
0.977363053464371
0.968903385954617
0.960949467574326
0.953700306720644
0.943302606779774
0.925410852882747
0.912658531596393
0.898135824674651
0.872928644611802
0.850833833006312
0.847201220308437
0.825004326361759
0.79480584142291
0.769276203896223
0.741454638203235
0.733338893040215
0.69988527892817
0.673097945961923
0.640226013559204
0.603508594398163
0.583978927958695
0.552475724575539
0.528182426024894
0.498838882496379
0.477608193336628
0.452606080579089
0.4322157365145
0.414414969347561
0.392450398779962
0.379455737663417
0.361445842957892
0.348367054907629
0.335831190414413
0.322053956202016
0.320546162496337
0.311507826097274
0.304089547858671
0.29467335187525
0.291569974828742
0.2884290137588
0.285375897904584
0.283211382103287
0.281499567212665
0.281955446865639
0.281219513468741
0.283862511309179
0.283749570587323
0.282622510317068
0.285574993463717
0.283252788983516
0.286478896930885
0.288826179045724
0.290838250580433
0.291256244750283
0.290491564152618
0.292274354106501
0.290187077426238
0.287531178828451
0.288389920884146
0.280676372602904
0.280831267937252
0.281299856060706
0.272374888268415
0.272456745659582
0.26810857776346
0.264988423477066
0.265389343559513
0.266794677822312
0.270884587529798
0.26910383153865
0.27320627592412
0.274114743736331
0.274705783940507
0.277830171765601
0.280600866019317
0.284498908347465
0.287557211494837
0.288195105247173
0.293193601740899
0.292946608550892
0.294969357312306
0.297066226639347
0.302251159562003
0.307132175929709
0.305573228143237
0.305587168967112
0.307722559060403
0.307801576206079
0.311893976724146
0.316840463249064
0.313495097364594
0.315405160908645
0.320203441436947
0.31680183477803
0.321722302425158
0.320569829585169
0.324488479046433
0.336770708293094
0.341686843306318
0.342973128793743
0.347665578372552
0.356221860746464
0.369047011773014
0.376961858544708
0.401422827364392
0.411843729776376
0.417023347829334
0.424652067620219
0.436785681654711
0.439423939253986
0.440036003900267
0.436063634365053
0.429277910914553
0.42645386039001
0.43371545408742
0.422175888297734
0.416960469391245
0.399354675623244
0.386355042406921
0.38458857431781
0.388227963109983
0.387944663886133
0.382733559138951
0.377409134017371
0.377050077589358
0.374778948457377
0.373251343204387
0.37700543598741
0.380914070661709
0.374769852139697
0.38219133956358
0.380071176512397
0.371409326521583
0.36251063790861
0.356638790282209
0.353651490836275
0.350650447317225
0.341223655185774
0.350762682923121
0.335960083780739
0.33201384274131
0.337422376273036
0.341667580710448
0.331281767432129
0.317468876673636
0.317403051727766
0.321310419697469
0.321107225341181
0.321064242506053
0.315266392663704
0.31562892848902
0.312761072794778
0.303323111912286
0.297400225773966
0.297753481079096
0.29844967482417
0.297247500618376
0.296129326976936
0.299385516331763
0.291355501396506
0.288762268772651
0.285380993836871
0.287833159701215
0.281062081339629
0.283797322910372
0.280344596485752
0.285889232263609
0.280839206485381
0.277742285781058
0.279168036549208
0.274630487172293
0.267750012896003
0.274701500567048
0.274517770620939
0.270796503401564
0.272960803850447
0.267717325873985
0.258357772901442
0.269022599038651
0.266915156786924
0.273301009746425
0.263154254858793
0.270044439508078
0.267619269402836
0.271551704940488
0.274448443724001
0.278421941711282
0.26302996433234
0.282506456777854
0.281314986931661
0.285450702211523
0.274360223551217
0.279360091194686
0.283395271931383
0.271295779241785
0.280908764543637
0.291690451344137
0.289926170321222
0.300845251888193
0.29593952166828
0.289984828807589
0.295286948100592
0.304589327178379
0.307555433590835
0.308126284438203
0.303084413522773
0.325662474778463
0.334438154726491
0.332912893188136
0.346209173842492
0.336575969305273
0.352330222970933
0.375730974042065
0.384147527006386
0.384052566246067
0.396944821481252
0.411418546346711
0.421542380181319
0.44163779367224
0.45201625793235
0.472738488263922
0.476705021162938
0.502906635586901
0.499060464967978
0.502704996945718
0.508032892559559
0.516824647722188
0.530181788657157
0.513080643155811
0.510427955918935
0.53859020036231
0.53261388482766
0.524275672569229
0.513946317105179
0.492042211611792
0.489127703441201
0.517157250309649
0.516833203958088
0.500383927274229
0.5047128914705
0.534685646670836
0.516734031451701
0.492708093747971
0.491948856514785
0.504167291957316
0.466217190326965
0.459890805578419
0.471992519980642
0.481359273279595
0.473653319634571
0.473380586870372
0.460496014585806
0.446753160300814
0.447711146926993
0.433811430085813
0.43256383129299
0.409952434179918
0.422465161804559
0.456096156735549
0.435751068308071
0.436454771413302
0.435548055456082
0.429475812539172
0.420416949859578
0.442327095675748
0.408253149274845
0.414050814386365
0.408789773452324
0.402164257786002
0.424672706838636
0.420170795489783
0.422208104847107
0.451814521855216
0.443164688247829
0.423431302860063
0.478598694455283
0.438380521715074
0.448766561647659
0.477941259523849
0.449081127049708
0.452506018458907
0.46138049323598
0.467144679786802
0.470099133947874
0.469385479379657
0.424483799772146
0.44367739772796
0.463571982509148
0.460838823259091
0.458612731517911
0.48089559540273
0.472246760572652
0.448088106773009
0.50194056911542
0.525379292259756
0.511593334175103
0.517875438283086
0.49386829781396
0.538057756732374
0.53861490077503
0.521739942915997
0.540532806485318
0.530853758634149
0.579460658227986
0.64158674496995
0.559309495699628
0.553460373754561
0.656543513266326
0.584258425380057
0.596916726468175
0.731637501218773
0.701139640369762
0.64253528370291
0.648413937342481
0.664788439611851
0.710879563069094
0.606038809080753
0.620221760591553
0.604092227406989
0.626948658053232
0.788520230584556
0.674351342357924
0.633933524854671
0.667333548746974
0.626484630595379
0.631380369663644
0.608230532215605
0.681610174947963
0.58223474272078
0.572006701011583
0.544365289419955
0.593362338785888
0.615549077730205
0.523675996126956
0.561477073492434
0.506855798155291
0.631717845257653
0.542812022545858
0.70357879861445
0.637674784854677
0.507547059221559
0.646827154732091
0.462091900762332
0.515701135925144
0.564247768072528
0.542161923123195
0.663291500862106
0.748624264855684
0.690329137338475
0.400305454878187
0.763097798700557
0.658812514853593
0.504200424327156
0.73157766847074
0.639388426902701
0.835849262934094
0.457540578615879
0.707797199330726
0.762061436778319
0.524250963964988
0.719746459348705
0.736199485651963
0.615404292673428
0.709361437346601
0.674116988149692
1.11057769199722
0.558250345323109
0.661879843821785
0.276484485798752
1.23335407471642
5
0.743507688412423
