3596
4000.36533379555
650.420452594757
1
2
2
0.0613057907615115
0.0557890682946309
0.0686446615356712
0.0508082532985314
0.0688765209172018
0.0509030215736184
0.0668797085816653
0.0553321545795288
0.0630920205112162
0.0551861630307833
0.0724064443754283
0.0541064700422737
0.0660512217957698
0.0574536678945255
0.0661125962440171
0.0541804597002408
0.0656297794009516
0.0440560989820243
0.0654965686472628
0.052438206024498
0.0709151424239477
0.0459513303896772
0.0634897697173172
0.054158924111406
0.0702976605524064
0.0520787468602332
0.0702995807550604
0.0499381128258278
0.070151963232392
0.0591347925628119
0.0735665978419145
0.0450145017545869
0.0728782521645746
0.0507669513655372
0.0584853283244204
0.0544128821790829
0.0660302109471831
0.0512059699568382
0.0635534589271618
0.0477361810386321
0.0713404685172601
0.0581117216864581
0.0742810287409554
0.0551527259872094
0.057800667112813
0.0520438436109333
0.0717215219491017
0.0491999000171667
0.0614330702945467
0.0536516919321538
0.0738747953971433
0.0455245591760735
0.0651346069855929
0.0552957871544172
0.0634774458559532
0.0568298498511022
0.0650500572253916
0.0521527132825465
0.0661867386169191
0.0487472780170558
0.0680866329939326
0.0631387185134312
0.0625492324450688
0.0511732675685304
0.0636041462061835
0.0520812864036454
0.0658882390482666
0.0449485475498152
0.0562346381042215
0.0486098116902896
0.0650289189801608
0.0528423056547279
0.0728988312090926
0.0418850431648969
0.0692973722501705
0.05229938085944
0.0619049405022777
0.0488078418138974
0.0556167195944894
0.0556551566945265
0.0788250998041757
0.0471821922145524
0.0656990902323946
0.0420834497016511
0.0603178347863046
0.0569904794873954
0.058919695807394
0.0491247488510918
0.0683463462080986
0.0561021266209224
0.071439642081304
0.0548124550484262
0.05940781839419
0.0500553129200965
0.0564534018316626
0.0353197083870654
0.0547247013165134
0.0489039967235893
0.0549148840680185
0.0476853013937966
0.0663794013075795
0.058354282234925
0.0844683087551092
0.0305255187214538
0.0767161903988981
0.0538924575054948
0.0458384780897378
0.0763848008367781
0.0673862915877468
0.0487588804626572
0.0646275897699893
0.0529173041050584
0.0679238450654083
0.0505364625643697
0.0449545497678748
0.0388798269468507
0.074654634949469
0.0470004854715404
0.0603297083407848
0.0407920359816918
0.036923340728512
0.047975124883557
0.0921396494474571
0.0511548552491254
0.0591920648026821
0.0436245183728519
0.0518224791306831
0.0567902298613153
0.0798359596085487
0.0573714278318527
0.0565489969735698
0.0459216100154858
0.0516116661948346
0.0348583005337913
0.0788491658810388
0.0435453764843199
0.0555287181304469
0.0270303550965692
0.0610161727562074
0.0645352094546067
0.074922323793387
0.0515705814038501
0.0344336263408893
0.0218024359216477
0.0796378451835991
0.0493161509301893
0.0573366253821818
0.0582471282840053
0.0654934925552994
0.0501928220446803
0.0562411231315234
0.033402187423049
0.0692117384953668
0.0509833221383114
0.00894200268694925
0.0356055750353649
0.103626634735443
0.0480618959204128
0.10465301578167
0.0575047247531391
0.0540313380354258
0.0442200396367032
0.065469149121952
0.0408559022966144
0.0572418004150952
0.032404446367358
0.0618280354120324
0.0620711041738138
0.0601640726632192
0.048545260471405
0.0726846982058876
0.0398256350354054
0.030599318784887
0.0710438405334733
0.0692192335031118
0.0275277617166178
0.074989520251746
0.0618762595457399
0.0575969790356415
0.044568562773722
0.0765583038857948
0.0448842091017323
0.0639556018517018
0.0373121076755526
0.0536468247721981
0.0462954615350115
0.0575804056907703
0.0474509053494253
0.0537728233294891
0.0213331714645646
0.0508730829844561
0.078404687241241
0.0762924199065061
0.0558296775063664
0.0599463518489009
0.00883514411398069
0.0677885001210655
0.0689510620067178
0.0546059329730854
0.0376763547471992
0.05959668935858
0.0406515976667585
0.0449411023818739
0.044119059596974
0.0448635083227276
0.0170471102744078
0.076629839309395
0.0671226702077156
0.0546607083965801
0.0502834929224753
0.0518799461595782
0.0353048265946948
0.0876240528426745
0.0756995192271532
0.0618752623631938
0.0437547276125371
0.0408288011344497
0.0495908072163127
0.0726190238206449
0.0539399119527997
0.0609211287150871
0.0408532204414294
0.0568702640507305
0.0464486620194564
0.0543297255436342
0.0365069796635284
0.0550119143100427
0.0493605579580119
0.0667243331509928
0.0472699096101793
0.0706898114599848
0.0425785255413632
0.050006205397754
0.041890540438304
0.048749321157522
0.0486152296392733
0.0740742558040677
0.048739570409434
0.0585310447110367
0.0414872539141509
0.0561141686087635
0.0450650514310859
0.0556275911151967
0.0441003091096697
0.0509480377512239
0.0374154543359538
0.079085481230346
0.0571684239836611
0.0575749469412203
0.0324571757914187
0.0723034528383304
0.0632088437415244
0.0581126746903952
0.0391986483059726
0.0552174976691094
0.0360694495560747
0.0429804389611982
0.060588432501367
0.0631264033678101
0.0396207769102783
0.0624413193675178
0.0496460562913449
0.0589192089737321
0.0289117493250614
0.0382662056006123
0.0900759342311023
0.0553873642431869
0.0272289306867486
0.096802534377963
0.0588630322480617
0.0618749855857129
0.0393281778052544
0.015167234626201
0.101281474762138
0.10864304836822
0.0471447456379555
0.0517188320156363
0.0612174289539355
0.0588901918030039
0.0455278278898562
0.0584449660743829
0.0542394389204128
0.0711167563279159
0.0521863208035792
0.0945168023815555
0.0388360067549873
0.0621926413441143
0.0695230768065052
0.0631863105446977
0.0499108397988819
0.0545309913309811
0.031834352775957
0.0699847150579132
0.0587421341168084
0.0720734471147961
0.0532090598202655
0.0521686051741744
0.0625213519902485
0.0801651077407326
0.0448585789535075
0.0595671248323839
0.0533498010143132
0.0628294166068291
0.0471016479306796
0.0628236635563832
0.0619183178272469
0.0584629262207635
0.0340894723525918
0.0970702402419051
0.0473404042151607
0.0613150427922418
0.0672163129530841
0.0780437585303323
0.0520831178946933
0.0629892831739389
0.0530620616889086
0.0646711349232401
0.0419068255731478
0.049950155359051
0.0690899171723787
0.0749630157610938
0.0574324449248845
0.0696278695641388
0.048225193760974
0.0615687559433485
0.0585535960837032
0.068750967286092
0.0578311614984517
0.0666755649483853
0.0467095708257118
0.0796966353587714
0.081371614993646
0.0513244381753598
0.0752294573796622
0.0989211345580265
0.0630811867342096
0.0739637959272451
0.0640414924974197
0.0737830923203668
0.0581670048044873
0.0730059117109964
0.0597241702041342
0.0727843898913008
0.0639584869553583
0.0879051974795642
0.0656251446270769
0.0585637126253998
0.0802041498165522
0.123857078365259
0.0928412500959853
0.0930954770465623
0.0480960204238072
0.101393033526553
0.0906286309225548
0.106054027248262
0.089403856935644
0.0855101273945616
0.0792893180609591
0.0922509553008196
0.0865319742338133
0.0918083407715094
0.0854652270310045
0.0939499571733456
0.0842932242232663
0.104596441939363
0.0981526240918143
0.0965352117832274
0.082114680750842
0.139714864122792
0.107664728327064
0.110843867764681
0.0929862386713205
0.102878537096372
0.109841566822043
0.126974932357218
0.131932401071371
0.137295350109047
0.114811179477584
0.143683092947432
0.116488195879468
0.135265067420191
0.116189483185173
0.137517183143597
0.12228068574779
0.141072262108095
0.129397343276832
0.140782013616153
0.130551280378927
0.14922986879396
0.148244568442308
0.139132972366688
0.131528492671288
0.171407003230683
0.153887818721177
0.154525434596868
0.137918896583353
0.173796375127409
0.185045887682373
0.196503360105751
0.156664596177611
0.177743268642661
0.163229074558654
0.181899456356734
0.174480478837426
0.193158031434704
0.167804126317874
0.197379360835754
0.197314096884554
0.207610887364179
0.193470562301441
0.21206305515699
0.190351223537669
0.210514695230151
0.197706481358854
0.216008624398071
0.216550468591417
0.219861713168504
0.186964123467826
0.248531356415915
0.209931419860139
0.248375837214532
0.238517726372844
0.226380823487182
0.21289532783791
0.238998760535642
0.235072743661611
0.239679543408018
0.240068916528854
0.257962302530152
0.24606595236809
0.266173366006517
0.257431457741526
0.262420004692152
0.264701839515363
0.271752571993094
0.273857364719976
0.301925832476313
0.259469642778651
0.290032348390582
0.268799052804678
0.311442609327037
0.26530193955956
0.311853482934808
0.28409758119375
0.312725598363021
0.283039903053138
0.313776750446442
0.297625142148989
0.330315879881118
0.306218227638504
0.331962862966812
0.304727165296618
0.344003236894492
0.327997619210654
0.356013893125068
0.322927854562081
0.352899492162279
0.352409812924875
0.365021453047835
0.324130621648443
0.372300762931716
0.346170720499645
0.371354631661482
0.370888758939603
0.418779675809754
0.388591689142162
0.395832655634519
0.388480686265294
0.418805797958033
0.391168495928513
0.395682690028221
0.383967200378442
0.408825339753257
0.407404800398392
0.428850412592058
0.416735201228761
0.443889133971086
0.41391959380827
0.43327845627545
0.437047638333159
0.494858110607872
0.427188543513537
0.464469134541793
0.464628467813637
0.46107591919561
0.446129173831284
0.47163355250798
0.458751402521507
0.495092888559138
0.466794384233742
0.498108397138154
0.480133246808341
0.540300391016755
0.47154871015986
0.518848693960205
0.483079332210338
0.528140269807266
0.537025389430851
0.540210853547826
0.515980728132977
0.560617041193614
0.504484470520015
0.572817190134814
0.517681950446563
0.551840729742767
0.494143495256371
0.609456511756366
0.550232150107006
0.590276245625699
0.556047229179111
0.600585155064005
0.57315588697339
0.596509955545824
0.565279427363299
0.593174912900259
0.570087799566545
0.631203647844571
0.575864831521389
0.627504070179463
0.591202704760658
0.650095039749278
0.615031117015025
0.623821667392082
0.634430089153945
0.670878732083746
0.622467328011544
0.708323853808271
0.642356939836638
0.67581515228758
0.663854890080149
0.676205748147032
0.676111343787984
0.717653367193167
0.699116914285918
0.7046532698746
0.68157337831764
0.725701870299525
0.679875104115364
0.729916876485772
0.678847537801797
0.737659899545976
0.688047603831179
0.778681958880897
0.702206429717428
0.752161249416508
0.784656049216395
0.808175263807536
0.743497146855675
0.791674745334216
0.724980576680088
0.793866329123085
0.735812557770372
0.851303726046478
0.743907990917808
0.838530462963616
0.793747337920068
0.79829223940594
0.812372528336084
0.820361096311777
0.765849000652049
0.882072149387259
0.784029588203502
0.87044641440232
0.771157855466631
0.912961619093932
0.813908032896759
0.847202362373259
0.805276529452264
0.90563053163303
0.840235521501689
0.955000271812566
0.859459346827736
0.951646315141201
0.835418736964508
0.96780142166228
0.82959689962693
0.94916024191984
0.890337461256235
0.961074436426414
0.935541440413099
0.997310839130579
0.861156498896694
1.00556091432058
0.85572225004829
0.990532008936576
0.922551005813635
0.918190729709014
0.976369631178067
1.03519638544824
0.942982105339746
1.01144808468623
0.985796879332141
1.02641942438132
0.921452805165096
1.05400057263537
0.966042147671395
1.02991112647312
0.981167694864736
1.01486524699751
1.01607904933616
1.06103537960127
1.00615005002818
1.06116287562558
1.02012221349782
1.11043116664431
0.952049534623707
1.11063631637369
1.06744737270571
1.01704311039834
1.00115276519792
1.17017011504709
0.995501027850673
1.12851850424613
1.06479842751096
1.18200213330635
1.04351853579634
1.13532274362342
1.10061903270034
1.18409084297037
1.07126140030755
1.1858624634132
1.07375648850538
1.11181200411239
1.13039520630809
1.13485602765231
1.11187044244542
1.283200280342
1.11611270034194
1.13467864656132
1.10324055442492
1.3044125988654
1.09806714644717
1.19446865612969
1.14255076449678
1.15352965292407
1.20499735788981
1.19664256695829
1.19194348567491
1.28325477426367
1.09650977799369
1.23563826920825
1.03937822101149
1.27757686226768
1.16121574457612
1.35105990829098
1.19529266300029
1.30321575453254
1.23364371747071
1.34403065523547
1.15713896184902
1.37110252295547
1.16604075114127
1.2965544923902
1.2191412841866
1.36565133615541
1.19964894149867
1.46351997831351
1.20057489165178
1.34494350205845
1.15870366613955
1.32691047472147
1.202069514579
1.19943307056097
1.29178118446593
1.25397972921936
1.27900139677536
1.43283134879222
1.24066368535729
1.41410908354156
1.20800509121794
1.31670662766963
1.32107219013624
1.56288589533902
1.19136319894888
1.38866087800911
1.31436199052527
1.43410365180265
1.21220845847727
1.51605426088122
1.26830865448943
1.34855157504491
1.31666859306868
1.48724121597989
1.25293694473972
1.38589139550359
1.41546166461172
1.55269267375844
1.39893590887123
1.42231951194526
1.32436887940579
1.43840971586056
1.3311878777235
1.41098345305425
1.20099510330699
1.38256577480711
1.36127798972126
1.35986278881544
1.29991893469541
1.45037945418415
1.39697713073415
1.51209106954125
1.26434729202435
1.6430543579988
1.29056369826727
1.37912518878065
1.37339253673769
1.45156155738491
1.31517509080181
1.28446229338459
1.36140503059689
1.37492868154079
1.41033882088494
1.40779426688393
1.35891457691837
1.38870845787876
1.34526945424414
1.43245715677427
1.36584193919061
1.54595234100365
1.29450054638149
1.48281147172475
1.4482913930221
1.37786324120325
1.30088486137896
1.43953356909307
1.34055191272401
1.45461167541155
1.32298701155684
1.4036025144914
1.3256135759388
1.50960811846497
1.36191257835582
1.46710927282044
1.30898312816661
1.62861465464193
1.28389205405049
1.31244530056929
1.36823018778044
1.33469465802832
1.36566971404918
1.3627960871266
1.34507716148555
1.70270716837108
1.49115089146424
1.36442402766516
1.30763952137719
1.48384227834682
1.345573674173
1.47726791321453
1.32019157657733
1.47534162700478
1.4189563311309
1.4305150463743
1.44325164149837
1.38443217877769
1.35134980215538
1.37272668995122
1.33629015052783
1.58005155731943
1.31111454929632
1.50748560954226
1.37548703334196
1.50690101188928
1.57028054860452
1.53444168251435
1.33652655283522
1.42231179329296
1.30022363966051
1.40464511122326
1.37122505245609
1.51071093787331
1.27901158012571
1.63263664948945
1.38756773481519
1.4964960688809
1.34504621009637
1.50619526023172
1.38564370188299
1.41981189684965
1.4033925043289
1.45985167624336
1.36796716803535
1.50617456242305
1.40650144890505
1.55468304295439
1.42322921306831
1.38293090823614
1.28278388722666
1.39800345387125
1.35662645142572
1.4795387797525
1.26748482316721
1.52267728364197
1.31692278214438
1.43646710534167
1.31154038664339
1.39392489301419
1.30685115415168
1.6264939162192
1.36981834077751
1.53716490640821
1.31702504293531
1.47868947964884
1.42874343960332
1.43118694482985
1.26440563321854
1.3981126980167
1.26558140329495
1.41472670536002
1.36804112972551
1.40641303927748
1.32938292502096
1.34130388180255
1.29941490936849
1.30151981286989
1.28840778234592
1.35181466602142
1.32163510695624
1.37483828977096
1.37199967925373
1.36051884425651
1.27209422358527
1.36710666107942
1.36066330011825
1.38800373997716
1.25298531141388
1.30246481857054
1.26770162818728
1.312677836153
1.29640794128461
1.36543879463408
1.24228677656649
1.39040346983121
1.28414496933548
1.26858668832144
1.21384825960511
1.26338659553321
1.21808086295579
1.3306536847812
1.26488959359548
1.27328879672242
1.2091865928102
1.26883036890654
1.22926025888669
1.36063601133182
1.17415947232067
1.25618822654696
1.20207836832658
1.27941786595831
1.21095010780689
1.33005532694318
1.22891286716192
1.2715084570484
1.18496314875282
1.29661426365647
1.2495163515756
1.17027968394395
1.23141175513468
1.23261550940488
1.1784054778846
1.25277168672154
1.16486789328003
1.22519560966129
1.18155044204503
1.2833837805417
1.16222290748694
1.19516080299042
1.17460849772284
1.21362127760726
1.18207052831478
1.18786698734771
1.16066114781721
1.1598123761032
1.13562819788359
1.15947983960546
1.0917707264591
1.18542955904669
1.13874842785018
1.1532780970494
1.10532916560033
1.10772677908085
1.09767443459995
1.1780148313154
1.09773169303236
1.15849695618684
1.05093786252254
1.12431357341178
1.05518347462735
1.09568149428605
1.14055833671307
1.10040973358827
1.06468557604919
1.07069968840041
1.03386253381378
1.10310589133579
1.02927132329988
1.09539846641026
1.02867109187136
1.09093363545971
1.0401094914155
1.08219808837221
0.981428295088562
1.04341200530396
1.02657397581277
1.03195959237087
1.01851163621661
1.01695889072747
1.01460276331319
0.977429039953871
0.973977470343591
1.02777422650706
0.988641636132808
1.03957904887126
0.982568664556592
0.971957869501382
0.930247232052129
0.977888444793541
0.947800341742064
0.96871771893542
0.94705067776845
0.980334166711612
0.92697926736471
0.930685169877756
0.913216973189066
0.94640343482218
0.932348167170031
0.911819967057961
0.920029389995956
0.947355480000221
0.90511236809362
0.912545205314823
0.882053503574648
0.883457589833215
0.854237240298409
0.870723151554386
0.856055767510845
0.907797623220956
0.855780132856906
0.876111127329015
0.878806107406217
0.887028012293614
0.856408251323374
0.874779401379439
0.824337255008948
0.841193774959887
0.821831381757377
0.85527602097662
0.827466973506463
0.830967185927369
0.811811806467384
0.836053550897416
0.824475634906943
0.811866490375271
0.799146389774192
0.801928011501117
0.783260975534438
0.81508354921657
0.768072341747735
0.778212740266682
0.775275551927112
0.772630509576785
0.782523953940044
0.795528826547973
0.771536600577613
0.794312109521777
0.743516354152105
0.758559106075805
0.740804321061328
0.768277140649911
0.733048516910181
0.74925030806519
0.747201352214913
0.744647021508094
0.705164921127866
0.737072589703253
0.718849519871957
0.718450495297559
0.698634833961408
0.73692009634731
0.710157889193668
0.713577214913405
0.689081618581249
0.724865742243345
0.688483672813628
0.709970052471037
0.695046299859802
0.684349309215255
0.676993608094508
0.682262486067589
0.665508303434513
0.697481151395962
0.664749246323786
0.683013063718094
0.654386400000826
0.669320227565105
0.643129929608957
0.65090394528011
0.655493634014403
0.658375883122891
0.64350733372106
0.644125405677571
0.624309417910277
0.640110786052434
0.618845203117686
0.636302391428536
0.622648916317816
0.636844475073138
0.613174437109494
0.620860231354813
0.618715777976604
0.620316603406039
0.599835249873845
0.612550231555488
0.598540066900404
0.618844859527192
0.586834648313678
0.592906723967228
0.566797297269975
0.582146736551471
0.57869525186702
0.584860650738316
0.588180658379885
0.575281925573849
0.554615075035642
0.587292386620941
0.56447686365337
0.564894850970244
0.570164495275521
0.55982381603405
0.551271638511983
0.548295268858984
0.547843526084017
0.548878899762806
0.533268103316599
0.54521021769045
0.531482300305314
0.539406104864524
0.523761289176091
0.531334390262659
0.53431966660531
0.536430157716785
0.521754860707748
0.527771385322225
0.522571888561751
0.531121641632722
0.5069102652727
0.517569296320902
0.510638704276255
0.511700856448615
0.501271028617275
0.511220311072836
0.496104850485539
0.492950062674465
0.501446505177368
0.511018860120308
0.492273748198455
0.496788770223604
0.485600585946111
0.47450672294849
0.4833260221455
0.499745351579731
0.478406430077694
0.482202991126798
0.471568990262511
0.482698297945033
0.476130465085616
0.479378221306903
0.474642892615369
0.474552891366259
0.464821395613255
0.476516631643947
0.467569410276092
0.473041603957185
0.451195836963933
0.465865214683241
0.459529095442675
0.467010287657294
0.457331199149388
0.46161964250975
0.446335233342551
0.467026106241487
0.449663905239002
0.469897573567204
0.455566730192698
0.460753123317398
0.455600474577753
0.470201530913409
0.4661109859432
0.465319929777556
0.45280990588468
0.455332541478449
0.454738906509218
0.47006603700158
0.463233971329359
0.476271134421171
0.477042823079913
0.481408660311687
0.475296949398125
0.478367475730748
0.473387265796091
0.481214965673988
0.473143472330626
0.492850726855863
0.478239623237402
0.490467040534976
0.484496138351732
0.498194283133903
0.479020932384961
0.49894568181682
0.482857357121001
0.489083333047737
0.478657838007135
0.506398019713352
0.505549338450296
0.514136676685107
0.510364822222019
0.521704412906198
0.512263842129655
0.51587974157952
0.512838591464374
0.525643392639545
0.519096798210152
0.525601111242248
0.521196815425629
0.540641611549661
0.537079995186828
0.546849894139925
0.539903862614967
0.559054096957148
0.541438060503215
0.549452661279509
0.556469882474978
0.566820695388212
0.558947176318147
0.573128440104454
0.5610483089461
0.581146585146159
0.584038854399693
0.589770937994804
0.576382176173454
0.586800523911562
0.596565595435526
0.601015182691391
0.58676508976655
0.609581770924192
0.600191124888299
0.609636752482133
0.61383636992201
0.626087307134537
0.607589051098899
0.606050882220373
0.600109941247636
0.605828558266476
0.60152707114656
0.605637325583795
0.604371483253948
0.633763661359613
0.605665688500288
0.610117773163172
0.611444840338403
0.619494454584624
0.60514606573232
0.613785997132033
0.610701421512727
0.614744801760218
0.605447855825302
0.612636895925526
0.60232012420106
0.610569995882144
0.60251033888803
0.621455245458285
0.611575717585833
0.608581429327574
0.604237308490905
0.615281390974594
0.60771555274762
0.607017995426566
0.601887515622356
0.616999618325034
0.597563721375596
0.614165726503608
0.608191957605802
0.615675360338903
0.599066875833839
0.61439259137213
0.617675389568616
0.616840055319123
0.601158799870535
0.612436145242819
0.606664586138974
0.622416641630356
0.604686043116514
0.619461465904818
0.612997852651836
0.61409030566248
0.607287449752712
0.617507786719826
0.616886342814947
0.610800944859025
0.596903363084804
0.608085179083539
0.605290546938722
0.601319920086761
0.599027370510636
0.600832461805625
0.594143784148722
0.605464762989404
0.594327296443355
0.60282327091562
0.593952878139875
0.596799516387998
0.585569828547046
0.598324615541069
0.569220455179592
0.586278032930792
0.57944813409726
0.573132815336483
0.556695900896465
0.565732651904683
0.556796904622214
0.557559790142804
0.549071871036545
0.546335752211608
0.541138745426174
0.54738736559886
0.534933251210584
0.533786841420625
0.530695164610677
0.544159741572087
0.523331931999274
0.519743420183979
0.502022390166642
0.515188135361424
0.505588185068509
0.512466070301367
0.507479656560943
0.50843838962286
0.500584802149569
0.499982914919574
0.476962623511372
0.488696633324037
0.484588375738765
0.478838309535594
0.469443152051135
0.47304351705021
0.470706701599419
0.47454459011513
0.461006242599832
0.462198205591143
0.454654189235339
0.461357830538307
0.456571185492847
0.457129097018525
0.445076266092447
0.453695919884071
0.444966746555372
0.441597291240825
0.434078798775523
0.440230274939188
0.431966487665428
0.44243342959014
0.43348912784915
0.42585687322723
0.422041776651726
0.426766873679466
0.420877158465778
0.429117664609632
0.42514157137251
0.418401517533533
0.413122568376499
0.420207107127853
0.411566323564939
0.413057250230589
0.41180068615287
0.420630052712235
0.406045878731414
0.408806788101588
0.402045080216231
0.402378407366096
0.400667422494647
0.405464130752844
0.395795757126939
0.391811393449582
0.389364843009772
0.397639542357966
0.387996673163924
0.396219218206089
0.388203615917871
0.391437772214533
0.387677970868798
0.38859104210263
0.385220694489426
0.384898350254616
0.373414117843837
0.382093023878377
0.371987694955024
0.36880630091248
0.369807095325661
0.376890348440345
0.377826581420008
0.371166506484198
0.366594663377214
0.375854624861058
0.366319745630259
0.366741361686311
0.357981867050506
0.368408496912804
0.368720750416048
0.370637800090238
0.359856378480092
0.359938863150657
0.36040752676131
0.365609938057925
0.356745448139434
0.365700473555924
0.351833678908721
0.359532840038863
0.349030781266381
0.354242917986811
0.353755071529907
0.353275043141827
0.34865945121801
0.360090376467678
0.352287171673117
0.346728600254072
0.343571749168955
0.348556723237252
0.339256811073233
0.340890890648013
0.3404379727895
0.3446734829099
0.341966250370763
0.343767738541631
0.337168469008226
0.340389913924997
0.332781863680452
0.34262093937387
0.340251428437801
0.337192202576568
0.330421271648686
0.342495233742142
0.332550257752459
0.331362084944362
0.328454358450035
0.332752458225828
0.333134527845979
0.335182723945268
0.327640350948777
0.336807425606367
0.328460403593834
0.335398824375931
0.326651614086226
0.325728683149664
0.331926762259059
0.333660323981129
0.326673217193274
0.324214393839135
0.32387489320196
0.323719381257858
0.322611543352365
0.329435064257991
0.321380129021151
0.3298355036404
0.323942345996027
0.326720927250193
0.327517509538764
0.328887274155005
0.32236745763345
0.318716030477973
0.316841013578446
0.324503074648341
0.316087712102791
0.325997584007042
0.317393697053354
0.324686711570258
0.312054104246282
0.310066305916985
0.312662876230487
0.317895980612127
0.313221640981909
0.314268472445295
0.315144407376719
0.314258680101743
0.304064211865129
0.312358404657771
0.313545370597663
0.308472316983795
0.306700402573792
0.309327190603763
0.302915997471699
0.306716292400166
0.303865728336694
0.308541190571242
0.303295179175951
0.30356450351896
0.297965669495589
0.299497722708947
0.302346609308174
0.301738219367778
0.296438423747723
0.306689265436714
0.301157336226399
0.298259881184259
0.29386907570436
0.297311777165693
0.295650409545657
0.296889597286566
0.294206775969328
0.297638309078527
0.289878153299026
0.292205328731715
0.290719305574956
0.288255460320672
0.287853945026844
0.289357102354174
0.284176882532195
0.28844774309575
0.284190556098831
0.288126082358879
0.283774799226174
0.285642089201599
0.285683163379485
0.28381214432031
0.277068892260716
0.280070995472957
0.283425893078355
0.283086300284069
0.272306770696217
0.273356986757223
0.272289380448831
0.275794874581201
0.274023429598328
0.277612046754837
0.274953640359325
0.273896142893028
0.268617713101079
0.269941912052774
0.272784215883856
0.268337733461037
0.261224443921994
0.267584437554554
0.266844170593887
0.262773851402811
0.260415159187086
0.264583731729888
0.256274410739488
0.254765422122747
0.258184409156699
0.260555782013748
0.253310143122219
0.257330882436683
0.254956765392595
0.259184275221077
0.254430256882721
0.255850153439452
0.251908961712183
0.253258642184803
0.248727329733282
0.245200482388595
0.243737354464793
0.243814695126704
0.241970984486683
0.245174416263621
0.242985766964677
0.247592762220661
0.241594093253248
0.241865580100376
0.235506839027973
0.237497299456961
0.233367418166368
0.232612668111398
0.233108925970425
0.23526943622922
0.231561977466278
0.233344151083548
0.231418585600048
0.234085500458506
0.230224565993656
0.232277815484403
0.232706891143341
0.230865715243954
0.221777363185476
0.22761280512833
0.224814365268137
0.228229614659247
0.224263268835598
0.222198986661287
0.225983509482018
0.225002619561932
0.218754595154108
0.222885682690939
0.218954852783142
0.21825727547924
0.214612067064874
0.219319337853289
0.215763636012026
0.215904407541825
0.216546480519241
0.215810244555092
0.209959203155995
0.213097017461087
0.210210660542432
0.208818728030239
0.210539601295128
0.214404632789223
0.207941955463501
0.208077821201984
0.211736116888696
0.209803557784873
0.206839939997159
0.20792620504769
0.204654187738576
0.2026528087939
0.200995624079651
0.207017624860113
0.201854960915035
0.205214284615223
0.2031854523267
0.200634245350042
0.197810330872807
0.201715229490514
0.196565254830416
0.200307729646891
0.200274453428894
0.199086453566602
0.198891669331347
0.195185612964442
0.195077393533457
0.200636894025995
0.194481499438724
0.1955483513016
0.194214111629965
0.194204749712616
0.191681671274458
0.196059363523721
0.195428930774908
0.191122598017421
0.192278347602872
0.191470124991847
0.185682666480911
0.192778233404054
0.192517728292933
0.19241321683346
0.188186947615127
0.187274437843807
0.189623160979216
0.19449534223881
0.188135720785839
0.186626237673964
0.187599477702133
0.190219314917765
0.186665382019026
0.189654184127892
0.184517000212572
0.182920590468633
0.18446125028834
0.18590567570671
0.18320058803621
0.185905112582472
0.181167442642279
0.183181718707345
0.184174076527097
0.185390685637323
0.182392534643568
0.180742660250206
0.181295748035073
0.181404118809687
0.178310945698782
0.180221262712245
0.177872008116758
0.180942804396616
0.177193263101696
0.178869796876572
0.178449788485196
0.179545383206307
0.175125183890731
0.176030197193046
0.175950707709129
0.176353235581505
0.174284134254116
0.175723295452409
0.173286265088302
0.176346846046474
0.173535528546405
0.171178480387267
0.17049561158218
0.172368446540854
0.170444630774588
0.173582986435314
0.172278121108013
0.17064918628866
0.167960683414769
0.168548283941604
0.168985888209847
0.170583210667087
0.165771407147691
0.168977087818089
0.170569016667513
0.168097017160385
0.166908318824069
0.167787677583923
0.16694414219763
0.165490261908012
0.162894105307829
0.167228378150695
0.167502148432687
0.166248873387678
0.16506414492816
0.166272470455701
0.16317721282308
0.164806703166103
0.162560128977666
0.161873057649864
0.160971264972434
0.16627887149939
0.161869622178491
0.161194096773843
0.160090786530158
0.161624785304362
0.159381022031489
0.161877629620457
0.157073732099334
0.157812917204596
0.154950522205058
0.157949907204218
0.155995863266302
0.156251205214564
0.156015860927065
0.157165311678526
0.153341010136215
0.15411501305895
0.152592419443971
0.152234580772275
0.151728797451687
0.151776205979042
0.149845220327638
0.148564897182391
0.148884076048732
0.151635059241024
0.151201725889178
0.148608950084156
0.148387855488073
0.14949756297496
0.145132063297771
0.144923266830537
0.142146854344432
0.14350379291119
0.14178496847407
0.142330496935241
0.141655246001882
0.143074600483361
0.139647133364104
0.140746493569718
0.141434408304475
0.143002978473358
0.137711285600413
0.140583874852996
0.140138377169987
0.138123236967644
0.138410599598051
0.138874481392815
0.13526548835711
0.136941892300813
0.131433757316411
0.135244165922371
0.132750430242756
0.136346276769973
0.134255678657939
0.13466537606361
0.133628907870333
0.132625154454941
0.131021521986798
0.132601283962649
0.129156223415233
0.132523344962213
0.130993556515611
0.132296690767985
0.129593167362741
0.131433213831627
0.128341936186896
0.125231170020986
0.12603425800115
0.129225382847537
0.127600212984199
0.126238591114188
0.12320022881318
0.125978345187668
0.124999007426904
0.124033482511183
0.116549949382596
0.122773393824227
0.123024098919965
0.123058609008555
0.121224742590126
0.122214152508552
0.120535028967796
0.119622843124704
0.118002145535125
0.119875014704901
0.117041607525893
0.116338019452656
0.114434276265275
0.118654017991706
0.115079109546893
0.116173903686236
0.113692844601126
0.117102562738125
0.114564821200231
0.113504558333575
0.11198165451125
0.115919998290923
0.112289951753478
0.115913944886523
0.115241928084625
0.113896810400096
0.11376469832972
0.113533832281298
0.109908832985464
0.109986334510052
0.11170465633367
0.113311119928142
0.109029090580485
0.110885790959193
0.111267696472067
0.110823802967205
0.111178898583426
0.112965720022534
0.105442596715646
0.106894822565152
0.105000424887259
0.10991262538343
0.107072508839414
0.111953228592974
0.10551681954321
0.107356955538073
0.105148053272953
0.108597637870446
0.103947499369432
0.10709362155877
0.10821144879483
0.108317705726052
0.106006861529818
0.10732993658838
0.10245939640382
0.108369048120473
0.101182556365097
0.102523160144529
0.100210445670819
0.102965004087496
0.10301797831303
0.111746735281291
0.106022663179908
0.107613270484365
0.0934512813958056
0.102994313118395
0.102751094075986
0.102859660215919
0.0976658638059772
0.105363377788241
0.0943447330042456
0.102987376815885
0.103569548512784
0.10369431006834
0.0997841023143606
0.105394580378319
0.0974529245179918
0.106863402552187
0.092624386095996
0.101157487084907
0.0969511773073975
0.105834552900936
0.0958254411468307
0.101133518375667
0.0912155826855346
0.102704612033737
0.0914870884642696
0.107888143869336
0.0959205248720666
0.107339136072366
0.0949338635560793
0.111080157126913
0.0907779651726604
0.107307492206883
0.0917522920989448
0.105186971429554
0.0953692703416602
0.112281465961597
0.0962887191326059
0.107210600153989
0.101019274436366
0.102138951789557
0.0911095184560821
0.0979115195105877
0.0980392229434843
0.102006083260977
0.10376814978017
0.0881411343511286
0.0978936721701718
0.0915485216284537
0.114369226063685
0.083512768468828
0.107424613678105
0.0856967217923143
0.119858231298327
0.0780122725714234
0.113260518956798
0.0806662845330682
0.112311397953295
0.0744310542942036
0.111766770728389
0.0823594249123472
0.105833547677347
0.0918771204302068
0.101814006282244
0.0932031450964551
0.0956954812649071
0.0925393380107247
0.0938643278980473
0.092455058014536
0.0961949845992718
0.0911109667807174
0.0948934716352961
0.0885772293654521
0.0959293683925573
0.0897500715478248
0.0978147087999845
0.0903471518170571
0.0920274008049678
0.0914826794048945
0.093778268274572
0.0918777754693798
0.0964198884471466
0.0900035898551736
0.0921707126843869
0.0874878514838539
0.0960621529886644
0.0917548494090145
0.09437271563417
0.0915768807750439
0.0941839738370972
0.0913669857035657
0.0937457302507326
0.0895043413805067
0.0949249151334829
0.0910807471657398
0.094637049756534
0.0905181531481501
0.0940789913181165
0.0893972860280416
0.0930412675948884
0.0894516429284468
0.092948468982238
0.0921449651484871
0.0956270598904754
0.090764894346989
0.0936053984909443
0.0904357448998686
0.0939123906284612
0.0897016780014105
0.0939425352130602
0.0897040779926272
0.0927592665023629
0.0892736346173752
0.0963976047797706
0.0927223062942841
0.0974399754492397
0.092157290088225
0.0968631141331883
0.0918179745191624
0.0917034253536555
0.0937215444526265
0.0947657272414995
0.0908945652173828
0.0942266788333189
0.0913434009712165
0.0949491164812786
0.0914403695175583
0.0918232909488355
0.0919449776987841
0.0933452172150985
0.0902788441895279
0.0950895566679421
0.0906670614115259
0.0946338897226252
0.0914279311134541
0.0946398376959327
0.0942228880174007
0.0949376119640742
0.0917419172564853
0.0939132142419762
0.0919065756621755
0.0934614789614781
0.0932163101966928
0.0935396643384488
0.0905528475220495
0.094508806744171
0.0928143022104505
0.0947829513835782
0.0938579447434702
0.0960382134196101
0.0926741153934018
0.0947216395215009
0.094913135047874
0.0943545046155017
0.0932463708386776
0.0971994205666903
0.0942556814963554
0.0952044983621593
0.0948155385044707
0.0937728931325158
0.093268268973288
0.0986795851907606
0.093547079758921
0.0963367870461452
0.0927902743910282
0.0947021407317134
0.09674064470827
0.0982877466617917
0.0964901078392037
0.0964527799237263
0.095966055683529
0.0978214463948872
0.0970474786334406
0.0998420077950784
0.0957278797025513
0.0972156693550369
0.0980426409632861
0.0954252293516678
0.0974681197496844
0.0993251867058917
0.0954671690218568
0.100524248779291
0.0986783562805531
0.0996395677187176
0.0973075990568897
0.0995387272154935
0.0968014739993677
0.0962681681715781
0.0947290265514771
0.101391349753158
0.0960201357505195
0.0985618584784578
0.0984834408649199
0.0996320894731337
0.0987771259852817
0.0980600813149842
0.0986735173577805
0.101127131101273
0.0966752473907856
0.0983839156545544
0.0972089558296466
0.0991128340403318
0.0972787345351246
0.0994438594528959
0.0994157862250316
0.103461730973677
0.0981937111999034
0.101523974750246
0.0992835606644316
0.10304033004477
0.10157818160008
0.0996369506418696
0.100099136682971
0.102396441265244
0.103621365410876
0.101867144216726
0.100795684611439
0.104899603818638
0.103050498806322
0.102972171315878
0.102322997454817
0.103228347781804
0.102052044400949
0.101882823167148
0.104348244406561
0.105770340069296
0.101691121086238
0.102443519492536
0.102901525657824
0.106119644492171
0.105982232252611
0.104243740663527
0.103810117576302
0.105238835904359
0.103697963869846
0.107370642308381
0.10404322170769
0.104963972837415
0.104409925154794
0.105563023906153
0.103952135649854
0.105245470809836
0.100028380622626
0.104163443626684
0.102943228061651
0.106250713339226
0.102159184596891
0.101730297893723
0.0999924420545827
0.102882220517822
0.103245657195952
0.105453206618628
0.10091374687754
0.100787789241493
0.0996985813965245
0.101563122294463
0.101925149456345
0.101859723281186
0.0999601827033117
0.102218666818604
0.0992716985290496
0.10026202836415
0.101465545421139
0.102037585823277
0.0971526685754631
0.0992389543995718
0.0989426313771439
0.0994152826098867
0.0950556187763999
0.0992201518757594
0.0960001313055662
0.100060720373329
0.0988610649263862
0.100269588611388
0.0962181583287841
0.0995309641348013
0.0982584602101149
0.0991643115280131
0.0969439028095402
0.0986197134990985
0.0971690346102293
0.0985986304576996
0.0975546132431417
0.0998913374838734
0.0966137289767624
0.0992168727688136
0.0973973501226335
0.0967811984501448
0.0963201380929759
0.0997001816357343
0.0977102477772586
0.0996224329386667
0.0960095875639917
0.0994939401843291
0.0968593600485492
0.0997260831179814
0.0958080515521357
0.098923518691841
0.0963170177888255
0.0957802508325566
0.0936363385707189
0.0961751078400223
0.0939977923571736
0.0981639086489181
0.0965624663832488
0.0982221248619629
0.0930132112605011
0.0948645912963089
0.0943623545005607
0.0957786746264837
0.0914455703376006
0.0952272038509062
0.0944809661991179
0.0975305677655951
0.095944920779252
0.0973241755403304
0.0936698794161315
0.0969535781689332
0.0949877059350109
0.0958334985800731
0.0920942269452117
0.0940377320154347
0.0925881711412441
0.0941088760230409
0.0930369472904152
0.0939806572037579
0.0974033057213434
0.0978784895570721
0.0953292866548861
0.096001887693792
0.0931823207683473
0.0935213075445796
0.0928319775598094
0.0954905445393078
0.0899200454811495
0.0954143579375225
0.0921670105107187
0.0947191124540282
0.0924515787338757
0.0933014484016261
0.0897621618061952
0.0909637471935671
0.0909482176776443
0.093455726340477
0.092316850067396
0.0925545929819838
0.0915674757175515
0.0922226137936397
0.0896695266741826
0.0943771735127628
0.0926274541574008
0.0923457388231511
0.0931839342841669
0.0925157075018664
0.0923963952712165
0.0919121254261602
0.0915489311543625
0.0934421125882792
0.0875393949250233
0.0922156647337637
0.0896877865747202
0.0919519466570141
0.0900458042834624
0.0906711006414478
0.0887522881041664
0.0892828849560237
0.0874294482539507
0.0885907631480677
0.0912299328067463
0.0910819682065034
0.0857703588730176
0.0878362600143361
0.0849407630848451
0.0877047927622448
0.0844150444069245
0.0891056913054613
0.0855882575228929
0.0876140565924878
0.0882282175116529
0.0858391261250144
0.0872330891465357
0.0841101636080882
0.0842336939019027
0.0852059252154543
0.0850509508739531
0.0828130979637393
0.0810424615568542
0.0819446870119025
0.0832424122473863
0.0801518631728066
0.0809649049696592
0.0823551164953093
0.0829336609216526
0.0814655308632956
0.0829828653741803
0.0798109940485801
0.0805375859399557
0.0821890190837706
0.0813597720993979
0.0786506969337192
0.0804846827296936
0.0802951907568691
0.0824691412952271
0.0768229200026647
0.0834727441513821
0.0831192063063911
0.0789594214235106
0.0822938350230932
0.0773974989203862
0.0815221535945475
0.0783603147093594
0.0797035737327011
0.0788028835496768
0.0801413673684688
0.0797353888841888
0.0781545196129002
0.0766551926478902
0.0792980921041711
0.0772068349622681
0.082614892193768
0.0766256181972471
0.0767968849846662
0.0779821746317034
0.0791140989128625
0.0752566713090707
0.0791462706235762
0.077980733299532
0.0781433360206997
0.0768953457670733
0.0781168281548106
0.0755353329288645
0.0833728586805246
0.0772175194636681
0.0786113110092216
0.0740892152289292
0.078547728332428
0.0735140979037551
0.0786235358006644
0.0736949529049883
0.0760750994764593
0.077139915327097
0.0781742612063882
0.0726972021465773
0.0747496163140089
0.0750314032611757
0.0740408136441526
0.0719746174584133
0.0792537434828577
0.0703261988659862
0.0748068303236041
0.0729824708978179
0.0759030508160713
0.072487929646006
0.075945065043468
0.0704896768322603
0.0795027990884561
0.0667202115021009
0.0747640545729832
0.0783645649926085
0.0726217465700127
0.0726351872495112
0.0704282197515419
0.0744615554206526
0.0754714450262238
0.0716983271719358
0.073450587687841
0.0719407170388318
0.0730181419182086
0.0749135167621256
0.0729181363119278
0.0741774269074061
0.0734024938626834
0.0740067991569816
0.0739299654223316
0.0714531368377262
0.0710576264591439
0.0722514669265305
0.0694892567784762
0.0724755720568235
0.0816371602136276
0.0707263997015145
0.0758307444295612
0.0733933199255456
0.0646150469787166
0.0818474923444732
0.0703885607206341
0.0766757246295081
0.068572794662877
0.0737950076272564
0.0700077682559418
0.0738452826378548
0.0686404714784896
0.0734893368437182
0.0725003457054193
0.067831024171027
0.0766348077512162
0.0717484980338441
0.0728305839939026
0.069687476948953
0.0699876720979763
0.0709144316369043
0.0748113936717331
0.0718378256720156
0.0702887535337188
0.0708440740154191
0.071702049806649
0.0733777266135731
0.0669557015806074
0.0701787215790402
0.0714981823743306
0.0714560540562903
0.0699877351689175
0.0737517846520417
0.0679872454287734
0.069929657382836
0.082629199432331
0.072271263181944
0.0749260235624552
0.068075829466798
0.0752477297273746
0.0691365705219501
0.0746030656205866
0.0691654038806104
0.0743211586529927
0.0692867279911001
0.0728620619083036
0.0679602567111234
0.073463071779524
0.0685174408094307
0.0726158391271048
0.0648242749120933
0.0729514070949908
0.0717337608554877
0.0692482022023544
0.0719707312268164
0.0650431142294085
0.0697990101851617
0.0778904895932026
0.0821823470910555
0.0766931107648025
0.0766759041460304
0.0711384430182962
0.0708807521735682
0.0728967553311933
0.0726364537225134
0.0720206140522468
0.0710583736189887
0.0720677285702446
0.0691540857373884
0.072615749618099
0.0672239669883297
0.0740883458161082
0.0677364521308429
0.076010522682684
0.0666820316743372
0.0729520131768842
0.0674684333910623
0.0744303777787244
0.0640193865356368
0.0801952929308809
0.0673151880023531
0.0839473435028302
0.0517793928964798
0.0981048508321072
0.0751701812967306
0.0758131542523346
0.0740011232105952
0.0742936707571963
0.0722484400550564
0.0723091331543109
0.068918528213991
0.0779059023586202
0.0718127219802906
0.0752991122569498
0.0712260107541564
0.0766848300484654
0.0772583491658615
0.0678548464171866
0.0694862338270695
0.0885969451868005
0.0710050797161207
0.0844611764927315
0.067800209881094
0.0768362241342903
0.0844207389452908
0.0737234544872116
0.0801445868786115
0.0737038630853465
0.0765533362934943
0.0742531110319697
0.076297482627163
0.0716043774732714
0.0772581851527242
0.0788344759727518
0.076942778594589
0.0768117703876389
0.0747879230889114
0.0813611280003882
0.0729064076199932
0.0847605855962156
0.0806096753078392
0.0772193487238495
0.0813869030301229
0.0789741819011738
0.0762767274917318
0.0793462413411134
0.0815054135255292
0.075063891028868
0.0814111011710792
0.0870428941222061
0.0757068608495919
0.0895651080242412
0.0855579080692246
0.0785058624606338
0.0836304240892627
0.0791231355486571
0.0968471210684702
0.0664048062339387
0.0880220859640866
0.092402423274749
0.0857175122496702
0.0990254210873428
0.074988215569668
0.0927968126613611
0.0770915992878493
0.0924415608427087
0.0714737482547054
0.106746276413086
0.0708643104764361
0.0996450153716814
0.0671792416761759
0.102206436735012
0.0847933194200079
0.0925991555317121
0.0863929143957589
0.0928379102672634
0.0799668392343829
0.101917443833492
0.083971729941281
0.0787394326720321
0.0935648597112059
0.096735280810612
0.110019481531186
0.0905765987173063
0.0756069970424103
0.117939857933838
0.0834359274189076
0.101245059583315
0.0834896477949396
0.103625819445519
0.0837125001075558
0.0921491029113659
0.107485663734319
0.0962528744951387
0.0984396516881997
0.09957662161102
0.0812657298707414
0.111326000297483
0.0959529837374792
0.101234589783448
0.0908261827825038
0.109707237538426
0.0754251607774962
0.150874999879034
0.0920384472086817
0.115252952005758
0.11187834032792
0.112879353457579
0.106722498310735
0.109880593587618
0.104556097259449
0.113074108283455
0.116640267769483
0.119939568760378
0.0982674447073244
0.123968755709103
0.125735093181135
0.108262737616825
0.128901687420214
0.11154449632068
0.107002089003377
0.131705241888443
0.143565144911895
0.1458630750997
0.127821448783138
0.125111206715763
0.14389400056317
0.131349895031154
0.132114477408477
0.131864730843242
0.136884992749302
0.140619207029859
0.128662728888364
0.145385817856339
0.134108047559629
0.149146494877724
0.13770406869559
0.144015890977605
0.135808935260115
0.164644402191931
0.174190637445756
0.137504796250923
0.191280625318731
0.159196535039036
0.167088730324857
0.154712903335533
0.156061377123618
0.165207889579209
0.16348410524905
0.170961179687386
0.15225358549319
0.188819642672632
0.172052990506523
0.17730699836321
0.191464477548868
0.177283742660275
0.189478672305158
0.135451551066175
0.32383303305692
0.18338972080221
0.231859229781308
0.189280815121872
0.201836295202182
0.257694122929811
0.235597905308344
0.236024423248869
0.245793947459213
0.239566529912806
0.251092209918562
0.259632441391369
0.263802585515374
0.279351283304061
0.288420122199092
0.265535826849307
0.295747670072201
0.325029476186079
0.343874697407274
0.336627079964772
0.323285266529634
0.343078995370668
0.354930856021981
0.346805214247814
0.372091097768803
0.360508312325289
0.374737417800015
0.42348710265872
0.386956628815037
0.413828305468925
0.397270870511072
0.464455518054885
0.392079200167177
0.502455492269205
0.449293757903448
0.46731139233506
0.452819740995453
0.475592094549113
0.485116915540663
0.474812307843198
0.509434059140949
0.51801298491912
0.509419696404863
0.526424821786743
0.527970638710587
0.541378280554292
0.54402183736577
0.556614840562863
0.532068741622155
0.578722535428437
0.52965312172308
0.682259058665272
0.579590803488643
0.585727784105697
0.573448597974174
0.567822750828663
0.597158172707424
0.577499790604141
0.609650054739509
0.614998530465882
0.578435802381715
0.603543477813263
0.582205521530766
0.604008383490691
0.576077866204872
0.606482179843122
0.563035452558583
0.614184751654613
0.554622920834478
0.611003016816623
0.63957385644191
0.593659076956876
0.589311199055281
0.594010161057551
0.572375671400469
0.588405551493885
0.582149096531756
0.573893317444838
0.606615173888412
0.560439629415613
0.579272206731685
0.540939025312172
0.568540348480812
0.564073042750394
0.532520818180398
0.549627473219024
0.514015398588926
0.54300298017626
0.507577709094858
0.528820383966272
0.569860839348559
0.516607279733287
0.532139665349252
0.504865019834579
0.516704460480117
0.501007148331217
0.501744868751462
0.502530406327045
0.500340507003101
0.495821121963713
0.496514182414746
0.489985707668286
0.488068209948206
0.479283884480473
0.486117859418032
0.48259963697154
0.476408124639474
0.48045055341785
0.471776632742172
0.476151262784996
0.468938228057217
0.466096161500576
0.474464913923669
0.475802493639995
0.478151073100286
0.469937802277158
0.47212068705507
0.468649373515843
0.470697673895313
0.473553003442424
0.466180274541104
0.471320060093189
0.467520595269618
0.469066814855705
0.455331372015896
0.463292774664586
0.462291726276123
0.464684350550434
0.461746090716046
0.466413975381931
0.459840868858704
0.477711886660972
0.423021856187071
0.529928154200475
0.479017896848474
0.456545094611782
0.453468841551071
0.446519649455474
0.457313841663164
0.427744788484652
0.490757516470755
0.453519240740004
0.447063737332623
0.443500883580816
0.432150729612769
0.445347247007318
0.453355108443858
0.43027570183356
0.445947342142133
0.394330362993881
0.455360057421013
0.423114492984627
0.469384438798215
0.497948591873502
0.433003961114928
0.414816527926749
0.397478312864185
0.454727159127923
0.402176370312726
0.433262775173371
0.390020227060086
0.437414631142797
0.418490696480919
0.411275646709596
0.413136078393359
0.397656775966707
0.416733528326593
0.43522713394176
0.398638508311241
0.402968831753512
0.431916692021038
0.387272410948046
0.417533047688162
0.430585208047868
0.413921806046192
0.380063163999229
0.380546544340187
0.377223556922908
0.35461310014149
0.419150132032216
0.367289190166735
0.391025589991489
0.365093785058081
0.360201215710872
0.359905063298832
0.366338384183655
0.359239967952961
0.333005171527236
0.397905140293094
0.322570389768499
0.366599933326138
0.339276721752456
0.360511388957075
0.36497037934537
0.344803815705746
0.31814220694896
0.340217416693074
0.35605002033651
0.322441390848454
0.346847078455903
0.314558161223039
0.306245839578498
0.33593894009365
0.312617448015797
0.316752805603442
0.317279701548683
0.295978395335811
0.340764138922473
0.315756253524099
0.343201173646726
0.309492662378781
0.296600136232916
0.300725500100103
0.290851106735754
0.310511119365945
0.275753007446845
0.320213615043142
0.300976309470031
0.267563713169106
0.348325648441422
0.304154264947652
0.301798982704063
0.299367331222599
0.299752553535901
0.298541517158877
0.310976873866128
0.331853747396257
0.315397453690445
0.313862027650561
0.343339874307337
0.314311093325455
0.337378467600018
0.324957827438076
0.337446212103491
0.331150420710395
0.357693242597078
0.347024416264064
0.357867591843739
0.359765592938481
0.367507459322467
0.372438938356634
0.421478409785152
0.360010148756864
0.435790642728037
0.38662842048006
0.467545334485138
0.430437873945971
0.432972311527079
0.437781613691363
0.441866504057637
0.456893109880845
0.449387157773754
0.445116775556334
0.509903692386695
0.455887932222317
0.488238309881258
0.469665373175473
0.504165079458478
0.46632035142733
0.546651129278924
0.480820866952135
0.537004028114197
0.550444542746783
0.528432846644038
0.53083353628726
0.516090130619245
0.53309138191727
0.530172025727317
0.523711621181745
0.536830983302086
0.524920907346503
0.56449643499384
0.533780804840536
0.545157244192287
0.53889129552828
0.557507589325122
0.556403879176994
0.556174141378227
0.562364617853687
0.572188045707802
0.562011927773053
0.573644308230625
0.528868928716888
0.657357312661055
0.58571018149663
0.59597456141335
0.584497006680995
0.594861032481805
0.601738884505825
0.600158943785994
0.617362086563075
0.622140086981204
0.617838825776734
0.627475483529782
0.620661922968734
0.644152192034942
0.609071641456898
0.66904130358015
0.627475840030658
0.670610788096134
0.628274430915725
0.662877738593701
0.689688289329242
0.655176036710924
0.685953336214762
0.660855751041891
0.670337970544742
0.66017562506388
0.663508208758598
0.661943389702255
0.681721058607607
0.680658611965103
0.681391274997009
0.673175806865198
0.673784274090095
0.684413399842469
0.6785377103061
0.696809682495303
0.67136763479772
0.679070141898441
0.67698050054195
0.680896267129626
0.66281109109573
0.695468319870291
0.689441758000376
0.667269742118697
0.676808418691352
0.680205469838881
0.685724137996214
0.682322804827251
0.668264540572165
0.681145897263674
0.680853516691295
0.681141720094564
0.676698160350012
0.682891575997029
0.71492669155977
0.688186516047932
0.693687456666983
0.691741844760923
0.691628991766911
0.695626265138119
0.700505001659937
0.709667565199144
0.714568378748026
0.713998284216442
0.714084958542453
0.709785750377741
0.716074642209663
0.720980843786586
0.732792286704961
0.734778091384972
0.716230478735794
0.711072797672853
0.707563387321085
0.704093208994989
0.718644230300678
0.70456690250175
0.704281388578876
0.689123012439312
0.691025914309633
0.669204669921141
0.703180539068167
0.682532829321968
0.68271149417243
0.674207831161176
0.663762864285768
0.659142368424199
0.655350113379683
0.649326213015506
0.638070164921755
0.643379143312971
0.637088802942308
0.64163641548913
0.631711109766818
0.633833630605506
0.633367411591093
0.620498548502014
0.626252698219136
0.621432129068504
0.622870283167806
0.623735339611357
0.626156071952525
0.622414587612049
0.623270695091098
0.614932054244196
0.625143054976869
0.618728008742494
0.627750771899997
0.624302279785981
0.622652571509616
0.628993270226218
0.614458251834161
0.626395540083762
0.617744481707854
0.619662926162938
0.612562312890868
0.615175368559062
0.615329883526912
0.618224006407448
0.616001833474345
0.618665920546212
0.613462896583603
0.61728769730243
0.621390538070122
0.61634472568943
0.612272485890507
0.614420541158102
0.607553555146661
0.614747668877837
0.614985625704398
0.617047936312394
0.617712161548321
0.605544419508411
0.617691879716498
0.615898647975187
0.618111314048651
0.614079766403193
0.61334005251409
0.605672768151604
0.612895573774198
0.616357870816623
0.611142684747775
0.613293888787374
0.613181015508398
0.613422606314692
0.602644595071529
0.603006606622807
0.597124305182106
0.592728038760421
0.591155859601725
0.584364202853646
0.578349568885261
0.584364955032627
0.581175177068464
0.570156557005129
0.561238877873856
0.560571801669004
0.556747934583984
0.55476221973708
0.550862881550985
0.54733049142182
0.544846114424231
0.541369784639527
0.540340107849078
0.538076347127482
0.532344012381096
0.538154012344173
0.534068475996393
0.531624350884785
0.528141046819655
0.531100658388914
0.529463532609542
0.530210588239188
0.535426972395397
0.535822500402606
0.533335554474216
0.537768514385859
0.542866406276335
0.54199625150764
0.545091650574565
0.542716469250046
0.544275644397324
0.550682201984799
0.547835487481205
0.557009053750337
0.56086591922947
0.558220543401179
0.554929058675794
0.560127243712784
0.562442928038365
0.561272529749453
0.565084157174023
0.563448462102826
0.566607514621241
0.564173360627045
0.565200126244589
0.569136464025869
0.571328344229436
0.57146889256672
0.566777883420795
0.565305742053535
0.561256911237596
0.563429099715932
0.559057775771796
0.558296297709788
0.55425219655677
0.559532104272289
0.55485251051573
0.54924150721378
0.55278739883319
0.547335756465868
0.549730625304908
0.545465033347653
0.539007848949295
0.536163717433636
0.535490441205802
0.533210728046585
0.535441806478005
0.534434214415116
0.530547237169472
0.531754275980891
0.529113965316601
0.52714228382772
0.523769348407048
0.519814930350434
0.525311711455261
0.524166182293344
0.519743348276599
0.51591298242918
0.515661520285323
0.512666784926752
0.514874933477416
0.513370167517306
0.50738540847196
0.50920468767883
0.504689572615574
0.501388210816973
0.498668641412011
0.492771616975499
0.486594297132085
0.48419664889541
0.480415911718326
0.479005919222422
0.481657865555978
0.474209795133781
0.465914739564349
0.463952547450575
0.457960099930188
0.463349467052262
0.460004997435615
0.459813212040756
0.458343432906096
0.452332968352756
0.450071525594798
0.450420802486437
0.447566390476776
0.447554763649883
0.447367301379358
0.442468256554858
0.441249453932226
0.440199867988488
0.435432448247669
0.431182950822273
0.424495955946079
0.420263532961469
0.415145872670501
0.409697488278384
0.402625208805611
0.397247291826604
0.396938309460712
0.39144848769771
0.390101138567361
0.394283779255871
0.395050096630352
0.399888273586022
0.405873684858028
0.413091252883096
0.424024835149183
0.428392603977111
0.442784988334027
0.458499727107827
0.473602155971178
0.490928532746786
0.511103205795377
0.526472918323462
0.545550941719462
0.563253044089093
0.579002848892298
0.596739756564578
0.616345494729137
0.637718791653985
0.655165199703377
0.677518305585991
0.68973143524053
0.701678553376603
0.721897811703592
0.740812085768765
0.750391132806206
0.769316177285358
0.787232041262925
0.79512387105236
0.808722215566102
0.820351500206598
0.829849739288812
0.829666233465165
0.84626811871011
0.858871073616558
0.861609086188548
0.867046685425028
0.878322553301273
0.878482288035084
0.878920085853006
0.879779958874309
0.878571694295836
0.883726782613584
0.895627090997855
0.886885593295838
0.880312840336231
0.886601411290896
0.887951334001508
0.883817019566232
0.885063206954235
0.893550107947696
0.902819449772998
0.910660587613757
0.918686982679503
0.915704785666092
0.918349462188331
0.934594591009944
0.933224081784338
0.939805980816501
0.955418004650718
0.96199407834446
0.967952681922969
0.979790452772047
0.993547716198899
1.01117556836948
1.01775910711245
1.03154261123124
1.05991990007832
1.06807881618391
1.0745380617326
1.08501024084687
1.09994202967053
1.11270336856443
1.1277017985188
1.11779109307348
1.13179882730276
1.14382030249365
1.10919538745831
1.11934696684995
1.13067459898689
1.10368506435242
1.10558388902013
1.09638787164138
1.10759931813234
1.10748996657644
1.10682836964425
1.11856705363536
1.11897160486953
1.11828471599011
1.14325587835957
1.14975158271885
1.160874181183
1.1723700033034
1.20728057861764
1.21975409041477
1.22718418581524
1.2586287261447
1.27606268872889
1.28180065467449
1.31864694288415
1.3258915801661
1.33135714786154
1.33968635513739
1.38883304691061
1.40715823313951
1.41713529527407
1.40896445619671
1.44400321146239
1.47197877797954
1.4699752633693
1.55757477824461
1.56939879299015
1.55317343670495
1.59028715572647
1.58119490463377
1.66056444700637
1.72975805732455
1.70606522444344
1.69591068193387
1.72271079718119
1.74541102057359
1.79585298025449
1.70908398837669
1.72897693544435
1.94854000630584
1.90407773461797
1.90966631406742
1.88963226833277
1.77364240430569
1.96667582860468
1.81532369060035
1.78808896612684
1.88891288616254
1.82423723165179
1.85314592188046
1.87592556098638
1.86165884210268
1.79111918230225
1.80534856446402
1.88569453286809
1.85329500596932
1.98659709073756
1.86347260838668
1.87334639464815
1.9417183258397
1.97087825456061
2.08803034891013
1.93111803498447
1.93100478584442
1.99041569181972
2.12925256351674
2.10969758485605
2.24468030006876
2.22730205477059
2.25069297458551
2.22525703673426
2.09705307625357
2.21981859734486
2.13696077400241
1.9912529868321
1.99297244631509
2.12797270672444
2.17857664747676
2.18732682482613
2.19959985027176
2.50973119164981
2.2194592781848
2.48080382760204
2.28949984928644
2.39019779401398
2.35602760617613
2.15052527258187
2.06452136508784
2.37033420134965
2.22768397145005
2.1961440785303
2.17350867036725
2.29755369082167
2.37481841688623
2.37348148336107
3.31651163175065
3.7292839520591
2.49981593325067
2.21655979067738
2.16755869553763
2.22155709061325
2.08063917221892
2.01590503183816
1.9973599586491
2.14405963659052
1.92190232871722
1.87674963555519
1.86482830075313
1.76785730073506
1.72231277637871
1.78935500182103
1.74044489872426
1.68309885126049
1.65678418813431
1.62776303419039
1.67117893996202
1.67503144995024
1.57887154673694
1.60006090212818
1.57829131954914
1.64933546335341
1.56515539444
1.56133982774935
1.51857381949618
1.53585015469667
1.53186315162815
1.4989945610742
1.45578452210135
1.4154060454128
1.39085557892731
1.39463902393441
1.34941930905009
1.33566258223448
1.26509207230735
1.27014081045893
1.2403383417839
1.16000325201837
1.13091171326014
1.10125192007828
1.0388518415463
1.00000807322442
0.950257057309032
0.912549518968113
0.872403237821038
0.827850209683514
0.788998728699241
0.765530587490099
0.738912923880259
0.709303040332968
0.682615491084253
0.656725105176852
0.631183877467142
0.623770923821949
0.603382687295369
0.592030511601524
0.578204606909049
0.574068136798115
0.559179927919249
0.549624188294169
0.548721684204892
0.544570215732006
0.540160667856357
0.538642027167777
0.543180835237933
0.540397786654767
0.54030639569729
0.538404103556431
0.539094314714639
0.54601867820883
0.548123029989158
0.549265899680614
0.550284911390066
0.550878184341058
0.548148006065102
0.544522609118425
0.536134847021133
0.535274479468279
0.525481767949218
0.5241566259022
0.524687910887722
0.514917789724
0.506514989367248
0.50331044382998
0.508166948818067
0.502810888657025
0.494071391631194
0.505147023449693
0.496122050085773
0.4935470186358
0.499377982309974
0.500310314633471
0.502442831564503
0.515059183908752
0.518418369584195
0.517956415275678
0.527730456130326
0.529489417711834
0.52916246512944
0.537972550616783
0.538778406581546
0.539085527037533
0.552372300635553
0.553993307199158
0.544973725832304
0.55110267018696
0.553726886462228
0.549443621091318
0.548842152132621
0.549673560612153
0.546798848687089
0.557533539031234
0.563621266976174
0.568344129924377
0.571710938821212
0.568254026275687
0.579628462645057
0.589658535912484
0.595733374875906
0.616887996168669
0.623620458431609
0.636830787629587
0.650671080231376
0.673729273637142
0.69167716618559
0.704534222610179
0.717041949763057
0.723124935281215
0.737364042907928
0.744576262650169
0.739246921256535
0.75055284884545
0.73370287647297
0.734024855818146
0.726194597086436
0.717574330117454
0.707825783145594
0.693669092870594
0.68781864136677
0.679004713698615
0.66401344662632
0.661163434204621
0.654361129707955
0.671688998398067
0.672567697646025
0.668873851881769
0.670137413841088
0.668842078075388
0.672951742671912
0.685294924419492
0.667953741407293
0.662253866798862
0.654856622458087
0.648944558483899
0.636666577411019
0.630334444991167
0.623443410380191
0.613542929060639
0.623307044281386
0.617457828853056
0.605438115599286
0.606513873150132
0.597109178609636
0.598736305378535
0.589959474995885
0.576190139650281
0.579429963704289
0.5875120292116
0.592361391111292
0.580459158898484
0.578965954862594
0.588142970388447
0.572031348300856
0.565069083319163
0.565392999862833
0.544336425598479
0.554231275742705
0.560630164271355
0.550136459937202
0.566063655044882
0.54072277532055
0.548116081030289
0.562821800053636
0.550817287208588
0.525725749938742
0.531596204014911
0.540039541140517
0.537173750028577
0.528067245294595
0.535060882659214
0.521110265179946
0.517645471777583
0.528058741489364
0.520337552692811
0.520901502026458
0.517871846438963
0.508597500672001
0.512203358317416
0.505977394390339
0.520654289407294
0.509866363946615
0.517473080318309
0.513848752683973
0.512576645037704
0.514012008240299
0.517667219187459
0.521866805719783
0.547410419533921
0.532199053876767
0.531271816834971
0.530038409400103
0.550473365372336
0.537516092048404
0.535092458187246
0.544991275203555
0.546744605544415
0.545380552010316
0.556130549831503
0.567860167237464
0.550918367390906
0.555544627128664
0.560112660715542
0.587382860248165
0.586840258673247
0.592144986397222
0.588887402212088
0.594545514975321
0.608620075487026
0.628388817554212
0.625551990100177
0.62693703520641
0.670691734000253
0.682535639197043
0.668304370660974
0.6919772798919
0.709230851848369
0.736493099579219
0.746376909641157
0.731534119619383
0.769758651634307
0.806767604656378
0.856581250812316
0.85398393399411
0.840957853855189
0.846652639977356
0.833064350844476
0.847708492043461
0.928539165999226
0.943870877099816
0.864767013678966
0.898274206094024
0.908212901774576
0.882670181659256
0.891364342243818
0.940852635825931
0.844634953837058
0.892426988812289
0.874505327114562
0.855438321466593
0.933343238769734
0.870933765341333
0.896700815644688
0.859465969423099
0.839934010202544
0.84040950038028
0.859546136997108
0.853999578550277
0.831256556632183
0.848216814928013
0.806779949438016
0.803453174409009
0.89801821703491
0.890323886285916
0.830491914083297
0.818032870596114
0.773262881376109
0.809848349423973
0.834296074880758
0.814633441019234
0.773555172583648
0.784484555128621
0.817603858205879
0.803764626625129
0.794106199763861
0.765495817661233
0.765936434990555
0.800434851316903
0.82570893389618
0.835411851220585
0.777991188322857
0.798397666484117
0.778592453515671
0.827110730401812
0.832837219492597
0.824412757589001
0.841217556445593
0.82454916364035
0.846617696160986
0.911497655706022
0.824134622259104
0.856538261491465
0.818204869170179
0.787908764303877
0.864823383411087
0.847473432532546
0.824735458362121
0.803746071662778
0.789150906292824
0.862941678527256
0.865380372057316
0.800124134997661
0.786343911836195
0.919216580973818
0.917107145831452
0.868414185578309
0.857056264159848
1.04430868001977
0.87684122545786
0.789773058282806
0.930119853752562
0.924788289427697
0.920066084266485
1.09248186089901
1.1181768879641
1.03152455336039
1.02494155673578
1.08347696906204
1.00855992229393
1.10692452937637
1.15194791092064
1.36820771914604
1.04358346681976
1.0761880149533
1.16213007425278
1.35585525878161
1.140345995973
1.00967384717979
0.910045513211691
1.12942496896039
1.1916967965115
1.10760327573756
1.17693016255911
1.01576312071983
1.17015711833073
1.07336379192729
1.01903325925463
1.16352918398915
0.934987409463285
1.23502502117447
0.88232859860935
0.96460227601475
1.08423666253933
0.779744474297589
0.869084873762627
5
1.30775156137948
1.27832459151907
1.11149249712332
0.965508350201396
0.79580407906252
1.11119818584462
0.974727823610747
0.93651113117133
0.999495628271028
1.43349459460948
1.06097075128001
0.972671962200447
1.53761033280915
0.889218335322523
0.799507201289023
5
5
1.07315890108701
1.30075740782866
0.931038886985605
0.805804442394785
1.13592721591734
1.07899415144527
5
1.29877927421041
1.29917328275478
1.03479642869776
0.6972423809162
1.20361223583901
5
0.712782312708351
0.788113152519394
5
5
1.28599834141804
1.59235563599231
