3596
4000.36533379555
650.420452594757
1
2
2
0.0656169617858348
0.0549607094921694
0.0664081107867296
0.0579517190673807
0.0689511952692568
0.0591408836196559
0.0673915577034568
0.0552794798272458
0.068418901855094
0.0589779563712213
0.0711513789286973
0.0533070681342724
0.0678063913156028
0.0587465367079761
0.069372444036468
0.0511491695931729
0.0670391936009411
0.0540872469905598
0.0598392856546394
0.0552570707146988
0.0707769953137039
0.052801035419957
0.0604473609506209
0.0498746117878945
0.0664332309321505
0.0589397923952786
0.0603705161805089
0.0491556246291573
0.0699610869488872
0.0541167922241442
0.0666665629787868
0.0552057428459558
0.0655019384579418
0.0536242061906906
0.071191912858592
0.0650921683429468
0.0624953035744943
0.0550847495342652
0.0648075751859276
0.0562799027381112
0.0716438655325144
0.0564361674176798
0.0696014017955399
0.0605834313076285
0.0638417458356943
0.0556435798049068
0.0742006815350122
0.0536901922692771
0.0629282785469069
0.0578312372795624
0.0751892114436056
0.0507751294465048
0.0692333299649069
0.0621615710279414
0.0712922101090673
0.058010157996412
0.0608346857574086
0.053682235610404
0.0650753042268996
0.0484997869431956
0.0667394295453402
0.0604033642541256
0.0607852358007363
0.0558407281315277
0.0665587800637102
0.0501847708056577
0.067187408470455
0.0474327644837757
0.0606282177150602
0.0453508590770595
0.0576928279702715
0.0614631934627652
0.0740715098854066
0.0483435121300798
0.0653634354581454
0.0494871515394417
0.0688453900262465
0.0491057103914427
0.0553428956737555
0.0603131829836685
0.0790469315522851
0.0460695478778461
0.0696256914751048
0.0447062465804308
0.0651634530039933
0.0639817973944754
0.0621132268945887
0.0474403488605434
0.0737761310962458
0.0492094462449213
0.0676810994596915
0.0468156799188278
0.0572863072825748
0.0539932589548819
0.0629308818096161
0.0400445669496395
0.0603758716457718
0.0533206082259639
0.0603887048777175
0.0483921267972759
0.0596368352973999
0.0467030304232766
0.0844446270275757
0.0387219354553543
0.0867379305788201
0.0629966095941353
0.0377537662895726
0.0791953439553098
0.0722728288231942
0.0490646715246264
0.0676569811512413
0.0486444270478087
0.0588065423286734
0.0489632228050579
0.044118482879832
0.0398309655385178
0.0916470635100933
0.0535605092318763
0.0600691168499871
0.0418736001774842
0.0445129232809798
0.0473222026165182
0.0900075307704724
0.0450018849908271
0.0594256557858662
0.0486191159666659
0.0483531264441017
0.0669323267754258
0.087683068894302
0.0520686683560484
0.0569845259363642
0.0413585736523544
0.0496534006866312
0.0271022450132004
0.0851591600715592
0.0530613102231873
0.0524667194380647
0.027126172244403
0.0545816522677969
0.0722479695928089
0.0757149180400806
0.0480716794944659
0.0386908847099092
0.0274910564946699
0.0843585124185957
0.0500139159193691
0.046001076527016
0.052818434749644
0.0675729513080049
0.0393028007607144
0.0543952069010903
0.031829033516331
0.0668909770822635
0.0481887294711424
0.0134647847369785
0.0379285113363582
0.12022910780386
0.043483095075381
0.106258374156992
0.0457524251288006
0.0542528172953416
0.0550724230882155
0.0609837285135958
0.0409782685555283
0.0584267451373052
0.0386329255968464
0.052431146690132
0.0625760319265581
0.0540320102078537
0.0356170817132
0.0694437861561616
0.0425494468179549
0.0366440586701967
0.068711607034002
0.0768399095177877
0.0198815057082409
0.075330008914466
0.0547157097828888
0.0455054421463878
0.0458014454642089
0.0756655523237337
0.0438984608784623
0.0564151894258335
0.0426482015958326
0.0455491105071459
0.0475853658964803
0.0578881188935435
0.0435425090032504
0.0515606310635171
0.0175876330466164
0.04416510657439
0.069611707912566
0.0906241366610602
0.0593302093548572
0.0548575945888422
0.0116506529255667
0.0713614227575382
0.0777411322767488
0.0550904084526395
0.0443486012647272
0.0582629297275553
0.0381893094038299
0.0485364470140841
0.0406598406536729
0.0387048885823584
0.0135211236975445
0.0830797152048825
0.0638841841873568
0.0528913074736973
0.0496507403483287
0.045365149639566
0.0211417005938625
0.0765293905121681
0.079711548379508
0.0586434224320196
0.0396804955677584
0.0403404670244053
0.049992579538433
0.0742604358512978
0.0457665007275005
0.0531644956219843
0.0472419329136467
0.053674564198245
0.0480554310611095
0.0548105258118769
0.0437492974541091
0.050513211351831
0.0410664497182301
0.0578019019490331
0.0416048092758374
0.0609862326421849
0.0481537372240263
0.0451501709099082
0.0395581594713916
0.0506144061016054
0.0381720995701395
0.0694174048125779
0.0458348101121225
0.0579628875104424
0.042966980404634
0.0564177554266261
0.0518787342570424
0.0499468451753752
0.0466813169166527
0.0472922674308068
0.0313568774920061
0.0710624340011544
0.0553085543912122
0.0507473211362194
0.0331711176156274
0.0567616291455685
0.0616037776799598
0.0562200229723189
0.0449160616901826
0.0546625066109996
0.0334631147621697
0.0360856695097566
0.059312078671719
0.0540968494179348
0.0396241582379599
0.0611247476222032
0.0568429922904141
0.0557764299873232
0.0315932701831508
0.0346874304098542
0.0833050973854278
0.0551994678793512
0.0230225333797277
0.0974007132987458
0.0620702832365273
0.0602113375835248
0.0393045429790789
0.00706718773105489
0.110706692673841
0.116835319992525
0.0468566383647219
0.0473647336998303
0.0597246026409782
0.0531702852599169
0.037340967667617
0.0570373105821966
0.0429128791853126
0.0700136460514436
0.058228796245647
0.0816323716249637
0.034737164245558
0.0606432290484493
0.075788787590135
0.067270905015439
0.0501957876653054
0.057496227392514
0.0370973512852694
0.0595598197381384
0.0583290141716519
0.0622236140698092
0.0531266724882128
0.0459851821564793
0.0707525543592321
0.0735157079033325
0.035770030846921
0.0602273772855328
0.0578999854090346
0.0604006685204776
0.0404733230350687
0.0581157188222779
0.0600220687011399
0.0516392859191698
0.0330207704337441
0.0961904353318474
0.0567170259352995
0.0541339423864986
0.0669858912287112
0.074551285710694
0.0459793573702063
0.0596145941602525
0.0472113777417237
0.0631624503803844
0.0397853150624668
0.0435857876620286
0.0658771915572202
0.0734630906875261
0.0562774093460283
0.06424922162771
0.05259705784147
0.0654435029391315
0.0531469961049018
0.0601764453477649
0.0543683061730562
0.0642885719858466
0.0396354012050901
0.0630428923099342
0.0656300403292781
0.0453457865077651
0.0704682284849001
0.11090782198133
0.0578316457485539
0.0702516967649727
0.0575630503365993
0.0662790134714575
0.0562926033600887
0.0729114709463321
0.0595407872324034
0.0675252972073672
0.0669583982398426
0.0776137040429172
0.0585369098836486
0.056642680733194
0.08826601618918
0.12158709120196
0.0859308091070984
0.074887992450283
0.0399552457575186
0.0894207100089626
0.085697352025087
0.0973909004324053
0.090064818233972
0.0890900458858799
0.0710446518806896
0.0876110880268576
0.0813072490378691
0.0842755899777993
0.0740767849619826
0.0873231099838603
0.0813667605644702
0.0945227056046507
0.0822053708964976
0.0824269749665943
0.0741155439291107
0.124284825506454
0.0927000508764004
0.103735049586486
0.0825276524277008
0.091674047058509
0.0980762694483568
0.115593759696796
0.11335109926421
0.132018528904218
0.106186428479781
0.142617365439941
0.118545531366852
0.120158125679616
0.102674318045852
0.111360120480456
0.112354420517504
0.130018635051995
0.121943380360857
0.127810097268298
0.110934139237886
0.14037666194016
0.124866613013249
0.121042453695246
0.11570303072245
0.14775270468734
0.139989226951481
0.139152789869092
0.120819179539811
0.143764996376701
0.167933575511051
0.183725205384644
0.140058394699504
0.166925414100043
0.154529560232067
0.159990288469392
0.147900667940839
0.159947518483374
0.150608242881553
0.167222197811805
0.172885300146585
0.184795964787778
0.164509529212969
0.183674610481683
0.167832884043781
0.193888453772496
0.179753842933176
0.18933973260057
0.199308933907928
0.207984565011937
0.178732069202109
0.223422328979478
0.196161070714079
0.21608697498875
0.2052208459554
0.209129621372368
0.195839615800388
0.217678737433761
0.206247044003693
0.223710555466909
0.210019699326846
0.228365884862383
0.215464948167436
0.238748191557616
0.217621349788531
0.239719785959417
0.229722071157211
0.248638609543122
0.236330178829307
0.25193517044199
0.238859681777178
0.254320989560018
0.237724555268659
0.286166416621034
0.266542121145741
0.283396249031941
0.255481846611308
0.286711827066943
0.264873634521637
0.282050258978151
0.25769422562782
0.300268826194671
0.26601979699016
0.304332087871707
0.271248486326297
0.293744068478697
0.286300657765927
0.331451434687975
0.292614921730625
0.325173398584214
0.29879956017249
0.313624544581984
0.288118651730184
0.328451314331183
0.297059416555591
0.340646212229069
0.324635787682057
0.373206808256897
0.345018928205682
0.362206805683322
0.333735797792626
0.372214028877494
0.340405551162329
0.347474542091782
0.341107382123633
0.368043068585066
0.371329377698623
0.384702559941123
0.358595705986592
0.39846847866049
0.362365885531437
0.384925321142345
0.372093744290996
0.435109834466157
0.387797425277354
0.442365507162386
0.402516574178519
0.427338521010761
0.413811270422216
0.430593113362599
0.404999230840438
0.445735901457576
0.40173445613209
0.461415034425755
0.413422404982395
0.474796567062591
0.430730356947061
0.467362443099556
0.420916138085812
0.46703243775833
0.44809785759622
0.478531379903525
0.456105988070825
0.523544817209889
0.465129330740027
0.520323901781839
0.4836144187703
0.534171453832371
0.47166991353002
0.547648194236679
0.497869737543254
0.538207448470642
0.490243298566261
0.551380742546038
0.532787915838793
0.566021716380045
0.546522012251077
0.530340098842307
0.55079050095104
0.575363238753809
0.54391578698508
0.583424822984687
0.547595251442713
0.573223141151977
0.565877977578699
0.605734574716835
0.542803564698816
0.599180477474194
0.562616494525025
0.618355512465576
0.559884827427535
0.607177978166102
0.566394410611962
0.633447697858546
0.604858419253928
0.663097685081739
0.614320093316088
0.640695606334679
0.596492739579184
0.652894658462572
0.626925204874874
0.704015745580334
0.611014492440696
0.686266433186634
0.61642975258884
0.705855949122046
0.684557999561036
0.688554853988377
0.641346397511966
0.669625817249553
0.666443327401691
0.725844171298946
0.649261989332354
0.756516751888311
0.690781753809617
0.741372461359005
0.703481908227764
0.725770573334899
0.688380821251795
0.748553322051533
0.691748007831419
0.758086300593984
0.748312380306014
0.803150587616263
0.728565060459288
0.822354582296346
0.713388095266323
0.786703424079174
0.773833098026931
0.767698481662348
0.765714506572797
0.799377881211931
0.737752747554414
0.836660983295119
0.732250437634284
0.907301656851583
0.817424561425972
0.857776896556486
0.793420324271055
0.87390987501673
0.782527420771048
0.834130046971135
0.818674788163732
0.866226947198005
0.838538984791294
0.856940975703588
0.824392374607229
0.865638184257108
0.873157402345366
0.899710147797997
0.856331056933025
0.969358998357387
0.871605330746458
0.931000745920748
0.881515710916957
0.995066162013138
0.881602662272211
0.923429749027562
0.882958260591615
0.907563394520502
0.868716929263085
0.934560403173592
0.935258242764549
1.016583518092
0.910682245376962
0.926715613368749
0.888921039313826
0.959327052004503
0.884294442404389
0.96994247225198
0.89598849367273
0.981626439418902
0.937255861236874
1.02154740391175
1.00173109016577
1.06260094566095
0.9393743155854
1.09251346287126
1.0106356003904
1.02259215375575
0.99450578213727
1.06627352622694
1.00895049062065
1.04849387022672
0.956736035017475
1.00296448870429
0.961156850842963
1.11198026317266
1.02041302002228
1.04840569892858
1.06313130577513
1.06275197876026
0.991037581395212
1.14953907128359
0.971815757434802
1.07540599644183
0.988922753381947
1.07856974095816
1.0490880509682
1.11889285512735
1.08313008733033
1.15168615103208
1.04905713154783
1.1067620397625
1.12586032727703
1.11129460065953
1.04446145543067
1.1672917274056
1.09478217105813
1.1199698810221
1.01984636903227
1.11105295281903
1.01996346703198
1.1396247374316
1.03669325026122
1.2407308216241
1.17724002208354
1.13838967411155
1.06287670169337
1.19823407534363
1.0869062621279
1.17720786871887
1.19050894270664
1.22354375328561
1.08147457870628
1.21329106241121
1.10141557459721
1.13785395623765
1.11956088706942
1.31989366138842
1.12051064406489
1.22367822731775
1.1628317688088
1.23794845502134
1.11193030285982
1.36936721439192
1.19190875349246
1.17937719056706
1.11911526088321
1.22741037039347
1.2129960291111
1.42087638424243
1.17614566934703
1.38161588192505
1.07520588177995
1.40608710671169
1.19013982026084
1.3970942360434
1.16612381892719
1.22710868657244
1.19495707807541
1.32070799203048
1.13158480145669
1.24676077829704
1.13409616448773
1.21785446664316
1.25357544300346
1.24643613868046
1.14355824972032
1.27043049355145
1.26914767303709
1.31184603092513
1.23227879934547
1.36992837798088
1.19898037136286
1.37811437651574
1.24566339623627
1.39193514962231
1.10953040580627
1.35865410467586
1.15268144687043
1.33777779045576
1.19696477327997
1.21990469922456
1.29907798374291
1.28249889119492
1.29314339576829
1.32047533060655
1.16475607125844
1.32631242331835
1.27288838555915
1.38176918458591
1.18727449928346
1.36229502425079
1.19768194771359
1.38632616854404
1.23866660048669
1.33924223423254
1.20693351967636
1.28037911734129
1.2706537723347
1.27331698371863
1.22333725814936
1.28886619152103
1.20844868701008
1.31016696360325
1.26423242907751
1.30337140518778
1.24219171509495
1.29246457665714
1.27814867294456
1.2897221437214
1.20595508702605
1.36455273468231
1.22113482678714
1.41182497375681
1.32717530766701
1.3494089535668
1.16165233238874
1.29283857904202
1.24105466700936
1.28783815686868
1.26853976413481
1.34295342952745
1.25797760711312
1.40372052931461
1.24475258551502
1.2499612072113
1.22031485986969
1.31790928399615
1.29293912311896
1.2736226390989
1.24288157700983
1.35326713361545
1.27048587648784
1.2717799001852
1.26835406070266
1.29217447108968
1.19984698218664
1.26872925814775
1.23341992344941
1.38793798711601
1.2169900287472
1.24283184966868
1.25908978148667
1.27429468722906
1.21946095423565
1.34575389430428
1.25649600902897
1.30759904648616
1.26719800112968
1.38914881060105
1.27081314570487
1.23668474616498
1.23160230581597
1.36828389175361
1.24182615534133
1.31305042847043
1.15951981192406
1.23692720426509
1.19608799007409
1.3355461138399
1.20549938608998
1.34434871288252
1.17337856714274
1.24294540970622
1.26044699671303
1.29361181397966
1.25385248320881
1.27563794654746
1.26126080518175
1.32548390957078
1.20729010860925
1.3632023001057
1.14241208983643
1.21145890426982
1.16894789455004
1.2414318591628
1.14714245858994
1.23596415658206
1.29394553287395
1.40354537004653
1.26505345884202
1.23640708778839
1.17890912378705
1.27422576313358
1.24204534758302
1.233877649795
1.18768887114677
1.21306507123412
1.16608336339843
1.28313455893338
1.20427055873508
1.28497540467301
1.18746059248343
1.1992819711573
1.16573763287369
1.19694298226927
1.16130379735602
1.22507232141526
1.13718232380284
1.32800787386382
1.11593140172646
1.17233640355932
1.17332784862329
1.22081312901678
1.16114757827855
1.22486469201968
1.13499012889831
1.24304972297013
1.15758199583524
1.20022926537854
1.13621202663546
1.12250791122534
1.13932372833208
1.143788342408
1.11595306838284
1.11937902052014
1.10025767988476
1.15058013798481
1.04952138209936
1.15864408064381
1.07775137816646
1.12362801686513
1.14536875371281
1.10205234856515
1.04917038780037
1.15466917998367
1.03960112123517
1.10189450855731
1.11981474809074
1.1109965149835
1.04627483435043
1.07170316615937
1.03668032320854
1.09802769495982
1.00119814909713
1.07613883966138
1.05013696565909
1.08898716523237
0.995599360900826
1.03120166184795
1.02021309119159
1.11678579920605
1.04379602745588
1.07828653766728
1.02744968662676
1.04018068884954
1.00527798598163
1.04753292674421
0.986226063906176
1.0244018556678
0.955678707440931
1.01353400585819
0.969860238112663
1.00460917807035
0.976679914629624
0.955652538101109
1.0194295580193
0.98426565916232
0.95834218512212
0.992041367829003
0.928054183899852
0.970551376395073
0.981640030891979
0.980119829926973
0.984705740309399
0.985818552320572
0.936538617830354
0.953909149307328
0.929359682729705
0.985176104391207
0.893478375113575
0.924624516393778
0.882270297692779
0.940934104731681
0.875786265261876
0.91705848733271
0.908329582144107
0.913390251727609
0.889525177407465
0.892366131964231
0.889651027348148
0.899104987640993
0.867973016490519
0.905765123334452
0.843638996474343
0.89652137593713
0.830522067689642
0.880572503099857
0.830463125157442
0.880182491196703
0.842580157010835
0.839935205394179
0.823719290998157
0.864555615736943
0.823889981475147
0.860535762059391
0.821730739094602
0.835366522985004
0.808794743068659
0.798456107576439
0.807186455484479
0.852991687316742
0.780883316140213
0.804907065084518
0.797388408535894
0.808498793088493
0.769944049399594
0.808845244333648
0.767468570973248
0.769465832488763
0.753958797877527
0.789397847398726
0.747939104526721
0.773032755490234
0.751422019306121
0.742516952378405
0.728891497703966
0.755872079513182
0.729042861383213
0.764097587022005
0.728226997553903
0.7494414739353
0.715660572903573
0.732889039450002
0.71535366259414
0.705023012087476
0.728865695820084
0.734455631286086
0.709402344858751
0.723927557152775
0.703379277534036
0.703483561074153
0.692426264493458
0.698576969098003
0.668528754995789
0.702891625065112
0.672880484577901
0.678932264700458
0.658450368012717
0.679762509370541
0.667217720964987
0.672910425754333
0.657956523081237
0.661159465426817
0.636356687108804
0.672575065670849
0.630952915748461
0.644226342421736
0.641413400540694
0.638701775543098
0.629032072695621
0.643911578779516
0.619182132404787
0.636675997420651
0.608726113507331
0.617200327589106
0.606328806653324
0.617930703259401
0.609933446500201
0.626113677331056
0.600707670648935
0.611187739314682
0.587460448450534
0.611102981368318
0.588313166157948
0.59637950928948
0.594118938842051
0.597947222248636
0.575729188029067
0.599300585587173
0.575270426631772
0.570179103025575
0.566508053744869
0.584594284990326
0.576231516674733
0.571685884364804
0.566989563932588
0.570434416320817
0.553108541864799
0.557201642854238
0.543216065165931
0.56654670665542
0.536411703821826
0.563687908968377
0.535596826110265
0.544976470435359
0.531686619139253
0.543834854187161
0.514263416279481
0.544038428231334
0.529053459715201
0.541776602718489
0.518356742137676
0.533499904874723
0.509971896385446
0.524587610043818
0.508975212987072
0.519899644219835
0.490751296485702
0.519929896552382
0.495285403467633
0.504774311297339
0.495424609379151
0.497461825062655
0.4941389875453
0.490808173066481
0.48458559026827
0.495859484816716
0.477023664734645
0.492583134491446
0.482424447700708
0.47981545121769
0.469802146554894
0.477460807251761
0.457172986627661
0.474071569593708
0.463056530124048
0.476519084516793
0.462441183062452
0.464611408121922
0.448140799856272
0.466874004373032
0.458382513484383
0.448882035215234
0.445012551086857
0.45832995433848
0.439053172411476
0.449625013683608
0.437389327812957
0.450811983959603
0.446021640555071
0.458116777428176
0.434256557950883
0.440724204547103
0.430144821952857
0.433079496913451
0.431394438890122
0.431866442680895
0.434186481838921
0.440908863136852
0.426665446825913
0.433322464544713
0.419583732625196
0.434068904483125
0.427335086417896
0.43000080770404
0.412064879589471
0.431737844271711
0.419302330207467
0.428001103527949
0.414846891407624
0.42655874541328
0.41880480869297
0.416333335830182
0.417885321915229
0.42564671610711
0.419915279985351
0.428292425130203
0.407758669236585
0.421593486726368
0.413417515820559
0.430128321058049
0.418256606079074
0.433810448871231
0.422870048380657
0.437937612509624
0.424752431364469
0.438581055081531
0.423559890702295
0.432617392642671
0.429193228060961
0.438778753455361
0.43864517005334
0.456575550315182
0.438034840967683
0.450792619328442
0.441142682541467
0.459207188853102
0.443176667931617
0.451277842288721
0.448600843794396
0.462860001833233
0.455347318999513
0.467254451999373
0.45212065683623
0.466883942981581
0.45922343529114
0.475300117917137
0.465900677537089
0.476933119323003
0.468669332703124
0.484442836298295
0.469927339787788
0.479253567709539
0.475611865497816
0.493234879855681
0.488946154022298
0.498260758395257
0.489247008518053
0.496084398549806
0.505782300532766
0.501952062265909
0.498048698373928
0.526759068554686
0.511410421180678
0.529123178772884
0.516864147473435
0.540082709446833
0.527490077717143
0.543380763848727
0.54050347399613
0.551009138274627
0.538934427397997
0.552873993105982
0.544793831941986
0.546313384430146
0.548687721143835
0.550638310376523
0.543692802020284
0.569951312371312
0.554905506933467
0.564413279658224
0.553185331376763
0.55311038972134
0.561347832927223
0.570480507568086
0.549897374873355
0.579021696020219
0.560467598041223
0.564295082432811
0.548777357911226
0.567341300518499
0.55097438300781
0.561405728642225
0.552933779160234
0.568755110787236
0.550986893096862
0.547791227905048
0.545900623430116
0.562352912752095
0.557351397659648
0.558967993756372
0.5562293848945
0.561340246819265
0.548246240138032
0.562700513479095
0.552212101092587
0.566573348174165
0.553277150164357
0.57063575541527
0.556036729680537
0.55000475296377
0.56450705907722
0.560232798746102
0.550336262251086
0.565018547998277
0.552320454036311
0.569878086030382
0.556683508232467
0.573896495623392
0.556248866419631
0.558668076775635
0.561905641403217
0.563696127095155
0.556096717458366
0.564367835052956
0.565737256524876
0.564541335596284
0.555992238682196
0.558653816420737
0.545063551661088
0.5657879858579
0.556407496339099
0.558356788090544
0.553527247775703
0.557988994548694
0.538988896496579
0.549897670560754
0.546222891579266
0.553589522772432
0.541840128139548
0.551221079182109
0.530688622930965
0.542082196839504
0.530749458609925
0.532656991433355
0.527512906326339
0.536554541899219
0.519201314999791
0.522221885648657
0.511311086772123
0.52073929983804
0.506842865658943
0.504243515449365
0.494394402198141
0.50054557092148
0.493598657084156
0.49717836518807
0.497432699708394
0.496848106067172
0.481251670232136
0.482800755266209
0.474191181022978
0.469290001996325
0.463341664587562
0.469127226853058
0.447968816527802
0.461213083450055
0.453435221034761
0.464556207929589
0.442309649084742
0.452285188201196
0.446887575477987
0.45091899294747
0.431580192516174
0.433004683430066
0.436583669010126
0.436579223098892
0.425488449638338
0.43068243857909
0.420305574504706
0.417634628542385
0.422111896027103
0.419179641921135
0.406768029561699
0.421500748164044
0.406215048042469
0.40267572883787
0.403578992636857
0.411048139063348
0.399405902382648
0.408459250613879
0.396588624191282
0.396112595285988
0.400495312496552
0.394515765562989
0.385939523248254
0.39534118410615
0.383431526719767
0.390406447419439
0.389143981226887
0.394821359097119
0.380207250431465
0.381452775932138
0.380807565157943
0.383809587402807
0.37454439244117
0.38125000818993
0.370321464344844
0.377735033133704
0.373953689651213
0.37449675895879
0.365118247274819
0.36888069435229
0.365161863207162
0.364718672422326
0.354161060395775
0.363949649465134
0.363261338859632
0.361240776552565
0.354688173850529
0.361367577813926
0.354592528592245
0.352512669958173
0.349715388766041
0.357217155338896
0.342432623005807
0.350923894619687
0.344462021538404
0.353680730216043
0.345793700914893
0.350215388871696
0.341596826971054
0.345443460096759
0.342183401127241
0.339997148413212
0.336931106117942
0.344957378377254
0.330305470650507
0.338696741767188
0.33473594619655
0.346406638220739
0.328522102258108
0.336956202778791
0.334044525361992
0.336426420232849
0.329513756666602
0.33527052050067
0.328594109695471
0.333393322660237
0.32162584600408
0.333192690196884
0.327662749927673
0.330998189883489
0.326894722628236
0.329321185235296
0.324588737673498
0.332270442256085
0.322131866061511
0.319264345004368
0.315749238158008
0.320142232213186
0.315546157229996
0.316852936730803
0.309282874824558
0.320088599829131
0.309472397951411
0.317002549176132
0.314394759510337
0.314929072555496
0.309090263961865
0.310445157749771
0.30787065042645
0.310475607815503
0.304231237627062
0.308416843688132
0.299593975006549
0.313913802560513
0.303506448105096
0.306446069657706
0.304270175578527
0.307316155440933
0.30191968134337
0.305154737669261
0.306061575420201
0.30856644297114
0.304272553799997
0.307008856857159
0.306973369670673
0.312888381605024
0.297577227317522
0.305580995965974
0.295787621286199
0.306570964375078
0.29737073487316
0.301048503387029
0.302453736898725
0.301470890118697
0.293346482488276
0.295861610884591
0.298900608889542
0.301554725507289
0.287173758451368
0.302589985747913
0.294248025195046
0.299701065991672
0.293210053659111
0.293346083283757
0.294623922506981
0.298299215980619
0.290219040097643
0.294423714680727
0.293492065994499
0.293862159164604
0.288141167974137
0.28753638374849
0.286965578126808
0.289224371285799
0.282404560251313
0.291381431745603
0.283626232333581
0.286784306852288
0.28124395677734
0.283534261005267
0.283186262082614
0.283045623779547
0.279195514006517
0.282172850385585
0.27850040598918
0.28417241360497
0.283193439306974
0.278859905326031
0.275851816564877
0.280959939433854
0.275704029772771
0.276719552979162
0.269399420627238
0.276673934070866
0.272475574936624
0.273057313769856
0.272240577131804
0.27207312630422
0.268370471204084
0.269013007710195
0.270826883562553
0.275135645876517
0.267300278144603
0.268936992185201
0.266418212585307
0.269781994898476
0.260733375646832
0.267848375426446
0.267785117391602
0.267420388757594
0.264194732547516
0.263926873739191
0.257360655340629
0.260806017214687
0.257508684540754
0.255273970701653
0.255945972264208
0.25958812599634
0.252822742613955
0.257308256485618
0.252552946278982
0.258955213635282
0.247861302097782
0.247626645334127
0.247328368961513
0.253366971311716
0.248897847242506
0.246986864774728
0.245792667808572
0.247778568246185
0.246004709109659
0.250538268300662
0.242568582888166
0.244126733665407
0.239539069770773
0.240569653119556
0.239257556394869
0.238585606898007
0.231915365812377
0.237738593644316
0.231090594121057
0.234512698418719
0.231912246256794
0.231769344495778
0.228572096696372
0.227296682272876
0.228599706959514
0.232564060609634
0.227716590325298
0.228468907262042
0.22199412434463
0.231584493718724
0.222994683717348
0.226141049238772
0.224017438593574
0.22368977296707
0.215680715708752
0.219565565336862
0.218555461237119
0.217815902107369
0.212277429717993
0.216687022815047
0.21309194337651
0.214875862210991
0.213598858115165
0.215460435677756
0.211005959149504
0.212833591681038
0.207209773144847
0.215672194738663
0.209096771579133
0.206538097607973
0.208923305179527
0.208798570263426
0.20546402623969
0.20423211426423
0.205276662099433
0.206326126124008
0.203403947874632
0.20664793824085
0.201940836089351
0.203150331084224
0.199152187261486
0.201550136755861
0.199981424501988
0.202366802387626
0.195647940794406
0.195133230106249
0.195830815321031
0.198245184459848
0.198160189921104
0.197388266187254
0.195285945697636
0.195319898232498
0.194068312844578
0.195314020851851
0.190305580663671
0.190772190731465
0.188467846398223
0.192615377528043
0.191150086394555
0.190133440389206
0.184528435905029
0.189281243711427
0.182709133519073
0.187197520080667
0.182750388397391
0.184662101041249
0.183766299824421
0.186335254924215
0.182871692652406
0.18452867383076
0.183440685756092
0.18147855512851
0.180744466770921
0.182148919148394
0.179736074797695
0.182987638763856
0.182741600593494
0.181953882092932
0.181108076987616
0.185099149228245
0.181566110456727
0.17940731007851
0.174058670765217
0.177303925231303
0.173798764405029
0.174493286128483
0.173725081524462
0.17482571075127
0.174026492530122
0.176507556310145
0.174368275672843
0.176443738298398
0.174709206895827
0.174952113409843
0.171482965918552
0.175084375635156
0.171367156340838
0.171740123015364
0.170326456256505
0.176137337881794
0.171420133757867
0.173450135998021
0.172093577314033
0.170833118622306
0.167264256784452
0.169534866070106
0.169033224566237
0.168636626776331
0.167191222292757
0.168308012948748
0.163672992666694
0.166130134420356
0.164275213436425
0.16465092319054
0.163726252974112
0.166220112943092
0.162963778737635
0.163477849741015
0.161070998894998
0.163910150502999
0.16393754183378
0.165881333364295
0.160821908096254
0.165254725822656
0.161949457066581
0.160565057863081
0.159510240015565
0.163016923190596
0.16058761475005
0.159136383230324
0.152616851239736
0.157410055945002
0.15808105392071
0.159223472100749
0.156211452058895
0.160262495465369
0.156382436625478
0.152012380655685
0.154091411134788
0.157978264305826
0.154163869863952
0.154618250378737
0.155332334063129
0.15749395868092
0.150743218796803
0.154217409724236
0.15229181587903
0.151749584610642
0.154058186322442
0.153062297533065
0.15037338577411
0.151999062779072
0.148972504468259
0.151118377540006
0.148138844353626
0.150462442441351
0.149220733063434
0.151079891506508
0.148926524434568
0.15170007123396
0.147424855719149
0.147954994885723
0.146182388872407
0.150472583018591
0.147171336879398
0.146262745384007
0.146756534486615
0.147511761493217
0.140743014022802
0.144685775301206
0.143883255845073
0.142299576700775
0.141065368385181
0.143462254208023
0.141856866113703
0.141744822787244
0.138014263080796
0.140564184868418
0.139841163206721
0.138609417548179
0.136615353229341
0.136314991488218
0.138171746161981
0.139503712959559
0.135522562329953
0.136228591669797
0.136009817543792
0.136680208613111
0.132385231901051
0.134892217236329
0.132401921662396
0.129957104180209
0.130733305654412
0.1333520937431
0.129447111068096
0.130795197458668
0.12600133300802
0.127131015088218
0.12596764681921
0.129389210333136
0.125806002102073
0.127010196860723
0.125956629386233
0.124650364788982
0.12526354195953
0.12696173175352
0.122885190249597
0.12607360258868
0.120385509581981
0.122006860015794
0.121603861023308
0.124610463043038
0.123159466128906
0.124111749176578
0.119169567252169
0.118969621225412
0.118143900649035
0.119582693442704
0.118522256410555
0.122682425152325
0.120509772402149
0.118720132472633
0.114279054044921
0.116711720956241
0.114118572450781
0.116219343536521
0.115402726083774
0.117090095945609
0.112339270149058
0.11359031735678
0.112280397084002
0.117396780269648
0.114239660805421
0.113405158527134
0.104647315926987
0.110224907060837
0.108780041388613
0.109714052787182
0.110001092539205
0.109599895578073
0.108480696993186
0.106842482532024
0.104872117793754
0.109388268821018
0.106314110299904
0.106777937364713
0.105103045906116
0.105632337370435
0.101057000561681
0.105091369884585
0.102152755156926
0.104528126413183
0.102356213927262
0.102647371938693
0.0994457665843821
0.099231429703587
0.101369542374318
0.10334442802438
0.102199186453343
0.104613335533878
0.0996587096118349
0.102864672373357
0.0987964781793662
0.101084231935469
0.100041306213035
0.101665891051689
0.0961335135794423
0.0986714729520969
0.0981097378939675
0.0987087936321228
0.0987997365825631
0.0997366682925699
0.0939546475924226
0.0988471460985931
0.0955657626728004
0.0970109843153614
0.0955531701344465
0.0959148344756326
0.0938345839038859
0.0974345322961201
0.0953710511092815
0.0977527043553502
0.0903476138200286
0.0979743168141702
0.0992091400188767
0.0972640863776447
0.0924193443517223
0.0934627316262745
0.0915358373585636
0.0932403105939246
0.0904435179074225
0.0941363933692308
0.0873157350902757
0.0917656463495477
0.0889903826486052
0.0984457465418889
0.0957651895389189
0.0951914753224535
0.082607696789185
0.0897008971047512
0.0891961240791568
0.0927587851541903
0.0830110449716319
0.0950535200486516
0.0830331128195069
0.0932997614170307
0.0927315308032306
0.0881534017301391
0.09074106584328
0.0986786876476698
0.0850670931905407
0.0919510770961623
0.084503986301247
0.0939995401310469
0.0865114363071879
0.0944164240499722
0.0844232616501411
0.0922310645115309
0.0805165515882035
0.092715534964587
0.0826542280693828
0.0912666695398736
0.0802979734255166
0.0921115319151071
0.0825148938206067
0.104063699305067
0.084551473368395
0.0966360894748633
0.0830504747371912
0.0979195644996003
0.0840801489625685
0.0985064160516568
0.0842179880160077
0.100410624361925
0.08754868864366
0.0925861368016996
0.0807572288988018
0.0869855373809145
0.0802407735513614
0.0947296896613128
0.0921995806796686
0.0813394103640429
0.079200488735751
0.0861395435449205
0.101492016555555
0.0798858678905244
0.088716118490952
0.0794703617813972
0.103531996525379
0.0742530578396334
0.0969486413824346
0.0748792272349894
0.100246563748045
0.0676130968763194
0.0974166721296085
0.0734871477949087
0.0942342649338455
0.07844967430477
0.0896769682100976
0.079441732685557
0.0874132483603298
0.0819475060870535
0.0858982885416463
0.081510292953101
0.0838420427817736
0.0779151001078445
0.08460913624053
0.0796178847768447
0.0813722147046007
0.0766004270771927
0.0837574436165578
0.0790210979356038
0.0826293045965936
0.0802863193553165
0.0827441842917375
0.0777751047179636
0.083880403774255
0.0783146980456565
0.0807430337309803
0.0758317757473903
0.0840763800812902
0.0785339346061104
0.0807173110196724
0.0796452339043025
0.0815323868661925
0.0790341582391954
0.0809021482793492
0.0805747081326274
0.0839972954013742
0.0795537745925052
0.0821926396078845
0.0780191534826121
0.081736472024918
0.0784636952834408
0.0788804281268284
0.079837997448498
0.0812956317042047
0.0779259807961945
0.0824055649969825
0.0784662140166265
0.0819670360760683
0.0785597509989569
0.0828760743739425
0.0806305604177165
0.0819559818981921
0.0786108971039367
0.081994857784924
0.0784322709385167
0.0821805490950156
0.0786133853817316
0.0830830900693457
0.0777193970681268
0.0846156484535027
0.0797526966470851
0.0799396998881071
0.080463225937872
0.0825867551649507
0.0812899166877907
0.0807304895394919
0.0782006602181906
0.0807508475255038
0.0777206159743658
0.0822094274558647
0.0810036215636504
0.0810604734350191
0.0781634634350118
0.0830158538248672
0.0811960830041005
0.0839479155908266
0.080730127742887
0.0831867247106441
0.0799659511208461
0.0816978875482553
0.0795197823987073
0.081784883925092
0.0806423008204283
0.0814126201341141
0.0794541634710138
0.0810052588447924
0.0784922538844483
0.0805804449920545
0.0811208772262838
0.0804233148653393
0.0790600811640108
0.0816107436503833
0.0802343116017908
0.0813652404590316
0.0809114941159192
0.0827365948781026
0.0811168884142346
0.0823485149580382
0.0823826147987747
0.0829913483414665
0.083262232255027
0.0843291637406516
0.0816259062654962
0.0827182936266058
0.0798733480064983
0.0804041059084571
0.080068449743186
0.0812230675041044
0.0840464089596451
0.0866436697811884
0.0828095246756582
0.0848225597160904
0.0830649236736016
0.0844885835363124
0.0839175160856437
0.0862737467247566
0.0825913483292555
0.0856564517001173
0.0845489870273917
0.0812645920311521
0.0832617163950425
0.0834103609973506
0.0818249556698127
0.0831979139198277
0.0843669434362362
0.0851458960268241
0.0851141412107024
0.0866351025798327
0.0846852037167027
0.0856203011022225
0.0835203556829541
0.0856870867296369
0.0842943357093187
0.0841767972763176
0.0836080485581635
0.0845966677754076
0.0835507760878064
0.0842109528510541
0.0835428085078538
0.0838464306367267
0.0836939472477904
0.0861960938939529
0.0834877217926566
0.0851850666180491
0.0851193511054981
0.083794173773134
0.0845103477731252
0.0872537379275595
0.0842649228553258
0.0874369476602394
0.0866853668587896
0.0864011176877904
0.0869280361463198
0.0864026995575615
0.0874457599715356
0.0868259829768973
0.0872055177699693
0.0885969196856725
0.0859597709996688
0.0874638019454714
0.0855099442800805
0.0878454626434954
0.0875312764842872
0.0884726438948102
0.0886688931753233
0.0908200876120312
0.0880586607820978
0.0913194430767063
0.087078811225755
0.0880700126699951
0.0869167460086915
0.0906619356897578
0.0879716259141668
0.0891146263819503
0.0884684540020204
0.0911024101443265
0.0884165693233812
0.0899442026226366
0.0877525074090463
0.0886176721627742
0.0899731229030454
0.0915454252629379
0.0874625254131463
0.0877813475665102
0.0873674894403926
0.0878036973026173
0.0884995575290516
0.0900007722853905
0.0853163410181423
0.0887039288812913
0.0877529839487647
0.0894647643937069
0.0876640192310363
0.0877105576129597
0.0859583095445555
0.0861123298609409
0.0864485955038003
0.0859552371418734
0.0865626915176594
0.0876132989332831
0.0840273101172027
0.085718072094463
0.0834859347749869
0.0867551512088307
0.0848888817154912
0.0864450822010865
0.0849127195188835
0.088283580209399
0.0852363878556562
0.0842955097453678
0.0827944213001153
0.0834571239602841
0.0828060692987131
0.0853985890507369
0.0849899153873749
0.0845526974936829
0.0829553911408315
0.0841401940685839
0.082546932158364
0.0836025071919431
0.0847760946330534
0.0849917913864195
0.0832217806330211
0.084275800326135
0.0840797382096584
0.0846048524223666
0.0820477627052902
0.0859894209783355
0.0811204796052244
0.0821694914346781
0.083632764040728
0.0852188556726012
0.0802194781576496
0.0820198897346357
0.083165778197266
0.0850957208317989
0.0817314587129595
0.0813426195959688
0.0798669321722075
0.0842177932564734
0.0825526019402894
0.0821846094587863
0.0811431949994376
0.0837595567713697
0.0815842513539859
0.0844384880754178
0.0826339724153127
0.0835115231608366
0.0807887372356886
0.0813487449990048
0.0792384544025588
0.0811191041786643
0.078974984316661
0.0811329404929986
0.0820094641826581
0.0818201209798041
0.081413382205553
0.0833118661214007
0.0798062913181539
0.0835522946243724
0.0814856046440631
0.0812200401528403
0.0786170658990641
0.0788063775373071
0.0797638120994736
0.0810400041887827
0.0803771396057591
0.0801146064881949
0.081864429375824
0.0824408533616835
0.080302104962652
0.0812861080660699
0.0803005509376538
0.0805987595500075
0.0780805626698151
0.0800650092367976
0.0789198589012976
0.0798076787230109
0.0792757507189353
0.0804119771609103
0.0782680527416426
0.0784597846431255
0.0763589125426031
0.0794856526233454
0.0777673570263022
0.0797150417606764
0.0798850841716751
0.0821200609469738
0.078492556777999
0.080453772394058
0.0784515527838525
0.080385665826193
0.0787212795157822
0.0783466937898815
0.0776250667096428
0.0801907994105417
0.0778533843271181
0.0790219506257239
0.0778952041538421
0.0783155818594902
0.0767156948270069
0.0798046286549295
0.0779197748183078
0.0781964707748309
0.0776605273765064
0.0767731178345506
0.0740936888904427
0.0786087212544908
0.0764352638256062
0.0755920947702734
0.078244209248197
0.0767536386079858
0.0743327023955442
0.0785858530337192
0.0728389563385404
0.0745941374801962
0.0736242418443489
0.0753571183478232
0.0740655900168541
0.073913671501434
0.0745985365378865
0.073945266986254
0.0719218934587329
0.0699460349960229
0.0711244560775058
0.0710680146474462
0.071626905705458
0.0695746797348751
0.0695276324558411
0.072729950540655
0.0713969304415134
0.0702238024890817
0.0689380494376652
0.0705311398042804
0.0720284233156567
0.0705878887236159
0.0690239809860524
0.0700445829251702
0.0687949683506906
0.0699888837563532
0.0706680728718635
0.068063854932878
0.0687868278280524
0.0697353522586466
0.0697668290529656
0.0664825939619203
0.0712169145293359
0.0695521508149825
0.0673941368832517
0.0687244667104273
0.0674548206310136
0.0708661515068143
0.0674092204026077
0.0686572435568358
0.0658272243360346
0.0687887642621611
0.0676872602219134
0.0677842809574808
0.0663435714917677
0.0687527234763556
0.0671971961107948
0.0713363324430075
0.0661710428453846
0.0699136904731478
0.0678948154412476
0.0675985890780213
0.064907713108039
0.066200563957842
0.0661997339072282
0.0669094500491264
0.0674594441313943
0.0649125209215244
0.0634192877590701
0.0702108790171514
0.0653489548007441
0.067740419490912
0.0633590967042555
0.0663807237836446
0.0626316230162241
0.0659956860030308
0.0644181401581532
0.0658529954979348
0.0631575570256369
0.067001275292357
0.0645269586287178
0.0667643332921692
0.065373112782057
0.0633336814760897
0.0639333589803782
0.0681442755281222
0.0612164628586832
0.0646110176994877
0.0629024166231261
0.0653677664179987
0.0612325828425981
0.0637085325554555
0.0596516778334587
0.0675187592077998
0.0565885409693634
0.0652466053193265
0.0690723048253224
0.0659050070452608
0.0607791898622084
0.0606549435153399
0.0640884690441566
0.0642944835273407
0.0620046298589692
0.0627298267156034
0.0611811734227699
0.0638537108126419
0.0660578470268324
0.0625651728824661
0.0610896134072831
0.0642671445523079
0.0615154312834406
0.0622018116654294
0.0588951139002687
0.0592318033260317
0.0638385327033248
0.0606247008312222
0.0623761378292162
0.0709589277358386
0.0605115658438588
0.066043517236692
0.0643340409756482
0.0532883772085873
0.0742580259932627
0.0620412632478237
0.067573350279738
0.0586636621684405
0.0639473231587896
0.0634153905662523
0.0647935784836527
0.0583839463458098
0.0647421877548449
0.0633905324658531
0.062600270553426
0.0663287925258499
0.0629157827737462
0.0623897332677189
0.0614358534458974
0.0630601853810139
0.0628595432011414
0.0631548534244349
0.0629613714235477
0.061704434848279
0.0604129193441515
0.0624931852320948
0.0646139250590441
0.0576485923076488
0.0632943802979928
0.0630174786681114
0.0613008553354757
0.0611725641311621
0.0655187152439098
0.0570779337551717
0.0601293019171479
0.0705380791731523
0.0630837075475979
0.066952837007114
0.0574256130165774
0.0664760226520417
0.0629215812222762
0.0627157150148903
0.0578189513766151
0.0647121237303764
0.0602083554479562
0.0638847588322384
0.0581848412872884
0.0630191389359596
0.0616261218655002
0.0642735578278808
0.0587977709897173
0.0648954464036345
0.0631971669239252
0.06140808180838
0.0631555500373998
0.055001617549116
0.0636142183520547
0.0652509428253408
0.0721663823048158
0.0661294082749859
0.0667964480482715
0.0636574864947791
0.062659250463749
0.0617478271903639
0.0633680108132401
0.0647972720746195
0.0629655230396796
0.0641853191642373
0.0624639697528114
0.0633240809465767
0.0632032010078003
0.0633080015984092
0.0627206007099816
0.0646215668327867
0.059357246494232
0.0645325602549536
0.0579218651565355
0.067373435254258
0.0551049677018609
0.0727406382638536
0.0597021263091682
0.0722105506425913
0.0401948474810992
0.0876385424627021
0.0671233145586163
0.0712043426067442
0.0640808108884165
0.0638796668967817
0.0627775154537508
0.0623844629791964
0.0628546562343988
0.0704386983603432
0.0627197386526688
0.0655823378781146
0.0599132628820584
0.0681614341751022
0.0686570071343576
0.0624074054811019
0.0594148465311096
0.0793357996957478
0.0630542395636333
0.0744831378907213
0.0553659183893052
0.0702666642081249
0.0760475890099225
0.0646286172111724
0.0735226536334544
0.065247037440269
0.0686507290631788
0.0654343242234901
0.0685375245018835
0.0634051846163733
0.0678014578597443
0.0695424181148759
0.0680553428466995
0.0676224003124574
0.0644339222945501
0.0725653657540413
0.0660524170309072
0.0779090309210017
0.0731704963545406
0.065392497486162
0.0723952923130813
0.06934686277244
0.0680171699054995
0.0669436381278316
0.0707789558260716
0.0656929859570555
0.0704439135622988
0.0766962695133147
0.0682103695601242
0.0755063016439671
0.0765952803043904
0.0689824745059337
0.0743970924658166
0.0688977572348475
0.0852499101816493
0.0584859827392691
0.0788065144235387
0.0810247808442858
0.0767509811037154
0.0883114936370196
0.0675130069138989
0.0821735621213208
0.0662424002527047
0.0808753218794316
0.0616174646963668
0.0991133909414461
0.0635235083243874
0.0880457020985257
0.0590022310876012
0.0901978013610031
0.0778997685873915
0.0848774270261594
0.0743108060794413
0.0805745026364007
0.0705816125697132
0.0933162774849963
0.0711522415044827
0.0686394351419767
0.0828625892130367
0.0898795579316417
0.10097957639672
0.0784139444985183
0.068658900238831
0.104994911901797
0.0747970671783792
0.0899679538298119
0.0735873184389627
0.0925700628696449
0.0715084644167698
0.0801017246624739
0.0960946995918733
0.0833198583486347
0.0858143354355076
0.0898150761424584
0.0720263218516315
0.100269318085881
0.0800347426600971
0.0932757948816837
0.0823548883267685
0.0956343864550559
0.059820099980217
0.14126542248379
0.0804345802718714
0.105557251344358
0.0959242296414256
0.104055876153599
0.0948530179564921
0.0994029399488372
0.0925884633623186
0.102826123670145
0.103422647131532
0.105962589875592
0.081569134249487
0.114121343587583
0.112748122902909
0.0966928417568663
0.113429387278961
0.0996713155773645
0.0884006271221557
0.115643338139472
0.123771989232425
0.13077131202799
0.112356627655404
0.107833026236621
0.128800463872676
0.115527451647826
0.115617981745888
0.116413723926384
0.116342387843569
0.118951541772466
0.113316208188497
0.130255615409272
0.116101594246476
0.129932981097754
0.11845019361656
0.12458171796293
0.114998844968091
0.145870830887511
0.157046685349739
0.11945250673405
0.166452620608971
0.142846826419757
0.14763042061573
0.134916835077084
0.135963836720559
0.143354629796999
0.141626722551608
0.149180148213199
0.129901275768974
0.167881315963387
0.147951653142629
0.160868158109323
0.165434578644717
0.155445002038278
0.16201693037064
0.113972077979371
0.295806256808551
0.15634289485444
0.209623064393695
0.158240142762601
0.18762773885587
0.236563251544177
0.204069086381152
0.205982977605205
0.212706940791312
0.208229482364157
0.221604996074421
0.223073812564134
0.233309295700354
0.244709084633194
0.248426855783634
0.230520621176596
0.265753062884729
0.278920426784811
0.300597633451434
0.291277385284013
0.278848097490111
0.298056414287706
0.311738240008632
0.303711083302332
0.323896830889689
0.310056575158639
0.314191583755407
0.374870619242881
0.342050030716001
0.359686752115562
0.341200336397854
0.411604600228742
0.334261657301017
0.443163640566523
0.387163377875063
0.414827105782739
0.396632596778073
0.422155513433202
0.416078096484734
0.410631947292254
0.44301800106581
0.451630433105582
0.443719515825417
0.451914787789304
0.457177316745527
0.470916432967385
0.466255507101025
0.482548015414084
0.457960042184401
0.513273672876217
0.453381111845512
0.662628862574321
0.498011202725937
0.503824284477116
0.497612170119383
0.502281466363047
0.525561136060955
0.488196994499681
0.526977312831343
0.519758906437491
0.497312226268791
0.51912175112522
0.504293225679001
0.515817646941127
0.485524465138376
0.526488487034144
0.484624994460348
0.553866902489868
0.477812114312978
0.560370434061455
0.55153028286063
0.518419226539017
0.511281238548631
0.516994446669761
0.495040944927665
0.516161351868649
0.49593114723685
0.497213503172339
0.519046034975097
0.496152371296999
0.503861794739206
0.467316673848449
0.511714538773367
0.492219763589453
0.474568935774465
0.486749968053359
0.466580826069552
0.481877513645708
0.447100344861637
0.471662310169822
0.497813469496593
0.460379758522559
0.459820709787593
0.438957411753136
0.440726217049954
0.445085623343149
0.441287863386169
0.447779705992284
0.444129171242121
0.421474834619489
0.440180521689549
0.433010588484962
0.425865874763734
0.419925466954758
0.428431426504012
0.415870535134739
0.428106043565829
0.420159135618468
0.418920243534002
0.422150016726614
0.422922988174802
0.421841892628801
0.417845192606308
0.42294160698339
0.422139452195651
0.414958607070429
0.424270715460163
0.418165562550134
0.426037923406728
0.418171562898411
0.410121272608934
0.421480854137922
0.412639762214405
0.421036463462904
0.409302740468336
0.416001482576841
0.419339221952261
0.417667237259361
0.414397973510029
0.415998257802444
0.404052065359125
0.420296716409081
0.37122573191607
0.471029460739911
0.416958718957421
0.413705063817947
0.402530369827718
0.40291793677354
0.406706458440846
0.376546946307167
0.428088235437078
0.412444369293727
0.390295372523276
0.39308811941549
0.374616391353018
0.391913617832421
0.393393239117325
0.367700154781263
0.399857349173981
0.340533987493432
0.396853840206529
0.374715984227828
0.409128093145378
0.423948830715329
0.3916409497508
0.367234411243416
0.361639359640242
0.400820181227602
0.359060612808938
0.388890815866528
0.335484778676035
0.400609076032089
0.361480075859505
0.363328762855853
0.359286129025768
0.351964812587588
0.369264075258341
0.379040891682243
0.343923109538978
0.360297396598437
0.375060336240751
0.350088897539486
0.365995035747604
0.372974021729603
0.358903825030242
0.335966193126619
0.340424869122899
0.323028969064204
0.31147001528607
0.381773429871555
0.320805062644894
0.342087904603467
0.318512224218147
0.318671197035183
0.3064255494235
0.326549348925223
0.31559493276007
0.293356513945259
0.349454671421185
0.281358375708031
0.323889351647275
0.29145598166669
0.327829192228551
0.319481842081549
0.312314815808719
0.272583759023865
0.310670485388741
0.315382526362267
0.283242738681829
0.306145289962731
0.27493678042966
0.272782730366251
0.294482473278699
0.270893333783959
0.287588423023057
0.280273462545124
0.262276768414931
0.313735444184775
0.290089931589878
0.304054853835081
0.273902125255547
0.25936039224493
0.26680275468784
0.255313779857996
0.2760879923236
0.240281374986343
0.294574492749134
0.266462181697676
0.234802368174808
0.30534903015317
0.263858041500761
0.267055761527698
0.265977032692075
0.266054033829401
0.2647801575649
0.272103985338916
0.300059562494187
0.280912006869276
0.288393061966495
0.30584532864725
0.278697546484234
0.295567608618217
0.289796543608328
0.300828908588926
0.291534751469558
0.324084907737599
0.304245129993853
0.318593792548752
0.32355900670499
0.321113360105873
0.33566514988244
0.373932722654748
0.317613023697557
0.40082541646976
0.337970254560261
0.417013572554294
0.37704609209384
0.386556170000892
0.392278370161978
0.389577065231605
0.407940767230723
0.402275200922465
0.396049658260127
0.456562216947024
0.4118375890964
0.445061255545363
0.412868936477808
0.448998771152956
0.420918594061094
0.469940237313372
0.420905388182964
0.510168561907052
0.491710876122565
0.464394229567128
0.471378270548621
0.457103934974811
0.475046761610382
0.471989042507166
0.475704404308378
0.474512796587241
0.465758837191733
0.499910588026961
0.481001369585223
0.497437256549941
0.482344668570911
0.496960494028197
0.488639689357794
0.500795767566501
0.502576609273502
0.504158909539204
0.504064298387692
0.513186973742576
0.478166662072111
0.58771927168943
0.51606023722108
0.533991977267057
0.523970549910841
0.544191489201528
0.531859743876452
0.534667329992173
0.553454073077634
0.549080197672431
0.554842551074467
0.563775292268308
0.551723249541938
0.565044571440936
0.561836352068821
0.609354039786528
0.553489024408773
0.602609977673532
0.558292279829743
0.601745465770745
0.612338007942231
0.588175915215724
0.60501382190794
0.592474964512513
0.606734117448523
0.600028069937751
0.603522288885252
0.604779959277978
0.615533820291749
0.593469268385599
0.60196929751759
0.611790433412901
0.611088067748599
0.615886933059681
0.601833973584565
0.626284815707082
0.604498658531526
0.607106341800721
0.612419607168164
0.618133486023257
0.593545123961941
0.633726369529668
0.611036481317853
0.589915983526328
0.609510056239552
0.609091851048343
0.614662708297682
0.630086305247976
0.598662778315402
0.609040698328562
0.600857260246129
0.615066664836858
0.606101810356032
0.60785989253855
0.634673500907704
0.61247021904932
0.629875098622342
0.616950924384395
0.630658272514966
0.626155998267053
0.634307386643462
0.627241410470716
0.633024629711067
0.641877003678342
0.635986194925839
0.631871067311985
0.638390076214791
0.649518855097828
0.650401335516808
0.649240403595901
0.629122469895763
0.637995313171924
0.630004539763501
0.629867573564899
0.633546126544998
0.628016742892757
0.625219393396917
0.614014535803581
0.612783094625584
0.598265728981608
0.637901715151294
0.598585099179196
0.608009573770199
0.587663837601753
0.587499988088688
0.582858730805565
0.580918132871885
0.572254090120666
0.566503935259638
0.58046055967242
0.564143062983096
0.569965129184997
0.56493634052477
0.561869341140015
0.560970423109555
0.560620794643353
0.560574639180572
0.553332059321324
0.556274783033563
0.549749533613304
0.548263090011191
0.540897137436692
0.556826776589217
0.542027823801822
0.55890265422296
0.548844120210887
0.558334268237299
0.557065699040921
0.548490268460979
0.556769358751353
0.545713559387535
0.555008136628946
0.544993772707008
0.551491603918261
0.548669003830256
0.550264026346404
0.543502544215419
0.548686027406573
0.546777423599215
0.547796000958794
0.542168704094852
0.547300081432226
0.541628230741051
0.551025874086117
0.540234224707154
0.549020920472766
0.540266575306959
0.552777156377558
0.54432223863634
0.541622320552477
0.544293739332086
0.548611612845894
0.55107134769487
0.543273736360086
0.545496740883821
0.554447034876397
0.546027031174219
0.539669805636647
0.543226471924177
0.548438970297196
0.540625282828663
0.542226335714796
0.544953808640911
0.539338706357073
0.532690312564186
0.535618831491429
0.526410726988399
0.52886163749767
0.524098008528803
0.52347556618996
0.515249093286576
0.51449595843623
0.506889023926679
0.505279125207685
0.504206363192605
0.502263060258228
0.49053408281824
0.489510290529022
0.488296719319718
0.4841937915968
0.487327170489684
0.480284338438823
0.478499199965587
0.476382906344393
0.473846646065398
0.473854323015699
0.469068376076468
0.470066101901554
0.466274746156471
0.468974894331555
0.474437331780572
0.471487230372414
0.47188104409259
0.476338031154371
0.471895510660969
0.476030104134142
0.477729616663029
0.474800339032772
0.478997794329687
0.480694046307172
0.481628233993802
0.482842744271661
0.487067573303861
0.486016107755156
0.492502503362089
0.493440196889394
0.495517966285406
0.499219001901854
0.500008347247053
0.502988321895817
0.501171829545824
0.498201883783197
0.502722459354488
0.506504780621555
0.502420046801735
0.499452314069858
0.501572354828568
0.499194059667191
0.494629654964792
0.496747042603098
0.493557698009491
0.495183056166278
0.494281803823993
0.494111303830162
0.491304955394413
0.490470917140311
0.486478011308122
0.489562438532584
0.487074080410682
0.486559421133623
0.478618435044666
0.476792925487568
0.47947880004839
0.477316360125278
0.477204716711681
0.473048583760881
0.472474864477065
0.472926864294721
0.472168953308519
0.466904349450542
0.46774860075094
0.470024267391346
0.465672518625652
0.463467347265069
0.458019684717548
0.459582513173691
0.461640757446644
0.458216343587387
0.459776633372386
0.456408849600116
0.451613150508919
0.450956877100686
0.448846313899087
0.450157961638296
0.443831692493667
0.444690365002605
0.439894027265975
0.436670861914622
0.429787276417343
0.43167037927666
0.428751671583041
0.423787523563327
0.421179733379298
0.421449269871362
0.413728480844338
0.410286418908617
0.406687694298654
0.40892813498583
0.405219072147058
0.40567098922789
0.400265568534582
0.40291079502024
0.398882583212321
0.399274970276336
0.395779095763407
0.396185812012731
0.397326651977035
0.393798851010056
0.386264552945484
0.389074412017494
0.385036773183455
0.379534954660859
0.376924154303783
0.371882810926046
0.364458047006428
0.361884378301854
0.356927881619494
0.353809237833394
0.346952354105409
0.347976834366236
0.347517048567889
0.350303327849654
0.351848535656747
0.352939989503418
0.359113446727876
0.367025934666959
0.37451600970551
0.384649040273808
0.395720379621124
0.406856526272379
0.421378875610035
0.435003895896564
0.453610227059146
0.472606668383969
0.490190544606236
0.504682282194102
0.522377511143351
0.536828916118153
0.553731749079944
0.571085473115819
0.58740472017329
0.606786633153005
0.617033454279826
0.632569986991869
0.646659543308088
0.664408692779975
0.677476665245946
0.695878052055466
0.698518221589473
0.713718797623446
0.72475490748055
0.734969888509681
0.74618171108632
0.749965751149672
0.760432414241977
0.774729238928775
0.780799993457157
0.780474203945059
0.78568446649579
0.786874141804758
0.780323146738993
0.794518975603177
0.795367354927793
0.791842511847265
0.799926679602814
0.793705343426206
0.801267658096012
0.798960845304812
0.798981347201435
0.804939760802098
0.802878277500734
0.804486232538315
0.807010521030095
0.818765271539801
0.815123457066208
0.826986049127509
0.839800711763266
0.84383241037337
0.842232749501055
0.84905532819929
0.865107517822082
0.857260302819168
0.872094052198759
0.885379526269892
0.900749604221731
0.912679478124642
0.925002731868184
0.936375938726053
0.942648325383346
0.963711295026164
0.97979720446818
0.981551343979135
0.986008992321031
0.995202810080708
1.00561454397535
1.00504971675054
1.02037727012465
1.03107302686003
1.03464600515551
1.01302678839111
1.01294559278614
1.01095543787278
1.01415717849318
1.01216719477028
1.00535748170187
0.99352566223619
0.997876007352529
0.996572162680341
1.01003865529389
1.0241226824965
1.04130972210005
1.05609987007327
1.0560315684527
1.07015473652279
1.0931580204553
1.10341133704411
1.1195510718246
1.14750274806357
1.14656705786514
1.14939717739601
1.1831080425602
1.2093599841249
1.21805766051745
1.21654749049525
1.25381034410658
1.26996431620851
1.282990877841
1.30978557438389
1.30407818562291
1.31346913112633
1.37004431260802
1.38577805438419
1.42373194797696
1.43796995054575
1.46452033951367
1.4881642023217
1.51984149352892
1.5379347592844
1.56157455628565
1.57780933015634
1.61223105638863
1.64863491682986
1.61126069184333
1.63266553836343
1.62563925018545
1.67901704179347
1.76304249711072
1.70105035458484
1.65179505778827
1.66400449415261
1.70260054915642
1.70718199451777
1.74716788324363
1.71332997311918
1.69885844625067
1.65713299292014
1.78299276306794
1.7497204957223
1.72927260221022
1.67655080953746
1.74040474445582
1.75464211858212
1.74772204888538
1.73016650862556
1.74277187845567
1.76910603432957
1.81981816750215
1.73353575371146
1.85079257974868
1.82646825791815
1.79428247545728
1.88280745787954
1.82777096798933
1.86841330118691
1.88533356281379
1.9676001107253
2.07538145446047
1.9715810988496
1.99676420212785
1.88033001950621
1.91014109409059
2.13849189451003
2.10415963964097
1.92028909564003
1.89985904252501
2.06708012995846
2.27040312597237
2.00161563040643
2.20736591220709
2.19854183879381
2.07486278003447
2.09577334359444
2.12578268689326
2.28723874690558
2.44402395979699
2.09240207113862
2.22282994847389
2.27884027741854
2.19545218689928
2.16416296305928
2.2299323096864
2.34525310368878
2.38800429579929
2.15911857888924
2.13432422799792
2.21029064024875
2.11457666502854
1.99358475311624
2.0476514298588
1.92083106260687
1.9136705266657
1.87458118015106
1.79528852015213
1.78199104229852
1.71898909985856
1.62750181988789
1.65097033651243
1.58583281423112
1.52404492096447
1.47578026090795
1.45300511484325
1.50190833135105
1.48928305562224
1.41256684040957
1.4150174849931
1.4037729533221
1.3870881344311
1.41003413277426
1.38280557502415
1.34619447391456
1.34124430735256
1.37151972612576
1.31025589655715
1.26729030895827
1.27620306884352
1.22979149844336
1.22463152385541
1.17691503917961
1.14195355258369
1.11545947371908
1.08647574372575
1.04832022263701
1.00596509976975
0.956933393066704
0.931189250691261
0.885937772556099
0.851443485457482
0.82543226952112
0.774782305807765
0.729248012142998
0.706835956600708
0.676628735175348
0.649690155859223
0.625261352398957
0.593482972888103
0.573531946448962
0.556122181586898
0.531347531614919
0.524623550296653
0.504391082853223
0.494444834146775
0.490252002411765
0.482559591108197
0.474214581164452
0.466556610141355
0.461985698782184
0.45971922792367
0.455989369798009
0.454782236754994
0.459064182867114
0.454036465053037
0.452047083538562
0.45907743859533
0.455944021651523
0.458505641670831
0.465651907261813
0.456606134475256
0.459532400226354
0.467538580405055
0.459924418213871
0.459742961346163
0.453170289977692
0.453703498972855
0.448371386309898
0.441678555777803
0.438578601054084
0.436560504035713
0.433705717149626
0.423862192539101
0.422269617087373
0.421764696265324
0.420711011001828
0.424647413116868
0.423524521382456
0.425874817428548
0.431106425662359
0.428113860694284
0.427175232508087
0.431915566473372
0.436253026031529
0.444606024653965
0.445182467614867
0.449662023092329
0.451453842545348
0.454241309715201
0.454410703136607
0.458694031421695
0.462505165983989
0.469428736828565
0.463157082963166
0.456114403155327
0.461769487562249
0.463395446749237
0.467440061431576
0.47468828338568
0.471064230421114
0.475157944720306
0.476668096398328
0.478886267270638
0.48453002408438
0.484380387591058
0.492596499367695
0.499203790051382
0.507761360216965
0.522080529774997
0.526756418656556
0.544409375694784
0.551894804568607
0.576370765103972
0.594169799369872
0.604871666277031
0.615942775890284
0.62484978396821
0.633916610512119
0.644525008786273
0.641350466436533
0.632826232980438
0.628682333361802
0.628100274397527
0.615133086963552
0.604810400043239
0.588929727742213
0.59174626248409
0.580458049297309
0.572921852918601
0.576475948634304
0.568910470127
0.559159548429784
0.568341405897843
0.57487545389391
0.556788229677652
0.561531462845787
0.579029789179699
0.559971821175429
0.574367934281055
0.562102634955186
0.558407727154115
0.564888262202237
0.554007441433615
0.538341297660529
0.536786805369618
0.533304576556704
0.531747353407281
0.519691929495537
0.511707486643929
0.511251283306684
0.518937288292293
0.50715223926579
0.503103999072888
0.48704220528358
0.492223238022062
0.489256606478537
0.493975243366756
0.494243301382348
0.485957087138785
0.490559965673756
0.474665155479951
0.466175077845365
0.474652942952798
0.464378898692802
0.467290194805171
0.468194440701702
0.460316049680106
0.469182819313351
0.478492279111172
0.449587606539907
0.449416936898648
0.454054038564378
0.457368364911424
0.447367548844463
0.448855832341638
0.445655221312645
0.441101643344656
0.435213735891332
0.422221455457624
0.431498463532862
0.437750362480715
0.425752258938465
0.429679707277369
0.428755781525608
0.437685072605707
0.415391127900559
0.422956627428347
0.431341666886381
0.427989324204371
0.42121530463218
0.418860704261245
0.412496862401792
0.42882405716132
0.433496472140205
0.443629168451556
0.427359352338686
0.443664665886637
0.442602046227494
0.445886489793041
0.45232590911949
0.446424321630858
0.438574258532216
0.442971611798876
0.452534647928158
0.461809822187825
0.43949491753418
0.443642043812663
0.465115909522747
0.468133158107016
0.47073732872429
0.469441074480402
0.47625357961853
0.478846958098962
0.486819117079418
0.510165666018596
0.496326111617387
0.509672605162159
0.52989919690189
0.529329156082719
0.528906966545003
0.534155375189486
0.560228088098243
0.574592037702944
0.577060779563761
0.59606717557754
0.61405315529891
0.624151981411233
0.672083287560241
0.678279007245738
0.661385318345413
0.703360518903311
0.750629256461167
0.717155859511376
0.718280767316277
0.763747522534644
0.733127555483072
0.775157578419076
0.787097703431619
0.760659354746783
0.751664483500498
0.730524315954413
0.754461442928983
0.762096150941554
0.7307060326363
0.754436494157225
0.738045822845212
0.704148680936078
0.756382112483731
0.771157113229635
0.778109859645482
0.763000611663334
0.721630994095602
0.755150694600578
0.726811897772872
0.691829467087034
0.72744618512488
0.699774982731601
0.675859810513778
0.727783339151146
0.664674853120057
0.672002952733463
0.675160507258011
0.675356653415438
0.701537902124797
0.687891321631227
0.652907403584769
0.658285023593773
0.680433721488542
0.68241259085592
0.639351817829993
0.657560108681487
0.675591144678093
0.637232626462022
0.651913001779917
0.655473650773959
0.681884716894146
0.65661523175497
0.667325725474193
0.69251271313235
0.651836575353916
0.659955665313195
0.691214404761456
0.6878704109539
0.651477799196491
0.668536036877912
0.657686860264938
0.686900720252238
0.666463442392569
0.683100293543964
0.73147023179855
0.725906910937944
0.708024171298615
0.685961732574897
0.644899835111425
0.690799161521423
0.697005411933099
0.752992531186605
0.724216579296526
0.701326013189061
0.781949852788888
0.735920190808711
0.766756193834634
0.784852155458563
0.784074307646885
0.755458292733612
0.746277107842401
0.727296276139447
0.727956133407701
0.734718001423426
0.76709463284385
0.904804570242001
0.914289927385434
0.859912367866969
0.858873361041011
0.956991975703482
0.91491132367083
0.860670103249368
0.861423103309487
0.948766215843987
0.881828593545922
0.836723919499608
0.962065464161567
0.816794325184453
0.944451263961596
0.938939080714349
0.951000626684475
0.911624508456311
0.859516271044768
0.96784723106757
1.08143715151172
1.08373672219323
1.05460233896066
0.940754832536055
0.77000846079586
0.844903337571821
0.946815755896747
0.753317130311172
0.897071801465652
1.05277450125296
0.980847460396165
0.960507930928498
1.24550273251734
1.12504703193432
0.84934349692685
0.9819431690749
0.898908364180337
0.740418617534213
0.825308472833446
0.956774724337313
1.12776528059759
0.958951412749682
0.848604817893632
1.1481500037047
1.19039884150354
0.95494442435149
0.928701609618189
0.725096676621149
0.66310269101567
0.904328447774663
1.39514193792518
0.998835053905521
0.820451406938657
1.03982745924396
1.11139890718859
0.916648823318162
0.911883013729545
1.0804399287559
0.732497437980176
0.802172526051445
5
1.0760506923021
1.16413572764306
1.65929230072021
1.16454576713539
0.878733080313179
0.768265122186803
0.822617918602576
0.964685617561447
0.885502537965455
1.59307925194509
