3596
4000.36533379555
650.420452594757
1
2
2
0.0637703279062777
0.0640799337044817
0.0738251986671542
0.0626883145372606
0.075572445300099
0.0626774274287996
0.0804365504705203
0.0753891638508139
0.0716018390779512
0.0612706804156691
0.0772783595045928
0.0686651147735192
0.0677012991118171
0.0602463495917631
0.0726143491709836
0.064721322817486
0.0681115510299318
0.0555267708611272
0.0691563851764039
0.0586339429399398
0.0735153529968862
0.0562917096039781
0.0655654405861923
0.0576423848118718
0.0753080216236556
0.0672593268864709
0.0667216404592066
0.0537899185443553
0.0728594136357656
0.0695830193249947
0.0715700339838465
0.0553313497240945
0.075705801649931
0.0578241963047377
0.0625909816827612
0.0663499889742014
0.0755561475494381
0.0638588289365316
0.0666650626491965
0.0589010275093242
0.07730707413208
0.0598596937096285
0.0727145533591726
0.0744856197939998
0.0803404285510617
0.0694378063897686
0.0743921203611355
0.0623454567558908
0.0688484290209956
0.0636296166131476
0.0737163526731477
0.0557341819043292
0.0764889432852512
0.0681393010243168
0.0698612283464339
0.0655993356273573
0.0704187061701712
0.0629642369954429
0.0670257662274753
0.0525087854789709
0.068304002205007
0.0721035051621272
0.0657800708406699
0.0617857513860108
0.0720352635553104
0.0578054538167873
0.0677007825844215
0.0551941054130147
0.063222322882499
0.0647823245197536
0.0683604302896933
0.0611331244957893
0.0849518651785329
0.0634101504642214
0.0741657985279135
0.0601674907142012
0.0779965970912501
0.0518897930945926
0.0575505914335225
0.0646554215642949
0.0756437813241951
0.0523717095630891
0.0695300705995774
0.0523156212748723
0.0697544033911872
0.0717471754012879
0.0653819690099718
0.0468159457051534
0.0813359505020029
0.0623251160144803
0.0741017194233561
0.0520889752364908
0.0654534253587914
0.0554705653292356
0.0664720242526111
0.0496193808136114
0.0678322213117516
0.0560474467510865
0.0614460292429437
0.0530120905800897
0.0656969494238117
0.0514144528484077
0.0940952431104276
0.0435007109797686
0.0845034206173702
0.0709310887265877
0.035124163598252
0.0912965413021162
0.0707535703318414
0.0582686563955376
0.0746805527614267
0.052386765997375
0.0663945359052442
0.0574665097687072
0.0538413200843735
0.0485077812620739
0.0935444425962079
0.0560735479038115
0.0705958569840841
0.0487871785912111
0.0550493832619385
0.0544278315707446
0.0962807772661645
0.0515274791334728
0.0675189713235057
0.0558664698978837
0.057393791212302
0.068683048314476
0.0957941685533486
0.0528294704110303
0.058819319653054
0.0454841305807275
0.0592895444334552
0.0374331986955673
0.0867563839651803
0.0590706953411029
0.0587158251005997
0.0321896867909985
0.0651199717914915
0.0867418457261874
0.0748801249331182
0.0533340660093986
0.0511798812533745
0.0363101414886092
0.0934872560673972
0.0547558089503036
0.0580960636314951
0.0633534787840934
0.0775727243858476
0.0513978340410928
0.0606358078485311
0.0390446104600473
0.0706538082574749
0.0582522276894062
0.0307075948301017
0.0438611632897738
0.12398320904888
0.0401890234668264
0.103814338321378
0.0543763650248413
0.0631204983318713
0.0682781294528577
0.0641137537465321
0.0487496888080092
0.0595940794424244
0.0425098881650421
0.0621670451623958
0.0684716234640207
0.06156653800117
0.0483716286524316
0.0835901205892688
0.0532551649475405
0.0317011728093842
0.0852763503685344
0.0917398409082418
0.0230951156272714
0.0810091809081868
0.064229745251349
0.0531697279204216
0.0506929125098338
0.078239729904485
0.047350734090055
0.0660419394001421
0.0482207261390068
0.0557276828962729
0.0520590493668841
0.0628753971146689
0.0456861114012924
0.0559499229195498
0.032325473413195
0.05447651194068
0.0819969854313221
0.0866612853188065
0.0615745077533618
0.0630741302726951
0.0192725602065283
0.071682897598471
0.0960498927921952
0.0614118390354467
0.0494021891868602
0.0621031796469875
0.0453021753044499
0.0556015837548557
0.0521318464103602
0.0552281430022017
0.0242559757081309
0.0819457510328117
0.0735611721383122
0.0600587235071587
0.0567090642456448
0.0488705960542132
0.0435136797130688
0.0828510514267433
0.0803466844386766
0.0643268416663935
0.0518981680246973
0.05231488700191
0.0558580073784141
0.0744746164660745
0.0575499619166756
0.0641503182730908
0.0486093235335516
0.0601003909244842
0.056308224357564
0.0604506879847705
0.0478854704304288
0.0530760037781364
0.0533068479699053
0.0648229261524495
0.0479935237167217
0.0687284279661323
0.053238615503308
0.0546845539463057
0.0467401649596648
0.0562528133521824
0.0504612619165103
0.0824898829663618
0.0538070402236731
0.0695546059306002
0.0576475616979853
0.0645166861430341
0.0470619581200028
0.0559877730683253
0.0550451234724787
0.0601930215732719
0.0455076134617074
0.0788865119210605
0.064945634867882
0.0575287306728257
0.0494781262385989
0.0615827693373063
0.0767748683157085
0.0610419398921158
0.0539982261282547
0.0594006020800924
0.0496111349969046
0.0442241937262587
0.0755216016705497
0.0673197887154101
0.0436213705115749
0.0594654556991709
0.0596489378197616
0.0600499812930383
0.0375268289919215
0.035238232503497
0.0962074497530159
0.0715574738527283
0.0294846705128133
0.108915623538401
0.0736844228842495
0.062928643730657
0.0587352159839458
0.0238671466802095
0.118051588794004
0.115373835809101
0.057021619845687
0.0570589189454812
0.0649180137422483
0.0702817382257367
0.0471614216773253
0.0651631563473377
0.0559947963331902
0.0890011477405467
0.0808480533612493
0.0869156745967014
0.0485084992173098
0.0716557066446339
0.0894316842048749
0.0682582885645795
0.0653465281448731
0.0606012817530386
0.053493201642695
0.0677820032709494
0.0694786803959554
0.0695630652373059
0.0646986454861049
0.0621777972110311
0.081981864420144
0.0809833744036254
0.0496026904539601
0.0730165603019544
0.0662468081734878
0.0684231459761717
0.0580814808618428
0.0699435501618847
0.0653348590765193
0.0655491948974525
0.0449350241528563
0.100887435064517
0.06473012041208
0.0671121327427886
0.0858828373713609
0.0854072997612433
0.0633360549806876
0.0755877121339319
0.0629750287498852
0.0767605433074289
0.0529239815990642
0.0658765276447339
0.0762050056703632
0.0846855756417004
0.0653050608261925
0.0779109251550994
0.0583933111175995
0.0785516662114473
0.0659320349858522
0.0759906204244894
0.0649282811952594
0.0787539613577455
0.0573023779070456
0.0859155912718173
0.0910674778320205
0.0690928781837062
0.0803207137791862
0.119024251597876
0.0732088694351215
0.0891674713221819
0.0709247106575496
0.0802600432953007
0.073669041454003
0.0840035099099072
0.0781298995124101
0.0825345850890299
0.0827297214913821
0.0938625425437341
0.0792944538580136
0.0725140550884842
0.0946245792394721
0.139734195892039
0.0997552076300977
0.089879948662486
0.0681951909248927
0.10039991314728
0.111435915363959
0.11287742925604
0.11213567121746
0.10459354347409
0.0922957025949676
0.110331490554321
0.0940428728330809
0.110268419262139
0.0995032050739658
0.113518464222518
0.0989711589438009
0.11932241111046
0.106366612860992
0.1066656931805
0.100095228538866
0.148091632045429
0.117972369639972
0.122682972266102
0.105984667285165
0.113860150844267
0.111579163418068
0.139420791494067
0.118368416316465
0.157120630502141
0.125998439850977
0.158043460745866
0.132692545811596
0.129129364345615
0.12799389878471
0.143632677022655
0.13837092379024
0.147534644677122
0.146683888691844
0.150518972520432
0.13714014647784
0.155908408072712
0.152297360017526
0.155704925378213
0.147144175263069
0.175964042564415
0.169067176874499
0.165650302663251
0.148075282284933
0.178584575999543
0.203469919578967
0.215990655594169
0.165052176250981
0.180414786479415
0.177656892782052
0.18944883504423
0.182727174826093
0.193384667075169
0.181990406758348
0.205678805317777
0.201893276197879
0.216871839146704
0.197662014159404
0.220591804097821
0.206918027745153
0.219686265466162
0.210308025171898
0.222912534474967
0.241178372291723
0.233066122672334
0.205004707838444
0.253987436225518
0.233795821923357
0.248313323340453
0.244520424180271
0.244311057659776
0.236935777596587
0.266039283010686
0.247887472502986
0.261477964103127
0.244886645505842
0.265655595666291
0.254061961529612
0.270379869496454
0.254008461028853
0.274647990908258
0.273988689320478
0.285381711739606
0.264021308772381
0.301534278848681
0.282781877441611
0.299818393612744
0.276291716341077
0.310732872742767
0.283015219425724
0.332526598947062
0.306832019691458
0.327959364913937
0.310643046927057
0.321807983653937
0.295543937056074
0.334515746489965
0.321702261947864
0.337184509154693
0.317807197872164
0.347828091547394
0.346108334732629
0.359689496496414
0.341031877081859
0.374517048633394
0.341263345590562
0.356325583627666
0.343619841577725
0.381509299093071
0.36622064371466
0.412819027994446
0.398121167378942
0.447683167824736
0.417115085117661
0.401751922432318
0.386607410500026
0.438207274708624
0.394289863236963
0.435371524745215
0.38829618978514
0.429453744505083
0.417036279151284
0.440749494469084
0.409712845115369
0.4260615399659
0.424530056209288
0.46732757931923
0.445319916515313
0.484729098027309
0.443883390287517
0.48981330657539
0.469862127299641
0.502001822316261
0.479970265211377
0.506326087016897
0.474615467863696
0.523340500698945
0.495372023401315
0.532666916468802
0.49916421153837
0.553258763474644
0.514750864143043
0.549601467462574
0.499742484179404
0.531072651921954
0.541918179286484
0.581832576234473
0.520244721997322
0.54256728645745
0.518298003813948
0.582888504311383
0.565648197388105
0.577593246603416
0.565007228267366
0.61543342392268
0.575307900115155
0.620097216868468
0.592544502506173
0.604808865601271
0.595211305517275
0.637510019698495
0.598512871312921
0.629746798376615
0.613921530678995
0.654910790519883
0.6236710267205
0.656398693629734
0.605664413849218
0.677380431911696
0.625910691953871
0.690061030108182
0.677151834989078
0.697222388483603
0.665550222179515
0.674222100901634
0.664748738893717
0.669942419677991
0.678932436097262
0.692785356247649
0.665520235048667
0.727769942091678
0.721457265735353
0.778725943586207
0.72480717392647
0.746953644418885
0.750780565024308
0.757067950390506
0.744954846788743
0.792199905135012
0.728542516049057
0.792377582253926
0.770899410520906
0.798212353399786
0.755632123403493
0.856567164121815
0.775359723847896
0.84568280681306
0.772599036285735
0.84601020187735
0.820804058140611
0.821779989276796
0.79478016137035
0.864018362903823
0.822548006122299
0.828889076803861
0.86205975478128
0.882951623017265
0.861136449684405
0.905046779622689
0.837604220758568
0.941853846393474
0.865153203517823
0.955645505354156
0.850375532567497
0.90280164848004
0.812095059659029
0.878814318348006
0.891431231517118
0.929224642187247
0.86155413244007
1.02057502008719
0.924576031473215
1.06754340485489
0.884624099280583
1.03533591461093
0.953371640739748
0.975802081381929
0.999420204596217
0.997861168738141
0.932958328882051
0.972655814517063
0.958303212861383
1.01568306071607
0.956176386244649
1.02736846630739
1.02361292648936
1.02977469290495
1.05174998195109
1.02509901984271
0.971967057780206
1.10626640172293
0.982070907075193
1.0659061145684
1.01424574077853
1.08258143932123
0.991395711770845
1.09512100523398
1.04768152034799
1.08324917851941
1.00537071793517
1.15569039714967
1.05832955481761
1.12686606873813
1.04354746727219
1.13141899211509
1.15292877677653
1.16448456474593
1.13887501991783
1.07832457404257
1.04743699028922
1.28581232132133
1.07994366564268
1.17439033807015
1.11565234699253
1.24533902688213
1.20671732665246
1.22774911128005
1.12621134204643
1.25261000709337
1.12101573334873
1.26897475723404
1.10763385784219
1.15992456902175
1.09301604217841
1.23574717059418
1.12127472203265
1.16967321385602
1.17909759778329
1.20828603120225
1.12656099919261
1.41010494089353
1.11102175401075
1.25814766549716
1.18280193489895
1.30691034023989
1.17343242517805
1.19423853788478
1.21281306449669
1.20122551110971
1.19736170243831
1.25639673467931
1.15865485656887
1.35565094797986
1.33961348634236
1.35958735036798
1.22327711474843
1.26722386935959
1.27862407259641
1.44360307304284
1.16189574498888
1.41511246284118
1.27274156972898
1.36802521912509
1.32598619367016
1.25822531917827
1.23672863387156
1.45289800095746
1.30924031579203
1.39752570145471
1.23297785364108
1.2741338398885
1.31992080707157
1.45004264616935
1.28154487167547
1.46190386673892
1.26409743837054
1.39067064387007
1.26312939331196
1.31105211783986
1.38676149942741
1.35331303128948
1.45926531649728
1.37564128310586
1.30314881108605
1.48074163770991
1.28795801667383
1.35354409268995
1.47495546685035
1.47090220873734
1.33143707077418
1.29591301637851
1.26475974944208
1.41625993591069
1.40932735480123
1.52972201925133
1.42824033088985
1.39552417660542
1.25358769727084
1.43749278364749
1.36647807695376
1.54476383076428
1.20548551741306
1.38019570996585
1.21421080409939
1.54819055895729
1.39825910116223
1.44599207087404
1.34704785395996
1.46986133822008
1.3184038433998
1.52081856891226
1.39297810553203
1.41047890761301
1.3668896074435
1.45775057824943
1.33561540999855
1.86874617745217
1.41048941186351
1.57046626961602
1.39711114299843
1.52841799363301
1.35734211869984
1.51102962763838
1.48463521456989
1.53035230459305
1.44442732145031
1.34525015354485
1.49273675059535
1.38806960742677
1.43608066881323
1.46296370374923
1.34295990791023
1.53116023584973
1.36427873439154
1.5731571323671
1.40123605872046
1.5726647648071
1.48524805489306
1.48525557545337
1.42823834977535
1.37520796556423
1.32771918933985
1.54838456457354
1.38861812168035
1.53112660262526
1.50246783150606
1.35950659391374
1.39209806232958
1.32086147466097
1.4459638439713
1.49656065540527
1.25866020343059
1.59697509420497
1.36645477617685
1.57827666208023
1.29821324933844
1.76362676929204
1.53246771142468
1.50227033438546
1.48723615724117
1.74876741301447
1.39581100762362
1.50367538755367
1.33857773469374
1.44796953670372
1.42981555717555
1.58646040866997
1.36924783991685
1.54666298520708
1.43414907949731
1.37290247104028
1.43804710052538
1.60251724678977
1.4002041452345
1.43899057555206
1.35536783086702
1.52353660286262
1.39382964032562
1.57766665319089
1.35598526737738
1.37969523017152
1.3516194130522
1.45717037913787
1.40774511275553
1.56690025567984
1.62125053863091
1.53353684616204
1.43695177921022
1.33961781666545
1.34430027403483
1.51837710877478
1.45034924097366
1.44738928124031
1.46397725528933
1.48605376121411
1.33884685573857
1.5383990365198
1.35237676523177
1.50730914036752
1.36887026048419
1.50335691619827
1.35624494569938
1.47998878513125
1.4097658589417
1.54037538390927
1.36722851239404
1.52575070264829
1.32906368683024
1.64313783703423
1.28363587386823
1.40178528811599
1.3672803982862
1.42764400162246
1.29970995013181
1.37597509501938
1.36507552428216
1.52890229338677
1.27480678553554
1.4121596411442
1.29768575136019
1.388388759161
1.34074175949165
1.34088294527517
1.39517620791
1.43165747829035
1.32963597997342
1.374018230014
1.33054803305368
1.43059525143062
1.26851979999674
1.39440716558963
1.35517111460851
1.41015484691877
1.27556773184418
1.30222027959477
1.33286199540719
1.34676639984847
1.21833533278635
1.41923773671834
1.23443446985854
1.29747668373021
1.29864015692411
1.28365640463651
1.28587210394541
1.33526242126936
1.28167329841872
1.33886693195206
1.29701634285525
1.29518402952786
1.25464953788754
1.28282469927117
1.31209617737601
1.18981177037444
1.29804043605301
1.31528996033033
1.21144351401855
1.40453670221675
1.2374200784037
1.32247604489443
1.19107518083824
1.22605401783301
1.19126135995533
1.24546627980036
1.25361881099361
1.20141581909741
1.20575347891402
1.29058041600326
1.28407656084584
1.18362965661273
1.23349039051297
1.2186723572891
1.18212763806513
1.18858709785399
1.19590817015181
1.25336025538625
1.16648013284469
1.17969027684623
1.14755414877601
1.23528910101627
1.11479084928475
1.26593620773543
1.12826959854532
1.17967040701039
1.14633624794354
1.20593410601835
1.09817685509905
1.21262391637832
1.20697631495705
1.17278853025737
1.06736343086692
1.11753700186025
1.07388774486957
1.15141758560254
1.12556652555185
1.14495142134564
1.0848166993205
1.06436013470224
1.04198323980946
1.07154919725209
1.10631041197909
1.06877210108259
1.08519979476129
1.10211847966414
1.07840198359082
1.09968040567623
1.07743524851868
1.08920215250188
1.05567634354413
1.08708463546371
1.020530555472
1.05967970427289
1.03002850267792
1.0889038848808
1.03144802251496
1.02976314614297
1.0245654802242
1.02538578623433
0.96238863897158
0.983878701367108
1.00850560520136
1.02515075896987
0.966811006219806
1.0271345071385
0.966853594289077
1.00726016986978
0.979031472011621
0.968896217622263
0.938567018318999
0.985855611545269
0.930584703577041
0.99923689971646
0.948584594919455
0.944214837764024
0.912932122610357
0.96275031550884
0.910493597687759
0.916232656440208
0.894454425116357
0.929675519971587
0.928285058252107
0.897057319782805
0.897382738559042
0.916768585829408
0.874542615284904
0.8801313164894
0.881701563783927
0.900241410132989
0.86701715967094
0.891910791274776
0.847750848973217
0.87762223928424
0.839295035897702
0.864123016675883
0.83321704541535
0.852096531773324
0.814732325879447
0.84565276362876
0.846238771607452
0.855973469303438
0.806555582753311
0.833291850802313
0.794757280615945
0.816394274684641
0.81128021260887
0.797240707656305
0.766860697709567
0.820762297003256
0.79617261706176
0.794210717935613
0.803272798034766
0.796929632527274
0.77433344470508
0.786534353520449
0.751615774743598
0.787922454056569
0.733970911381765
0.771878439220379
0.738959479676897
0.737890941271382
0.728267340609528
0.772437018587417
0.735923317936696
0.753638070574095
0.717903827894295
0.737822796094098
0.717620887298872
0.72850109951844
0.721326646284909
0.720729648158781
0.714973652306144
0.720154628424898
0.724771191903885
0.70543727437156
0.697314099570546
0.701488096915599
0.686908572086874
0.710170051692215
0.649848887631434
0.694828971323522
0.67042777106925
0.692679654504055
0.666798753667546
0.684658787446477
0.646741732297028
0.675790094986366
0.668544030761108
0.654084046199653
0.655633895701153
0.641043397374281
0.636187378205027
0.640325463235397
0.637125712490771
0.655431316889328
0.631171620613622
0.650253771608005
0.620764089661571
0.628407162843297
0.623569725527705
0.618211816563617
0.614157673060644
0.62458403308996
0.604606389414011
0.612132629410251
0.593926237140048
0.608263387273242
0.59945845012209
0.597543968526893
0.588553764488373
0.609390078741809
0.583602113388439
0.595247188368789
0.583222172548071
0.581667314637619
0.575934810866876
0.583899203137393
0.567585571453678
0.573215257037918
0.554139111552706
0.577534925728474
0.559809188518899
0.575277947770167
0.553844873250401
0.558054013664206
0.547819309576427
0.556099972473713
0.540055583682575
0.558010176546295
0.529004756227375
0.551037856401407
0.530286735929748
0.53142324687431
0.522239684762599
0.539003001403716
0.522623244495614
0.535937403986486
0.511024885366053
0.528343952684818
0.51332859591747
0.516792252791041
0.49653944238988
0.512867681917361
0.502441928747964
0.519422627209143
0.486822915737352
0.499632768900349
0.482940785075437
0.507800894108557
0.484711527580221
0.498158099695259
0.489358303748025
0.502740314738824
0.487513362738559
0.502653024442695
0.474192914918017
0.487624076282842
0.470666200310031
0.49775838977177
0.476312650770388
0.488579725375019
0.474860875426842
0.487955305328247
0.470215091367045
0.477166326223188
0.464028638602857
0.48056227380332
0.478533591140647
0.478264976523692
0.466921299862612
0.473559051248709
0.45780091005128
0.475466042706088
0.464456233424063
0.479436436341746
0.469687479449809
0.480850772103401
0.457779929634527
0.475186575942764
0.46811945192535
0.485289543781794
0.469272782923774
0.47867862325554
0.479104794012394
0.487575436163048
0.475287634094355
0.492434591856852
0.48470767972946
0.492158781718162
0.49491556819568
0.486728723990565
0.484799435609326
0.505536141651892
0.492783159809413
0.506685231054846
0.497292813335043
0.520164932190246
0.50430773218794
0.522243321160898
0.500658494087593
0.515185085593964
0.50226711140069
0.519792948775907
0.51894418252783
0.529118830661076
0.514466506090105
0.543355796305393
0.532640366949277
0.529258896468297
0.526444622758935
0.533044836883938
0.532664399394458
0.546736321224208
0.533220240391248
0.550928743773947
0.548127896054279
0.552384851653072
0.546684829431356
0.557263478762102
0.552991485704878
0.572639931669837
0.55221639348768
0.58135416316565
0.566140506803723
0.593871812788291
0.56698804587397
0.59241372631714
0.592239633126845
0.601343330115546
0.598045202727773
0.60688455757454
0.593960892953696
0.626499767953664
0.606504262971653
0.61647670269276
0.620867266677136
0.639460256354
0.607317494534056
0.636475568858936
0.617173854931793
0.629184532533739
0.631089767272311
0.615448721374053
0.626323610624553
0.629813721968561
0.617247336509097
0.626692462755361
0.600685020315751
0.609747909300205
0.607970023071763
0.620074146678811
0.611846440991403
0.630268352551228
0.621041470070987
0.628449239842397
0.608988362422689
0.609846999645923
0.608007135159735
0.625834422005412
0.608487856750933
0.630816931993263
0.611803549962216
0.617330893683101
0.620745654432723
0.628773291514729
0.613142481123151
0.616172312597499
0.618658377432697
0.631248147070381
0.603754138107633
0.620277509147124
0.614539560736872
0.63034240206449
0.615785924336403
0.61294372509944
0.616045883242822
0.628708644762389
0.615532512670119
0.627501909832606
0.627177275851519
0.629300889944825
0.625264732903836
0.624763311814287
0.616633137935341
0.63274133237153
0.621375667979674
0.624243381705755
0.622602197906629
0.628978864738648
0.611194128715777
0.6333289546377
0.620084953001019
0.620600886568884
0.601324539797007
0.616813468158185
0.610456056525657
0.616015333904228
0.606499596229947
0.603850471839518
0.590314466214479
0.601775282877249
0.582125875708324
0.596525374750354
0.589478604305192
0.59045397471594
0.588705236415534
0.58384412649999
0.573764007800879
0.583356551683214
0.570700229570077
0.569407326085344
0.556515191013748
0.571138716968632
0.551120194634422
0.554628038495012
0.534726665124936
0.55339259721105
0.540070948016051
0.547351944877627
0.530564245277919
0.537902276722181
0.518708824084791
0.526129896540132
0.516716602088249
0.530780796191569
0.499314503289454
0.509074989338869
0.506920212634596
0.500560059823154
0.492918181256195
0.494998681666779
0.492826309637492
0.50195613469529
0.483299010933033
0.486115626599179
0.476874265952792
0.480392376187852
0.473651992794729
0.477151953211603
0.460019422363001
0.465139730858725
0.460424579991303
0.460191175102565
0.458086546920747
0.46115135770262
0.456192912497246
0.452244608446554
0.457624838633954
0.459679969458508
0.44166906768885
0.459224293158823
0.446290433671868
0.444971567687975
0.430601330554123
0.451271446095901
0.430281395046352
0.439737318556319
0.425458119850727
0.427847530607321
0.426530285689755
0.434609387558315
0.423269784030405
0.427023395890911
0.415507253336293
0.423409327274281
0.417093196560418
0.421562298223082
0.419649340909011
0.411331809430472
0.414226876679687
0.423918777886261
0.406238567413723
0.410356542342535
0.400493940260545
0.411315903684094
0.397188679985419
0.406245300710204
0.398201013260845
0.395164453845505
0.395579818584241
0.397434886642051
0.393189781352464
0.399984407839767
0.385827989776914
0.395434258609286
0.386127046561127
0.398157554907438
0.388534859793103
0.389223063084306
0.381638885277288
0.382613360353074
0.374693356308991
0.380551696336527
0.377639336162968
0.38379149738093
0.378988942530643
0.383188960126097
0.374920010683915
0.381024099737006
0.372591186351218
0.378044064159274
0.378330427100433
0.375845420211382
0.367520192957077
0.378760323867366
0.365363832644811
0.369143600423253
0.370032381365621
0.373268902291906
0.359849652969695
0.367120892093661
0.364499587028799
0.373965014631543
0.364547379697227
0.364462099393706
0.355658733880568
0.368483875360842
0.356860050322817
0.355783801968409
0.342953104247903
0.355020156361966
0.351246986214312
0.357859732136335
0.355449408317942
0.361415252031645
0.351185620837217
0.354829034491165
0.348000942319135
0.356121071419126
0.352800912572038
0.360403282376463
0.351079167793117
0.351000838818449
0.343241320731489
0.346038554559644
0.344201654868989
0.351816977550664
0.341439804816404
0.351489253676476
0.340709254089327
0.341489809172465
0.338506871044623
0.354420030918908
0.340831970519572
0.347606458399667
0.341664291834423
0.33746248444671
0.338928717416071
0.347361057048076
0.340967022275866
0.342616777189535
0.330415679367611
0.33875608122621
0.335113470909731
0.33771004071938
0.340776300117643
0.342548262002332
0.331391528818724
0.345013708730482
0.337240712031508
0.33872029771783
0.332503458345817
0.335323776106257
0.329799533953332
0.337078949181293
0.327699890115414
0.334353060500033
0.32611984728981
0.330988853894454
0.332104801761701
0.329187487474681
0.326020935606946
0.329641468882573
0.325812687599707
0.33626224598404
0.323952989170075
0.325472349843801
0.322133755140773
0.328360933813404
0.320303601204939
0.326640621340545
0.32013389858137
0.323655307156239
0.31958063663543
0.326364040124361
0.31793759394016
0.317294983161208
0.315074507642125
0.316106675184523
0.316523545275104
0.317785863045544
0.310643374268351
0.315504563182058
0.311778957655666
0.316830596304934
0.307435625733439
0.320650047181131
0.310457603854073
0.31077628039404
0.31479601263745
0.310475296270005
0.302580009311335
0.306976822663414
0.306629131443457
0.309182411226007
0.29974203904196
0.310149984827586
0.305957212291368
0.305668047996434
0.297667876336763
0.301269533468457
0.297896393310723
0.302166359744937
0.300557754410218
0.297700590134152
0.298786804075632
0.301860382151327
0.289794954212745
0.296368417334498
0.295262958115944
0.292060072142917
0.293093428374411
0.301869272453853
0.282695292823183
0.291679305644958
0.285501167595185
0.289500855644456
0.293000299278663
0.287236558744381
0.287313238524325
0.290269247426006
0.283712585772565
0.281960592828403
0.276223253240697
0.283500386038526
0.277443368971437
0.280602540622292
0.276529537049523
0.28359305366551
0.274457215421428
0.276267495587494
0.279260757015815
0.281496256115354
0.274657314282882
0.272237662046853
0.266726848426265
0.273618927652606
0.27042980354555
0.265445949078469
0.266834150414778
0.266720043579615
0.262838177017693
0.268928253488357
0.261509278267316
0.267054074163201
0.259719705298817
0.259176946407429
0.260010209178395
0.259785288695418
0.248280091473124
0.253816934170644
0.254337832845155
0.258753025999488
0.252739871531331
0.254887611685532
0.250473917393227
0.251180587822621
0.245195004607908
0.254061416220309
0.24617476988061
0.249826752290022
0.24553014458071
0.250539614001694
0.247271635435777
0.248841410167711
0.242800248311722
0.243538955214641
0.242441005055345
0.241340382242955
0.241646810660953
0.248051826580646
0.238409647492307
0.239882953198072
0.238537838594615
0.242516036645826
0.237079354005741
0.239725079284405
0.234972034983873
0.239030658748401
0.23496451021947
0.236091799771725
0.229619946423346
0.235931693996007
0.234421100265483
0.234948494271158
0.229195000360268
0.232205020486926
0.229415961755061
0.23406147701876
0.230607765623615
0.229006595936904
0.227055174754787
0.228128280634797
0.224116075976416
0.227063460405472
0.221650331743391
0.224892121907824
0.221550631549997
0.224517069069789
0.21956434392034
0.220380601226424
0.222013892166876
0.223734582033829
0.220698829166539
0.221480060594536
0.218447775079213
0.219337531030097
0.216268805716853
0.221911231510168
0.21596940839472
0.215746510876335
0.216148426651935
0.218517480951482
0.214202303587152
0.21766675774502
0.217549307622269
0.216149417219173
0.213480416557359
0.210587552086656
0.212436899050344
0.215472617918281
0.208950525189552
0.211695576264037
0.211856495336346
0.21309812535967
0.209433890277852
0.212973261908506
0.209619577733496
0.209311167387422
0.204021649089013
0.210132805008248
0.20942071765663
0.21014454225367
0.209978465581505
0.209122449758018
0.204567823100238
0.210197803446984
0.203861258166493
0.204129071725226
0.201551458201671
0.207898092689221
0.206155441782685
0.204543295594288
0.203711506062567
0.205671216919008
0.202042039263886
0.205972017930559
0.203241980950937
0.202812938038034
0.196787230710942
0.201959727466357
0.200125253075951
0.200187459861102
0.200811442082957
0.202823771834848
0.196260030715484
0.201496161464901
0.195517600573133
0.202089241395008
0.201016051617851
0.195161707469729
0.192641171192344
0.199389876739904
0.196696044136712
0.194141686523095
0.192106616252918
0.191509857967096
0.190261984442632
0.192914359748024
0.189470922704592
0.193589886757766
0.190246593920923
0.189717365769614
0.189516453135576
0.193107726723231
0.188313283099195
0.188822214104938
0.189372278515536
0.192044021680741
0.18696506219985
0.191052758707628
0.188091463718175
0.190815414983757
0.189029735067287
0.188792051646765
0.187683149665034
0.185802113754279
0.184067538780483
0.189542565116132
0.184764246655055
0.185960004808911
0.182211791419138
0.186385117212072
0.183080831683876
0.184203267092806
0.183664097560699
0.184869601022999
0.180471094497466
0.185790455127255
0.181229361522678
0.181624133668646
0.180121451079665
0.180691480249046
0.175912627802808
0.181779371638795
0.179755317504996
0.178083953287979
0.175823198362298
0.176902473949649
0.175328224816385
0.176235973919856
0.169883133229658
0.172398638512308
0.172111806602261
0.173518701457097
0.169968312112906
0.170769733089877
0.170392733973556
0.171334128551784
0.168940521328085
0.169244916747901
0.169951632368193
0.169456548028655
0.163543013804268
0.167342457422624
0.163799011627703
0.165160832674496
0.163798215026908
0.162356106559061
0.160125814934483
0.163355178528353
0.159574488412057
0.159210195297033
0.160109153281897
0.166043673457571
0.159553937238469
0.162751457681966
0.163661538146263
0.158936292190764
0.157153076039762
0.161913157723072
0.156747363520598
0.157320386198074
0.151828350383826
0.156757456399712
0.155306776281214
0.15739357270244
0.151946513245103
0.151499119165274
0.152127676114537
0.149715471792048
0.14794875565653
0.151398602397388
0.14783629095073
0.152558340848565
0.14775745225432
0.151785009323546
0.149732236504048
0.147383825541699
0.144460850772523
0.147741800236703
0.146301488742883
0.148581636181121
0.144630171179662
0.144529513820398
0.143228318078769
0.145024528731112
0.142622925690387
0.144223787624695
0.14020692063316
0.144947668547873
0.14013784569643
0.140905762830471
0.141456278398889
0.139460391480602
0.137189418431314
0.138131394322022
0.135283675886255
0.139871308333169
0.138236110626766
0.13643661004942
0.130823873708602
0.135780247567547
0.133642166532171
0.13493575334374
0.13394054946307
0.136184790384298
0.132497522423873
0.132430743560525
0.129011672791393
0.130896440821261
0.129282638295483
0.132310608082879
0.130800054315257
0.132517123378905
0.129689188274788
0.132916279455939
0.128416855527945
0.132128658152367
0.127330674278114
0.126223158864734
0.126050236651355
0.127353256501708
0.125792849498502
0.12813192824188
0.125026079653892
0.128009102087588
0.124365117291101
0.127674991013148
0.124353746351573
0.125530433158791
0.122676187561936
0.127504264648658
0.121962600010222
0.124466572868729
0.124370069848232
0.125325924770155
0.122218822293571
0.12875342981715
0.127493051188446
0.124919638333137
0.12171702896818
0.120920136328989
0.119031400113287
0.121478860191762
0.115184296643742
0.12101440188459
0.116704294892725
0.123566968939555
0.118528505262499
0.124155012543421
0.125091831284461
0.122553768463967
0.109329503161326
0.120676891560456
0.121576422035978
0.118263964484127
0.110661801279151
0.125419876250949
0.112166050520941
0.116096145547043
0.120914169653879
0.118934272401156
0.1156751113435
0.124659896784519
0.112422369226896
0.119966230439597
0.110715230404138
0.119734019793643
0.114146487502729
0.119614074479464
0.109252798686145
0.117741148743626
0.108761129678579
0.111874921639638
0.107994264722216
0.121417598909613
0.110440052135456
0.123081784076953
0.106970120143092
0.123927576424293
0.106117627675601
0.117663258224076
0.107343681325581
0.120576712600049
0.106101471814384
0.122138524204374
0.108794546961853
0.126358458848335
0.116373831725423
0.12250343793747
0.101750739597455
0.113643288365706
0.103015981763349
0.121196851050011
0.111135285554508
0.109576895972388
0.0982991082355365
0.11452649266649
0.119308327606973
0.106027095155502
0.107018127842169
0.107584559239265
0.122232274663542
0.105914158589116
0.118160600405376
0.103608365888249
0.118837085476983
0.0961359982466145
0.116265462321858
0.0996350407699661
0.117759785949831
0.103285376003814
0.113929499641693
0.09907542995225
0.109779463232481
0.106143984084741
0.105414811468729
0.103017507794747
0.108530620984125
0.102397489469139
0.106504863590276
0.104447911748512
0.106486089072926
0.101375860654878
0.106663601129984
0.10358772020448
0.103701496322295
0.100104376327907
0.104548670583083
0.102949939711999
0.106654630031457
0.102635942110802
0.103593342375341
0.100184605952217
0.104167875527369
0.102991378442695
0.105144400771724
0.103763480414539
0.105364833150949
0.102429087924945
0.105676721150143
0.101011347522659
0.104093058919019
0.101853958687959
0.103062678763356
0.101536506501832
0.102283553152809
0.100399180235928
0.103045498877684
0.101720738459372
0.102489495159478
0.0994022416887846
0.103048684966616
0.103049813486715
0.104048656995699
0.103086693349324
0.106687964610125
0.10215047503576
0.10323069295701
0.102472937589588
0.104386791326083
0.102474480156377
0.107479432330342
0.102657393753025
0.104192619072579
0.101646389475065
0.101924651381005
0.0992012678840849
0.103112628129605
0.101946039076902
0.103090595205027
0.102094162744926
0.10431886924089
0.100745245084094
0.102743526733057
0.101478361736332
0.104761166846315
0.102375897376211
0.102798150143328
0.10285160622874
0.105213329076631
0.10263149585272
0.102484192831586
0.102759869013312
0.105111361789231
0.101807609116042
0.102496337293832
0.104011757439463
0.102859928736141
0.100669617379735
0.10324142830891
0.101954436519414
0.103634910335716
0.100615117515208
0.102194574553473
0.102996496744115
0.102662416884425
0.101142833451794
0.104767164891229
0.103430758742593
0.103247788710621
0.102928068208216
0.104544731023121
0.104432334271703
0.105501806497926
0.104789528920821
0.103533852056602
0.102008471003365
0.102963256541713
0.103065862693949
0.105258181632614
0.102461115160062
0.104517203834514
0.103362279403441
0.104512577582519
0.106674609499537
0.105421012596558
0.104432746446192
0.104495078423592
0.104003193307991
0.104177682860697
0.104824337008525
0.109987006082678
0.10501348368084
0.107196836869051
0.107344122793535
0.104899841323065
0.107015363327595
0.106640676446665
0.104104513783912
0.107662573211096
0.103534283897758
0.105671047863437
0.107579247966045
0.106352677869166
0.106179675815813
0.107727688941183
0.107941076646959
0.108037961194997
0.103729934836848
0.104010488957935
0.105458080896901
0.107985856809573
0.107208884923907
0.106590574375269
0.105748062820396
0.10787889451505
0.104968515304961
0.105968540685219
0.10532869496891
0.109123934401563
0.108960368586401
0.106810278531317
0.107469354137182
0.106497597679325
0.106105277550811
0.110338854111145
0.107347177938553
0.111704253482428
0.110925345783722
0.10813335370421
0.107586291781091
0.11120984895418
0.109797902760246
0.109709967412732
0.108070091093248
0.109781425292475
0.106548105100871
0.111920557231347
0.111669849074786
0.110550348918366
0.111564067567857
0.112009066616141
0.109964448323389
0.114134142526648
0.110140476071403
0.109941459146877
0.112414027386761
0.112105069106898
0.110438399800213
0.113537270618323
0.110369884498263
0.11047512697089
0.114580586370141
0.113609568439111
0.111138777157218
0.113022169365951
0.110561868909479
0.111956834751311
0.110476384673574
0.110818488179401
0.110785550692389
0.111540922913148
0.109726175043911
0.110827830764281
0.107647108073833
0.109063197608907
0.10928799709066
0.108956840308111
0.110913164815982
0.111134180576162
0.108641542996718
0.108401230786786
0.108230776581511
0.108501728346506
0.11093935272368
0.10852216576296
0.107553864662896
0.108168055151104
0.105762045171451
0.107739814708071
0.106370515089232
0.10939090912931
0.104375519448618
0.106463031678405
0.106920592989285
0.106703114504509
0.103780607332871
0.107221854094781
0.105397350488621
0.107034373001851
0.10529385769443
0.10671589610298
0.104011523051901
0.105666080227697
0.105006022356423
0.104395388019602
0.10225987840792
0.104191066469817
0.102102541204971
0.104567066533805
0.105788144029142
0.106473050996972
0.103489298930283
0.103691445525851
0.104050370631204
0.103543561313891
0.10283216214043
0.105190141699057
0.105396437618653
0.10512335505277
0.102248895484922
0.104996124655842
0.103635631715318
0.102958194034662
0.102471529079663
0.104293393316387
0.102430905372972
0.104075918676622
0.102147144617244
0.103188747362964
0.100780322328422
0.106820405834729
0.103412480985183
0.103445144436759
0.0992035757415849
0.102207309480234
0.0999641171508786
0.1026596179348
0.100211607965452
0.101162828616159
0.0991969601617176
0.103365274154567
0.101943040387347
0.101530515011769
0.102149720377757
0.102812330686252
0.100202408767252
0.0996894257196982
0.0995054471086197
0.100221090213403
0.100891005245717
0.0992624096497909
0.0996533134767168
0.100950254869496
0.10062265246994
0.103949244767304
0.100471662261058
0.0996154286500731
0.099228769036373
0.0992051443794006
0.0979618172425198
0.100724721786096
0.0984704692229259
0.101963448248139
0.098747621210042
0.0997177375651981
0.0989315334523966
0.0964643805065039
0.0972276539788993
0.0992143332112144
0.0965369950369232
0.0974948386595455
0.0970832818357212
0.10091649209198
0.0977271268597161
0.0978879601326857
0.0973223573334637
0.0985552992553608
0.0959694158700685
0.0992042945596464
0.100046083493924
0.0972485603028293
0.095474877621046
0.0982495993379009
0.09497670844712
0.0950679713586567
0.0953162557916349
0.0984427540958496
0.0961542056475139
0.0975634480629253
0.0957520624155487
0.0937585845424612
0.0930392609578036
0.0929796648500146
0.0913397735801582
0.0960621325021557
0.0937717689850713
0.0949081132486824
0.0933557538093381
0.0938907901878822
0.0892427545865536
0.0937185351313469
0.0896238057567527
0.0927424230431748
0.0912986525694571
0.0924997553503191
0.0897439126670815
0.0907379738547249
0.090925438947627
0.0873441380887916
0.0903852273671489
0.0914208798547687
0.0890057560964977
0.087607905316611
0.0860993987276621
0.0872912213074643
0.0884850793142763
0.0859940757570741
0.0868189304140668
0.0872366258242736
0.0872394899336249
0.0857398754283173
0.0844228775406809
0.0864329640237657
0.0845042338329266
0.0847468159402137
0.0863369257514145
0.0860499694774128
0.084202887329421
0.0848918308364188
0.0860271708766291
0.0802860742259289
0.0866135535865946
0.0870167927615385
0.0846265883519508
0.0825979480987248
0.0836321755386744
0.084290261923612
0.0832508725614208
0.0829395731080683
0.0820792271730045
0.0827497580126259
0.0817049511757886
0.0838388522770863
0.0844466526173098
0.0838661834595754
0.0803326909910027
0.0848127494047444
0.0811775455541887
0.0832741964737841
0.0824060855769249
0.0827951113742258
0.0805786423161712
0.0832605238355418
0.0794717507470853
0.0796894308685749
0.0817055580218485
0.0815304964058813
0.0804026619326212
0.0873749508174589
0.0835387726825698
0.0840831831349359
0.0777916246686032
0.0819623718986139
0.0782280914447411
0.0808153495041696
0.0773261968412635
0.0821706126871272
0.0793899347704809
0.0787593758173268
0.07793079033023
0.078591085737566
0.0791219152728724
0.0798433884523425
0.075744038972281
0.0817416189592037
0.0760652768233052
0.0787211428908649
0.0772818368410556
0.0792059441877487
0.0748747833346304
0.0790793635198032
0.0756618198888662
0.0826017544335339
0.0707175088610778
0.080523528472732
0.0814517155913344
0.0792047092114641
0.0748596684194288
0.0759196721973535
0.0786105578208766
0.0781944049625684
0.0732815069680718
0.0772367793632334
0.0755902592958173
0.076208529254585
0.0772644922083753
0.076548957193494
0.0742492513114914
0.0777261265114834
0.075504983001481
0.0771083088491606
0.0732729809006564
0.0734236738317812
0.0742384161097349
0.073307901179845
0.0755452124039572
0.0859837315902172
0.0762889475290332
0.0802655647868924
0.0760371156023107
0.0699496084202961
0.0883883447906899
0.0756099920487105
0.0816980150565865
0.072930443129378
0.0764281898279477
0.074429239943291
0.0778642384318225
0.0714542240984224
0.0774750211853954
0.0757342729325522
0.0749633680958243
0.0765367791306216
0.075630876828186
0.0762860800957538
0.0729100520917762
0.0739065143905457
0.0748291311773626
0.0788366971542711
0.074899947680962
0.075049370020714
0.0746492369088902
0.0732011967500072
0.0781393327369994
0.0706798149273396
0.076016712449894
0.0743222134696601
0.0724730250323028
0.07295099077217
0.0782978534343101
0.0684300825550749
0.0735221003617969
0.0811066420156623
0.0770603608041916
0.0770843991461221
0.0704230974611455
0.0777319368293799
0.0755991487824662
0.0756282562285028
0.073689497848474
0.0767316484337445
0.0736212354667465
0.0774945570896721
0.0716600625988642
0.075456151553092
0.0722138640161647
0.0746492289224004
0.0704537956408986
0.0771450782445808
0.0742146292129125
0.0752317768738807
0.0751330757185559
0.0673797591531089
0.0735951290421201
0.0798051158259587
0.084581760142696
0.0789157637513036
0.0789727411825483
0.0746600560276779
0.0744392652678838
0.0751250530511815
0.0739328956984407
0.0780046416089586
0.0745461965427205
0.0764136173711799
0.0750138666289742
0.0772108830515956
0.0744499148281484
0.0787099149613274
0.0739683063520133
0.0744180561975158
0.0715844980483318
0.0767844977560681
0.0710253204078309
0.0762295655217657
0.070005612573912
0.0835029607313814
0.0720312169017818
0.0842979300864779
0.0552636076071555
0.102872968109211
0.080636126540811
0.0837058186357901
0.0738500428374515
0.0795138511629309
0.0752300289095305
0.0767502899677885
0.0753149236847913
0.0792021068591599
0.0760366175853367
0.0791838526815012
0.0744177796568276
0.0807235217439446
0.0798262582548752
0.0729958380656375
0.0780917689408026
0.0925872154447357
0.0766562597505901
0.0856346921013221
0.0676522779304295
0.0847415601491246
0.0874302136374934
0.0796911097856861
0.0855095851002001
0.0795924551128208
0.0782735418528393
0.078298923269666
0.0797321779775784
0.0759648779004094
0.0799719434987217
0.0808430944617195
0.082399898992441
0.0803119884942936
0.0781320571822254
0.0843456339776212
0.0775331755965713
0.0882947327321694
0.0861783461884081
0.0786334817508912
0.0859145826514957
0.0806031116257859
0.0789767832292085
0.0826303642677599
0.0849547168291423
0.0787320903262004
0.0862423137540758
0.0911422551558175
0.0807770404231825
0.0920789776873043
0.0917150000775074
0.0820667885121364
0.0855398470060279
0.0844167866146881
0.100143862528299
0.0702156262863047
0.0971598839917893
0.0928695377899058
0.0951711590166588
0.100899789090417
0.0850373989239885
0.0937098199335606
0.0833082404346981
0.0939077884727132
0.0789595643341563
0.112526840287618
0.078684149946739
0.103268630717028
0.0722968699121481
0.103344517976772
0.0900289612669185
0.0985505138060424
0.0901839550213388
0.09462636519544
0.0836113854760233
0.110273983682755
0.0855672601625944
0.0869102811171425
0.100711457318927
0.106433212200094
0.117371330172912
0.0954396986687004
0.0864820943794174
0.121856986345431
0.0928713895946389
0.104786088491825
0.0873103452648492
0.108297804324251
0.0871401422827989
0.100903379065806
0.11358662132898
0.0978198584659717
0.100456790169998
0.105179824338448
0.0896689205643612
0.114373114544733
0.100267418396677
0.108804258365595
0.097953747510045
0.112783738534171
0.0831194941104299
0.162169088240041
0.0960631650703759
0.126374183369322
0.110592848471154
0.122862392674401
0.113659072432879
0.116670576687026
0.107731198893184
0.123994909733052
0.122766991188377
0.124628139623185
0.101907477683009
0.136620811779091
0.129756775817272
0.121448015228824
0.131593056898105
0.1172542643069
0.113061403914152
0.142910977110223
0.147499201304236
0.153346275742282
0.130208349325248
0.130442892503896
0.152264815815954
0.135710806551757
0.138631951840724
0.13854593418002
0.139388313536044
0.144333092981301
0.136733642713242
0.152948902403791
0.139493893779284
0.153933473494404
0.143281981240592
0.154055988005098
0.139956650715024
0.18229180247663
0.185219949638789
0.149730024653489
0.188544081563277
0.168814020039419
0.176030605339493
0.158795158793671
0.163141139682834
0.172772090182354
0.170065484953095
0.177414416127394
0.158824085396886
0.195163008136154
0.177493239051187
0.189070570017087
0.198811946992014
0.186757872370877
0.191226758430346
0.152137737690541
0.332459484224485
0.20059350185537
0.237609288014046
0.194173434994761
0.224321539377194
0.279438169279819
0.244211828687914
0.24491015243928
0.249204934120813
0.244720041438106
0.262581987114689
0.267479376899329
0.27601460344609
0.284690714399581
0.295506120630411
0.273353452376392
0.307900248496393
0.334954542089473
0.353133767848386
0.337566701008456
0.330990746783015
0.347586574274823
0.361223860634676
0.352229977810761
0.379300171809639
0.360840737516983
0.378351987504774
0.433818489838086
0.398428630833847
0.421147835628255
0.401205269527234
0.466361317748385
0.392668507440522
0.50419737237387
0.445277561390189
0.480753682519146
0.459855920168649
0.482510020783739
0.482331480330425
0.487587454455499
0.518626490165874
0.526804182258479
0.516380434161957
0.532008046649798
0.528953426415038
0.546200201266532
0.544488979681643
0.558093722411306
0.535646416031784
0.593535598122474
0.514594661470388
0.698554305500888
0.58712874911802
0.593428881842833
0.567365718135824
0.581650595442537
0.598114328033444
0.592412805319598
0.616125172029507
0.616516357803999
0.574858564389055
0.607360906028416
0.596031106895429
0.608046196824718
0.581242925313375
0.611931069953879
0.566124329277148
0.646931556423159
0.561242187777473
0.674522355070145
0.623758254611438
0.598690348143319
0.578900867928851
0.59321372820584
0.582825936757241
0.599143040019016
0.573230021341665
0.608448616646326
0.593753503245997
0.582806640459662
0.586872512329565
0.559411605352978
0.591081780434817
0.589953318402409
0.544467347092571
0.566270747350218
0.537009814508331
0.553447700848768
0.508617882301605
0.538131158131982
0.585294153417226
0.528320899554975
0.538935801675057
0.51890800710367
0.518779322897085
0.521267264892085
0.519464569019807
0.516671790366607
0.505468690744605
0.508199781860319
0.509703778396676
0.503574666143496
0.499693999048198
0.489675189211789
0.4969608692194
0.492109553295755
0.494957622201131
0.491043696106582
0.492912192524166
0.482637522514803
0.486954029087287
0.490749873966464
0.483052066363318
0.485092778191961
0.496659417637242
0.495011891608744
0.494124978071958
0.48427678146538
0.484728456489732
0.48401356184729
0.484202093937605
0.493053392071404
0.49118351237532
0.478832736275246
0.48596935744342
0.485855406201291
0.483773628062776
0.486466717740262
0.485192250612581
0.483755497231788
0.481249380698729
0.489157946514895
0.443441058229417
0.549943259286754
0.485933502836961
0.477467920101823
0.474005997817373
0.469345476139965
0.471210278923408
0.438736209438778
0.509365851897945
0.471524145102998
0.463585460236663
0.45661731100039
0.44677173414964
0.463919147154469
0.457130103135984
0.432798997708979
0.468011061542263
0.412530926046374
0.495856244692425
0.446118214520222
0.501552082812125
0.490557465881694
0.449573785284197
0.424133193562238
0.429354587556198
0.472195790493035
0.413300946262056
0.444222240450672
0.396117065952579
0.458788371385872
0.421636455193464
0.42741832401047
0.419199146398386
0.407669719525454
0.430850582269937
0.444302694657724
0.404864304758633
0.423592652666608
0.435014684702573
0.405170483655178
0.440136107626249
0.447386488367051
0.416139928913559
0.385395000421869
0.391554555287204
0.386038021348184
0.3686413932608
0.430261647906159
0.374333988344983
0.400209898803267
0.363721337717448
0.375901570277171
0.364003275483833
0.376311473645667
0.375838527977313
0.350977346211287
0.399361268086656
0.337248836704607
0.377744446420657
0.337887570157801
0.392020606697208
0.3772991831103
0.355199363732804
0.324913780141033
0.364340312051977
0.371672858628462
0.330138427781865
0.361551276605527
0.321702968980287
0.32635461760553
0.345007764657346
0.315088586184827
0.329578064684633
0.323779559604121
0.314020353899898
0.360923478752777
0.343450884592269
0.3574023702306
0.318009757597393
0.300735745188481
0.305407986543635
0.297018419712002
0.316313878423474
0.284354922314513
0.34494757180619
0.312252357772014
0.280323700768518
0.352231816989292
0.314361012848633
0.312809151759334
0.309740410278705
0.305984494990066
0.307575551579765
0.321626346301656
0.347422953402852
0.326868645696477
0.329328434502679
0.354784631655187
0.322553227347924
0.345533467172821
0.335888474064376
0.352882575877654
0.334866945864196
0.368698748072059
0.354763706730454
0.367156868600768
0.372763806863971
0.363581829760503
0.381145915918118
0.423747225346193
0.369260171281709
0.445179765083052
0.388043930083006
0.480811167955916
0.434152822885924
0.441180340463157
0.439541350216935
0.449577052349075
0.460344485589608
0.458370463725217
0.460631417608826
0.52259972065571
0.468165512526295
0.502073072798451
0.470794602111406
0.51098871536907
0.474784910304716
0.549674447482831
0.474405427543343
0.579676642903701
0.55545221197646
0.541766911223374
0.534889996712729
0.516681632840361
0.538837159797763
0.53767811304495
0.538000135738375
0.539372510948928
0.526720915736986
0.574838565029307
0.535535528777713
0.555632223959801
0.549473269451729
0.559252654157638
0.556196993583813
0.566352750023383
0.567055911036166
0.559260524898679
0.56915095529951
0.582735713570582
0.537940910658282
0.668234327390196
0.582562541538088
0.599224884552438
0.590555233863308
0.614209391070164
0.601685067482422
0.606744496614839
0.630531095589378
0.628756142420977
0.614776228802042
0.634713208654194
0.624996519945562
0.639512114496765
0.613666542578876
0.676767919482872
0.632155331380825
0.68128530219929
0.617758484849183
0.681023864545349
0.702749974143691
0.672039245731543
0.687047713339051
0.66184588999889
0.684815471608027
0.680294128625623
0.68418178953293
0.679234069278258
0.691784074630673
0.674675595828736
0.689873488098822
0.694232703724045
0.688753529078139
0.690090972766536
0.673724953033825
0.700292529363911
0.675119451129021
0.682169036635383
0.677378012302067
0.678967590130325
0.669912342097231
0.708587803616855
0.69379668335567
0.68417680367262
0.691159019489885
0.6921638881009
0.693824508931118
0.692151723538359
0.668437254708532
0.693449716000543
0.685247441702732
0.693810465989469
0.681466896134957
0.700343877123425
0.722878832440005
0.694313917860376
0.696425707870138
0.695027260226764
0.69845891689782
0.699872484508574
0.70922360867459
0.705155220950245
0.714863587867658
0.720866735356293
0.722963578085348
0.732764448348791
0.722294884677323
0.723380116447501
0.732921650802975
0.729094249284922
0.713605056222216
0.720498379365128
0.71638529980447
0.707410734056763
0.72056933617026
0.716337094998751
0.701966905785966
0.695823609565419
0.694455658008533
0.681039962431612
0.713082076809353
0.674869338354183
0.684074249120339
0.671877289100579
0.663328319572512
0.663290546295717
0.660232071333955
0.649031118817747
0.643428912847018
0.646705316973743
0.642870328923015
0.636437382662137
0.636990076728392
0.635244191586845
0.633524938981468
0.630450196764885
0.636555348397086
0.630216561151324
0.629509644907291
0.629520834871544
0.624053579048537
0.624650982999434
0.625674374494046
0.624369282900537
0.636407302499153
0.624047908978164
0.63777370810915
0.632086555318169
0.627285447818546
0.634082572003441
0.614540086414585
0.632091581670818
0.621589145083775
0.623617469576732
0.617389242694911
0.625865811678335
0.618595772777534
0.622864442304344
0.618128521339352
0.623971220651991
0.618291141105336
0.61873817735261
0.613728914174264
0.621135048443821
0.610895560107527
0.620882206190912
0.61298009858134
0.623182101259622
0.623248390550055
0.618411607946159
0.620669297055565
0.618405575350781
0.616468680311404
0.625725565647243
0.620460766192882
0.616628431943726
0.626130978916551
0.619353047261561
0.618922879168008
0.626523964895657
0.618290160290963
0.622577021853193
0.619600541966742
0.612511160993356
0.612892655803118
0.610976211755119
0.598819978996578
0.605363563533535
0.597911276023776
0.59193470611535
0.584453521549301
0.585759355292138
0.578451501263332
0.573279140501333
0.567924918136667
0.564758306944993
0.564562457618687
0.56150298829464
0.557560437681769
0.551138272912428
0.552060940991675
0.546500424317651
0.548005216335167
0.545622334230735
0.543313357763764
0.544383188163664
0.540546363828315
0.537518957896171
0.536326158516762
0.543858537883316
0.541193809865817
0.537010594037666
0.539633340742787
0.535757612370669
0.539952365087816
0.544905888065726
0.545202011748819
0.545047694657672
0.549744591957826
0.552402407647768
0.547961515129553
0.557445601276148
0.557688508705274
0.557342761373281
0.558409045389277
0.560158840212701
0.561998551434454
0.562806545387718
0.566025915397534
0.571532914494556
0.571626075532852
0.569073808119397
0.575769557842759
0.575925553019054
0.567080919987702
0.57415005338142
0.57489402999094
0.570526443767376
0.563705194026709
0.567634487825804
0.56954320463923
0.569094546686122
0.559663533980924
0.566884369326468
0.563379532977284
0.56435253085146
0.560403001829749
0.558152304396601
0.558690878849929
0.553488860276883
0.553000277503085
0.547487536780866
0.548049127384254
0.548085482772418
0.545106653036086
0.54309659224569
0.541173416359987
0.541570748151589
0.536651105657823
0.537145989437747
0.533641908453864
0.534624422909456
0.532524607786702
0.52452105128055
0.527238987355432
0.531018427405232
0.523818403472216
0.523375075363854
0.519997908466766
0.51499109549066
0.516588829188528
0.518579990548363
0.51279137229198
0.513780281954382
0.506143744282729
0.507471545328289
0.503509953282059
0.500988929690003
0.498481134753342
0.490960193847971
0.490943123187671
0.485275110708113
0.484699582768743
0.479544262831679
0.474468580455827
0.470195553939233
0.471424399225961
0.466759544495246
0.469012181012935
0.463306278797482
0.45966186283127
0.45653061488292
0.458001536512355
0.457556991308134
0.456352770582996
0.454796709145789
0.451679051879966
0.45269666503367
0.448118839939847
0.443250929700706
0.439825793298628
0.434592620636069
0.429907925192802
0.423367522567028
0.417134770265955
0.414939402771892
0.411852059673074
0.40693995629237
0.402891513307327
0.401158279269318
0.39796399250964
0.399642562881224
0.400780513423488
0.406589957732198
0.41065409828083
0.417569879004284
0.424987831255156
0.437413012144105
0.448445609100566
0.465616973668786
0.475970246201523
0.491692450351748
0.511456948251857
0.529273479307678
0.550144223138663
0.562642026459245
0.58050316650174
0.603343062064676
0.618995082086278
0.631639180480748
0.651862704291427
0.673543825553504
0.691720953308536
0.709533257316748
0.726347917625009
0.746264401197267
0.756559922015752
0.765255802564593
0.780715128770516
0.793595829438526
0.805957158545891
0.817595877111268
0.831737822059284
0.844818915644888
0.852763855035964
0.855201328398156
0.864468308129833
0.86640687662293
0.867870993731666
0.866420283443744
0.877935375673554
0.881857884083246
0.879991447319721
0.88092951981828
0.886413501879752
0.89100404279671
0.89060146076098
0.886565165388464
0.883851554447135
0.888084755636347
0.888799949000052
0.896736186145935
0.912898739732611
0.89891057694191
0.903479711130852
0.922583024402312
0.932378803071027
0.92799984245442
0.940121898634746
0.945448700964827
0.948964079702581
0.96185413950517
0.96497093950979
0.979810960469867
0.990437203034951
1.00599405983567
1.02923015773707
1.03524594326886
1.04096062501713
1.05269420344108
1.07371613016048
1.07739927061756
1.09319241397141
1.09307252820332
1.09407637558733
1.10864013048264
1.13103047722032
1.12127033110675
1.13873844010703
1.13425707572869
1.10756410619411
1.11739724609077
1.11462952200647
1.10234392738623
1.08877422696264
1.09059706905956
1.10199634447524
1.10208561368552
1.10421618988652
1.11496944038023
1.14619842651625
1.13973118859991
1.15591541919399
1.18080292485325
1.19048449437569
1.20532642843824
1.22132045757225
1.24353983687217
1.24633221855242
1.24993422985627
1.26301480518704
1.29056875439072
1.33907423273414
1.34432442892772
1.35558815867144
1.38279673855905
1.40315692042501
1.42378230976806
1.4660062888153
1.46641017519697
1.48868633464984
1.5213224008797
1.57073335668313
1.55487682114463
1.57774866082174
1.61207291315692
1.57445163289615
1.64521828368451
1.67008432661547
1.67257231150394
1.70210034088182
1.73331423152247
1.79428268537159
1.74442662279532
1.83825667009983
1.81633471085472
1.80474635306332
1.83529989844559
1.76176556933386
1.77264343856986
1.82360820067832
1.80082481458423
1.8517209646088
1.76731781682932
1.85073692992006
1.84664385980532
1.8342468771718
1.79132196812561
1.84432145498911
1.85629784875392
1.85706746763691
1.84808214848419
1.8201842394353
1.89432370441745
1.8880368678717
1.8674151111294
1.85108139600738
1.81187484907073
1.78078178570598
1.87493313565784
1.97330199084096
2.01775966674776
2.00931466701813
2.06001792939479
2.03697254533505
1.95785080828555
2.09826642396127
2.16028817696309
2.26497816381374
2.08684565073143
2.08924111531952
2.09363762992675
2.24085379141533
2.02303504070811
2.15649893669292
1.93803344741535
2.04301172366695
2.35820015292564
2.31537369453324
2.13750405261229
2.240385663457
2.18508234384947
2.46629701719975
2.16023485791011
2.23823275698572
2.40496695907218
2.24924136851467
2.44818939015547
2.7615939697785
2.32256444953671
2.32925547583948
2.26417532304031
2.22793239304008
2.26305330933401
2.2696613875356
2.11619301148857
2.33035641886935
2.0737190200266
2.17473942561084
2.1077765945869
2.0324704452666
1.96067869124986
1.87383128681158
1.75339296795598
1.84525944247446
1.78735594378491
1.78394740318792
1.67480146976834
1.75614832742016
1.66553796740467
1.69754260764255
1.62171104451817
1.61064622200603
1.65586886073339
1.62640765921121
1.58119623561909
1.63508195866768
1.59411831979161
1.7010379693202
1.61726842993997
1.5260300169102
1.56611655304398
1.53563908438751
1.53130169799051
1.46863232977507
1.43186708674738
1.4316317917148
1.38243797169524
1.34358066153895
1.300967706632
1.29902527661882
1.26717839027826
1.23135194925374
1.1738208629433
1.14976253544601
1.10754689674645
1.06265385427419
1.00311821744739
0.956075007212219
0.912991838837164
0.882513407011531
0.850933578430012
0.81355752372745
0.788401270206288
0.753076061477973
0.718692177782904
0.707313948826843
0.679935517008504
0.66332053369157
0.639227524770611
0.633944712676953
0.628370356029463
0.607406820640779
0.597133710915948
0.596209535351019
0.590984352258771
0.584187680327201
0.58167519855118
0.57908780398546
0.578601372701787
0.579674350680025
0.577615917275844
0.565090866691587
0.570155621458238
0.587364928670054
0.581522255997684
0.577996758804565
0.578992720296064
0.583096238946293
0.58275714263743
0.565663887791623
0.568536050354779
0.569072975979757
0.56169463333816
0.560220279287346
0.55357790833242
0.54913307910823
0.541391708036112
0.540434367479122
0.535828549735621
0.533286928522761
0.53214484463304
0.532750269565186
0.529071781374124
0.531913343291393
0.536407381644841
0.541619058351939
0.540776827039543
0.538031596671864
0.545199771376157
0.549301117581127
0.547371533397596
0.555338527261734
0.55327578242383
0.558578602931456
0.561365045571539
0.564208617913578
0.572556858103669
0.576373079762453
0.57085906096558
0.57769267247717
0.576691383695932
0.580832534503081
0.585374283941854
0.584338538539918
0.575922864463898
0.577585572420565
0.576904916457584
0.577655700110089
0.597615833991281
0.606951100733868
0.604750821491162
0.613317451082514
0.618468181166837
0.639398734773858
0.632316064777149
0.651330510814579
0.675029284590467
0.698523198005569
0.698524250103796
0.71922397952009
0.738196692332691
0.738897248422722
0.754617961146749
0.763243190573357
0.778189989360712
0.775582923783753
0.752750585986703
0.770008895932996
0.747371944244993
0.742519225318872
0.724734120732677
0.714986461380799
0.708672655283261
0.692696533074627
0.68374448232076
0.684730568941552
0.67457711641781
0.691277668209625
0.699757231056191
0.692243195848918
0.692558640740065
0.708204592622409
0.70817349773409
0.688731514213062
0.681705801739916
0.704375765420724
0.687857004858267
0.678099921977439
0.669632747173926
0.654433178475713
0.654174202490695
0.671587130304382
0.644713074900661
0.635336277449046
0.63777740070336
0.626239392829007
0.620199165266261
0.61872745897956
0.617001190320419
0.603573060823165
0.608330843591046
0.61162235937106
0.593515777346236
0.608638440578298
0.615366395116688
0.606786472946358
0.592038144223684
0.585747274455112
0.583992077270242
0.593029010177959
0.586093523262598
0.577347210385671
0.575876876471607
0.578334872676681
0.573039134953528
0.581644222044777
0.577895012870454
0.576311297465983
0.575831037831676
0.568560429179251
0.55264382808521
0.542634516461152
0.548073669738252
0.548387078385408
0.552364365191945
0.560738990188564
0.544277472439516
0.544346441571956
0.532513115878874
0.536506062168112
0.535552105099284
0.546004592306933
0.530572514647136
0.557896055770005
0.54660045627087
0.536738431569871
0.539789122986389
0.540626275092323
0.534699193302335
0.554006658097146
0.533294007433856
0.557981926211207
0.55113500998363
0.540293831036591
0.537978353354873
0.549216526174617
0.547330364432831
0.545668741283574
0.554739628042151
0.566799365831829
0.582789524882787
0.596237263590643
0.565119106317868
0.567294321213398
0.583422851330237
0.580129057892462
0.592184397102689
0.617867742542844
0.612193644192555
0.59363242398706
0.627487424821159
0.637302945073878
0.633954374638915
0.656092180061469
0.665709727480648
0.658540862965167
0.671746797710559
0.699404370122524
0.721388695307308
0.753541445715567
0.746303974731346
0.811851696971744
0.788982936528913
0.787034026368924
0.85390773868522
0.83621079524243
0.846829846412262
0.87259867672397
0.911770659595055
0.886218815096112
0.888345407905953
0.94054662660867
0.869141562248636
0.895454426572537
0.933032517110587
0.925025204785236
0.960409633110534
0.879747853341979
0.895167372936445
0.940493766533621
0.895314974466362
0.930247636053626
0.898524749764894
0.892464400488278
0.88962321596209
0.866883432085545
0.887653826122354
0.931746008663999
0.871323444905716
0.878048852549114
0.916766291403477
0.869956817663133
0.853168257352122
0.858103063740856
0.883945650414183
0.853264802581723
0.860109460584943
0.836982306883809
0.807146895264479
0.819125036146117
0.829936251946653
0.836066241618717
0.83535349508127
0.81995185510368
0.804159977975817
0.87785828657046
0.796875421645839
0.79564716136831
0.859705100691653
0.888394389696908
0.852708783146732
0.826306820103721
0.7947941753591
0.848686834657096
0.869156161429371
0.797203576192576
0.82564214896275
0.832597996850986
0.831269319938422
0.828522416161104
0.847226541786599
0.874361765866732
0.859591726608586
0.880939446591909
0.828039641558764
0.886270253813735
0.885892196896863
0.818356339253019
0.823897857223607
0.84596888096733
0.943507594105196
0.862796577027196
0.872992125781575
0.88299283187693
0.957528184022041
0.898312935312054
0.763035067479563
0.877105230188004
0.941958248573128
0.91120327693377
1.04394383395245
0.930775691730057
0.866737731108755
0.956564493972727
1.09112716126076
1.15043272243369
1.05709346283861
1.10075080611328
1.15404097692939
1.01115671821003
1.15772420168366
1.07828705096144
0.974350317241024
1.01309133408717
1.0652396132529
1.09434989478807
1.12088036452775
1.02120715949284
1.05729884067338
1.16014268457539
0.938817891483668
1.04548540151948
1.46787729004027
1.41157470969775
1.13750241171102
1.3457830908715
1.32524611489164
0.84472842478125
1.08408611078728
1.1069039343994
1.12898535849521
1.32760210976124
1.09610702232732
0.826802673429226
0.969597569003344
0.995737826341181
1.00631368243296
1.20551428957632
1.47154779675571
1.40576460640692
1.22860855062153
1.7080432703347
1.90918802325324
1.64618404748647
1.32236610761225
1.18609866693174
1.31116721336247
0.874675585311259
1.14268146299549
1.25175872601385
1.26427650087363
0.912574424744217
0.816998365575269
0.812667893647978
1.12291260469299
1.63644391774963
0.981176565620086
1.01465686428836
1.01096176777343
1.16279611185962
1.60885104294654
1.10797625763997
1.2522492027399
5
5
0.967959956187852
0.812154929069114
0.835088494247751
5
1.63888152726242
1.78972167551207
5
2.36839782639163
2.25092596637317
1.31314809568279
