3596
4000.36533379555
650.420452594757
1
2
2
0.071128983212357
0.0703485296523548
0.0757079586401912
0.0698886270820493
0.0822804188643195
0.0668965163039606
0.0806400680181392
0.0765600292935023
0.0774164250666731
0.080211190282794
0.084397954225655
0.0728603437909696
0.0697442601138112
0.0697412585935964
0.0762104457029573
0.0687403727210402
0.0780672140237218
0.0691878463569074
0.0788103330450753
0.0653949873251649
0.080882650073235
0.0662491759005808
0.0740174646098291
0.0676623332061645
0.0749350022839816
0.0730444724562817
0.0736848334961319
0.0643250134303891
0.0832945513374257
0.0777692963433169
0.0815156988504618
0.0614394234247604
0.0774640439220871
0.0741570427814335
0.0770413163522748
0.0750056379475337
0.0769561371305054
0.0696989848800063
0.0774556277043724
0.0735743971890835
0.0864874758538125
0.0693363512890161
0.0772695909233804
0.0776006801357776
0.0796886778165657
0.066622312712065
0.0815765225800885
0.0704757218984393
0.0782259622587603
0.0789944399217661
0.0844884578080694
0.0628605061761217
0.0804214240380456
0.0791528669875336
0.0796993697604269
0.0793106176836312
0.0718633202831929
0.0696271194632649
0.0823136730242102
0.0653081192464047
0.0803460922499347
0.0813097118222271
0.0741548786010887
0.0702162654216443
0.0721821644837023
0.0683280379452389
0.0742290068466136
0.0621348641746654
0.0727358303351605
0.0726975003607158
0.0752048119795058
0.0768656718114782
0.0926245932367714
0.0648129874420397
0.0826141643369981
0.0663048116284819
0.0739208226346917
0.0625184988995613
0.0654681896020696
0.0760894425516991
0.0856291733386789
0.0614395533370102
0.082626781314309
0.0593262319936102
0.0720835968258902
0.0778306430023935
0.0664016397647022
0.0522262719167328
0.0892829300290309
0.0693549878808287
0.0784892644280871
0.0613845813963057
0.0715964282262644
0.0641059220544366
0.0745368572197011
0.0522756209393415
0.0719175903472357
0.0654965928492199
0.0671067898420809
0.0646548942361315
0.0808954149666229
0.0532238299634462
0.0948739180656911
0.0545449286175724
0.0932998139260301
0.0720643064395191
0.0459513683621787
0.103171771878578
0.0779734272720623
0.0622005785919037
0.0717708985079922
0.0640395368476743
0.0723815640425848
0.0660195598724346
0.0604165307019551
0.0556844819897888
0.0974009225060522
0.0649233013412353
0.0760676105201784
0.055016736682449
0.0595217513800466
0.0615827681026257
0.10752122129297
0.0575230000095836
0.0745148364569982
0.0601288950568502
0.0637373207521485
0.072735854053657
0.0996939438355687
0.0612310889107583
0.0703571145157521
0.0517550037619291
0.0699914058521407
0.0442757786626316
0.0977746514737289
0.0733121017132065
0.0672239991442574
0.0471308963475335
0.0713980223837137
0.0967906898669254
0.0865997994057595
0.0588134347698923
0.0552054277353094
0.0399073627170116
0.0902684093817635
0.0576955396451387
0.0603052974260893
0.0694165978654896
0.0882190285870722
0.0555627269821871
0.0658667544254199
0.0460065256802652
0.0770853674598712
0.0648671600931233
0.0366702247463303
0.0423023832677657
0.136832876383822
0.0420526666602924
0.110758768506429
0.0580591924172016
0.0667776083059021
0.0669155726964993
0.0698459002624676
0.0638214678943993
0.063330580669842
0.0503453825841145
0.0633765303625346
0.0850629430333
0.0672676454246596
0.0602270032651604
0.0916096519612578
0.0577133386968126
0.0452809735565328
0.0816572198100552
0.0884122370587923
0.0306043993973244
0.0898495853972671
0.0729644026867752
0.0561575268777547
0.0488651114446787
0.09362324151143
0.0566442158258702
0.0645667540321822
0.0512677703521227
0.0646757906432203
0.0635713629642472
0.070780263468185
0.0542911565400027
0.0680015739419183
0.0351982498070066
0.0571814313231837
0.0894137405912565
0.0887588518899229
0.0631434094561459
0.0696756686684241
0.0276289090719516
0.0739356930996122
0.0940065717134415
0.0662409559239983
0.0600816577830251
0.0693057691662763
0.0508486801241669
0.0610320214712288
0.050881319326581
0.0600945379255427
0.023674204257519
0.0855838822667622
0.0833527355825046
0.0611290668778789
0.0612955790152768
0.0598202803191936
0.0515525607073872
0.0918280574606829
0.0962797382606119
0.0685592355503965
0.0534454378680173
0.0518638306565085
0.0637321301721015
0.0836672033139872
0.0608731028739034
0.0644010934967804
0.0574657444650569
0.0651202352275905
0.0634598552967282
0.0681791643099678
0.0542140114928188
0.0621730487576271
0.055132643341097
0.0681578240487472
0.0592167210313587
0.0727754844411526
0.0582564940375472
0.0624680501815501
0.0552564063510131
0.059714156357399
0.0537040802011899
0.0828951062454912
0.0570896524205537
0.0696524665545273
0.0583728905010023
0.0662323795094654
0.0552408921926178
0.0646805811132438
0.0544343378905989
0.064142265176798
0.049801757516871
0.0882595781579879
0.078458150704624
0.0625562857626479
0.0508612094531852
0.0631650365226815
0.0816047849701709
0.0663702426233389
0.0556613188869906
0.0624263857221277
0.0535780456326865
0.0501545682223463
0.0794680121542495
0.0710038658872429
0.0578779956399585
0.0691671002244677
0.0754488691225808
0.0626346818771968
0.043798138492658
0.0433552386672734
0.101806186703828
0.0769853574544947
0.0399641969472682
0.113674979342387
0.0794292138302033
0.0643825547296778
0.0626215643323808
0.0221403707327309
0.125984057155046
0.125957824625816
0.0663397615193982
0.07116352860506
0.0717475994534625
0.0682023127534024
0.0473750055151237
0.0719891762180706
0.0628090387434226
0.0938025806657907
0.0840556092177698
0.0999451645704456
0.0574880091658056
0.0668869713468821
0.0995245899030188
0.0725386692276898
0.0689553856028006
0.0684390067789067
0.0640046542053674
0.0727157773948837
0.0773683239733923
0.0713709530262799
0.0712137008408136
0.0645449129064936
0.079190606023824
0.0840963958312892
0.0629643908390187
0.0795814738933347
0.0759771016272426
0.0723590169782955
0.0599306702307116
0.0754812343090981
0.0707646564754281
0.0712762484329361
0.0541203475297087
0.111199459716052
0.0819962341069588
0.0785193102484186
0.0899138951469774
0.0882500753446178
0.0694632447604927
0.0804304846911937
0.0720866919291401
0.0806519358354177
0.0637136119607326
0.0700804210665505
0.0857249656802947
0.089040921333145
0.0671136726550547
0.0840724296521523
0.0694003282927899
0.0843317563173081
0.071740081444585
0.0831470176964787
0.0806726067975277
0.0816778850830705
0.0674815392967424
0.0920672610405782
0.0931701036728635
0.0749439251261112
0.0894693812086424
0.122985315463636
0.0746869525427837
0.0906567748189119
0.0809387274010599
0.0884111534576259
0.080513752493325
0.0962581068983675
0.0863615124350443
0.0943622918117715
0.094995200210283
0.0987213846961445
0.0787016179535383
0.0864762018704199
0.105398394572679
0.137999839631399
0.109673033734935
0.101653134404169
0.0702897746335761
0.110044558352186
0.122296450759813
0.114425652774637
0.119054257757315
0.110550858590924
0.0999482890273529
0.113010175979192
0.102614578939842
0.113669055087394
0.108226850575561
0.121313103204597
0.105342963511737
0.120711981943454
0.111698082711426
0.113927258990033
0.0985964051795644
0.151621686441035
0.131088085601174
0.127492210506127
0.112863046338114
0.120581099782045
0.125995706586211
0.167747348595346
0.127585681518639
0.168075887338738
0.136929224584376
0.166307368533615
0.13897823897668
0.145585559771803
0.136165130150752
0.152908642461255
0.151572157023411
0.159036327276419
0.155897785707903
0.15625978691812
0.152421654768143
0.175422890751075
0.164947324381995
0.16595236967442
0.161086648227125
0.184518151694564
0.177926665764634
0.169944372417057
0.163425713980406
0.179347731485172
0.223977285939516
0.211057711430827
0.178990420574179
0.194626609973037
0.189323639792959
0.205725781673833
0.190248662524323
0.193675000377026
0.186202852303955
0.214764662192588
0.213991427064115
0.235428790724168
0.210298121471398
0.226294251188321
0.212355289599113
0.229283388770042
0.224720236994662
0.23849952661472
0.25172204297004
0.240053141524185
0.214170059071363
0.267788636063797
0.249582151541005
0.256604833850498
0.248908638500528
0.261345185581387
0.240995423719987
0.267997751566476
0.259209468074111
0.268370338821868
0.262349161122693
0.282524091885031
0.277287803851615
0.282943258657581
0.26756747402791
0.286119164226122
0.27891704622223
0.312050308587834
0.280899204480134
0.309251322593442
0.302093910298813
0.306018713649241
0.298527197423296
0.333865523613253
0.324547023743421
0.331114808019378
0.326507385919094
0.336096820509421
0.308344990852328
0.349346065437865
0.320107570297449
0.349825791129511
0.34162650673478
0.360379826135966
0.334118114061965
0.366518385990856
0.362052972197091
0.365150699774235
0.360691345767519
0.389700674351657
0.358369100479598
0.376698611613456
0.385559761708878
0.411861048774263
0.365695803054079
0.420068086080552
0.427027748372503
0.43829350559777
0.408416441684875
0.426903070584004
0.402169044989414
0.437457188161703
0.414603759008902
0.4379404248978
0.418959351264738
0.444691348955372
0.43815404663061
0.468306607338969
0.440220718176519
0.462876335493216
0.462156206784078
0.474328282413445
0.443171137677219
0.509886211290044
0.467636476299354
0.50921626067537
0.481444506870112
0.514631647283767
0.505065592240555
0.559224990546234
0.535936960942591
0.551200200354391
0.507387297929195
0.545108487626269
0.51169246407004
0.58062822161005
0.541937308979873
0.542971603550929
0.541351442272178
0.605125230590245
0.546638978574419
0.581815845751053
0.546729349705343
0.593782007491953
0.557857373472709
0.616233742226762
0.559198730328537
0.58238603501358
0.585791809966648
0.613638315199636
0.598203670861501
0.643794543476026
0.610869216072484
0.612626868597162
0.644024156552463
0.675500066571423
0.605747244884772
0.662561572042574
0.637335323280245
0.650519863376879
0.640290059612111
0.676615192161016
0.642225022375564
0.690332136481234
0.65504428828867
0.713795391724126
0.692413628083285
0.697834344844362
0.682507058779489
0.790770495771598
0.711042397120836
0.764012681565197
0.709763079784696
0.756577075025771
0.689026936910011
0.750135226290829
0.736131683517331
0.758811820557103
0.758880309116765
0.78339091004235
0.731365896880904
0.777351839890212
0.740961196826918
0.820354634409412
0.735524875600612
0.795661327171047
0.787908619328038
0.845859571314394
0.800591535892731
0.832968523918173
0.787910919733505
0.834083188071088
0.799425488291653
0.850569448417908
0.873151502759072
0.860371136290218
0.835523855128001
0.903137329434511
0.863092130366358
0.889788408872365
0.832496179264859
0.939970810107761
0.886844673677338
0.928466664381129
0.841958128484359
0.935122918489198
0.858696373142713
0.897622223102178
0.901712879912242
0.980227021097684
0.854739941402357
0.946975346772543
0.880985579772675
0.976466203075952
0.91170090642995
0.984071905722785
0.957059367366846
0.97434200001685
0.951775204840293
0.958561392032178
0.977086629941237
0.968981641432675
1.00392010756087
1.08319309592803
0.931803425594822
1.089042078222
1.03331394626846
1.08366800157962
1.00963205494003
1.07637276364211
0.971862032227487
1.09542519906746
0.977123846763471
1.09337759108003
1.07268962699198
1.11736761795331
1.00220334195337
1.15360386649438
1.07644064954755
1.1169490887319
1.02660579791158
1.15076852262909
1.10427165824362
1.12287254129797
1.05342813389205
1.07038300218711
1.03843491770426
1.12401784972298
1.03515682341801
1.16254607774376
1.11327389186946
1.18406791986052
1.09211404062191
1.17406581513225
1.12019220568172
1.16492072124707
1.13653820317559
1.16595415933968
1.17040058390085
1.25254565532738
1.08501940533889
1.26816766369976
1.2137079413819
1.16114697004147
1.10731800622403
1.25769609354158
1.25088837181516
1.19929579146068
1.27816272761976
1.23747575489081
1.22416254741765
1.29697848564732
1.19793460162175
1.40650763553012
1.24384224160364
1.34427000592203
1.21860051458322
1.45168271831954
1.14773214062454
1.32461907764945
1.19965913071504
1.44696091476246
1.20565519315608
1.3202400913761
1.26289365453138
1.47420981887312
1.2295116785136
1.40988059241861
1.34035921240335
1.33457491744919
1.2444447607665
1.33413809989318
1.24973172933127
1.34337517643511
1.23700839041539
1.50667375107423
1.38047560620041
1.45558402539661
1.31659158913137
1.64312586774469
1.1923362613787
1.49196263533615
1.42515890794818
1.41540033343202
1.25414275890074
1.36471835241669
1.28957417944567
1.48949399781801
1.40029420347696
1.45179935409829
1.35460753011409
1.4225070875253
1.31449208662069
1.52547077306499
1.42918470524024
1.50820521149937
1.26508441430473
1.47896385514294
1.34246246278396
1.55900711953121
1.30858088568352
1.58124350625541
1.51152979664016
1.57100544060604
1.33801868185912
1.61030188837643
1.2742259969147
1.45120444352168
1.40617477947322
1.57261010788787
1.40510468700357
1.40979346937837
1.33622114829677
1.75580404943377
1.38138094483874
1.59195364229547
1.49275782810774
1.52378183310305
1.37534832807924
1.69852502523029
1.49034102289297
1.59580217298722
1.44172245738084
1.58100742133486
1.31094974077782
1.53450262642534
1.46254019617117
1.36628574603742
1.39347600815903
1.47536514572599
1.49283012622321
1.78675129971148
1.34742891569487
1.424345373851
1.55503510226996
1.63258200171357
1.40005815488287
1.5105308976612
1.47311116998999
1.52064514460983
1.407183630947
1.58292723626137
1.39837992639731
1.57416682695141
1.44278715206923
1.51530702605301
1.34857787816321
1.68546990206405
1.46209909573742
1.58285101266052
1.39749749704152
1.61450603272362
1.39743637269571
1.48968970783414
1.4906700717062
1.62271598018311
1.43172259997234
1.39614491745186
1.59171627289167
1.55902058588404
1.45900627465978
1.75470946616097
1.58242432452417
1.53685677802756
1.44111542656311
1.57922471878248
1.50451313861351
1.60105065487772
1.40134080904452
1.51982797661804
1.48186902679913
1.50751855788286
1.45453736362248
1.54668978897231
1.5092134728542
2.01450226771159
1.4374016041935
1.55258990754398
1.3954377972152
1.42518336315945
1.46371729299004
1.54857148330641
1.47267162392752
1.57485692471466
1.40540124021398
1.48373159228228
1.43469538696842
1.62754033426219
1.42870831545411
1.54910893910332
1.49769618361704
1.71653524651013
1.4586790617864
1.44708667207872
1.65235987377333
1.7732402148434
1.39755462390693
1.54917735158291
1.56981201854558
1.5443895946763
1.57882933838455
1.68488044499477
1.59666664969654
1.50780050088353
1.41905123499433
1.67294040226937
1.4567008720293
1.51129487913996
1.5261106622407
1.4103357022745
1.37085110864906
1.40530339696519
1.5148206737529
1.62127665613861
1.38920817334663
1.55248737532989
1.50528358280468
1.5728742622116
1.45750068058848
1.55416765871355
1.5002402065662
1.49304821920353
1.40177149025725
1.52868029579412
1.55429103819961
1.59117541508467
1.44873210712103
1.56902319614589
1.32030628860789
1.63093972930562
1.43246934223158
1.6770287680845
1.48443017590226
1.50877167557029
1.41234794726064
1.44045747319983
1.37208823994492
1.44642662651239
1.43468218632552
1.4954748663522
1.48624269673266
1.51094075015054
1.42993704526707
1.62870185176666
1.2799301547336
1.55299029005951
1.4041577811721
1.51650917879012
1.36346726327697
1.39347978028131
1.37028381657643
1.38613179316141
1.29351565578703
1.38278540652118
1.54817635781322
1.40364200571297
1.37671760125823
1.31294569892066
1.29743105924767
1.36740235011662
1.38949004431764
1.33204628334791
1.28801244815362
1.40679812971082
1.34738176076095
1.38134118995141
1.35124594704694
1.37354195692544
1.27719362265255
1.41611146307772
1.3237338123761
1.37652571489538
1.33450311207395
1.37935017146079
1.27835086450198
1.28217214474045
1.2973784757731
1.46739769151379
1.36486647112238
1.34742693570406
1.20455222604985
1.39550348769937
1.21789225973626
1.3494761608449
1.19691904681118
1.3349503696567
1.2439886862822
1.27883214400733
1.17235791170784
1.38625320558471
1.2089984441669
1.27459150427564
1.21861739004011
1.29030426864886
1.25113774229919
1.17199169690941
1.18895827798102
1.24800801230891
1.19773577539078
1.21983969156989
1.18569664119736
1.27732456841968
1.21945061956261
1.27493497773017
1.11630967546988
1.2391464403231
1.16490902982465
1.20697114527045
1.15872008188538
1.18501503047804
1.13307088953557
1.19255324116165
1.13478761144894
1.14909296773115
1.10278621573822
1.177390139155
1.12246415957602
1.15397358620871
1.1018476011362
1.15542266296299
1.10809315858169
1.19477405397988
1.13116560939542
1.12398644172041
1.07266753867699
1.11778754348934
1.03082171986752
1.13590135128067
1.03436270971571
1.07339002928614
1.09590795148794
1.0413787328691
1.01863553116186
1.10238592149146
1.05962711172365
1.07252142050368
1.07173654790757
1.03389139853931
1.02517499023775
1.02955787867449
0.966030573110065
1.0123959194257
0.973296774642813
1.03902811382855
1.00036063619506
1.00258227288622
0.986691870756563
1.01159502162259
0.975810906298515
0.997234148321714
0.968430323535113
0.987508797909298
1.00965086627434
0.959557302658331
0.946535674454554
0.981475027657418
0.949548000224174
0.957146030172946
0.944319117846266
0.968148515755672
0.908469357499253
0.942603947473107
0.91189323273987
0.90525507816007
0.923460946126511
0.922777022063415
0.917790354401775
0.896746215583458
0.87662617158612
0.899759655820066
0.858934692627384
0.874673397768236
0.855713587194508
0.904468760894484
0.825316320893655
0.847470246572038
0.860044689377106
0.862472266615581
0.821906628615602
0.828174765735886
0.835009012263592
0.881215088022737
0.831257869487302
0.818221270353992
0.822477590802614
0.821444654474825
0.818028645275633
0.859630658616206
0.799478394191577
0.817790265496435
0.809175548862756
0.793412340889723
0.779846942090243
0.802459039430539
0.772938104334915
0.797982943553269
0.750247928862542
0.784291746873227
0.771651927965298
0.780929329136005
0.740792892701392
0.771341301722679
0.75892067394781
0.769717240334482
0.737175184907142
0.750197663285125
0.724355001889864
0.7338874616775
0.716699628735345
0.73688878690257
0.718430489119398
0.713740087042976
0.703988099155756
0.72420782485996
0.709148882135208
0.722010837234941
0.691726643140909
0.713380008387562
0.683970522822295
0.705364935835391
0.671418671095409
0.712171253521068
0.667443404956832
0.682153379240957
0.682223717504824
0.678893127104242
0.66251246023019
0.682656554486004
0.639103409206063
0.681500086483124
0.660121785553826
0.662846113308525
0.666826362042978
0.668551648625229
0.628356645111908
0.653292761423436
0.622495449076386
0.648905393178288
0.623842119034361
0.631039314379531
0.607413940412347
0.623097139987153
0.606819670827033
0.610276155056096
0.602945166091479
0.610564794584458
0.590260624834914
0.600172398568072
0.598165554970264
0.611365812991857
0.588804443384434
0.59620143600077
0.58716344171753
0.597484543309297
0.578029728378416
0.582204657409728
0.584424908159126
0.578288241027259
0.572219390607467
0.569500371653028
0.557736886489599
0.580655120603679
0.563141062060482
0.573295457504013
0.556024519121891
0.552682407473838
0.54373882598136
0.552945384834793
0.539449004726454
0.54391038408125
0.541453624451799
0.54557303786184
0.528397632138674
0.549344180971095
0.522267621952981
0.536046072728256
0.521785197495157
0.542314326019508
0.513578180268352
0.524258413421044
0.505843734862689
0.512627232738634
0.515498467696501
0.519310953370567
0.498204770189844
0.521660420266454
0.49425874972377
0.511018879533773
0.50199150953126
0.515517031683818
0.495489159123081
0.50424645860011
0.501223007152165
0.513386807093983
0.492753670637069
0.498994464593754
0.485947540301562
0.494683247007728
0.486168921441842
0.494499176709852
0.481946789016517
0.49415329562678
0.487972744429944
0.490177507588357
0.483172404869467
0.506807634873815
0.4897925259494
0.502692026418066
0.488517677825206
0.495620319685623
0.487196870629928
0.497805251975503
0.486647792090219
0.498322183203018
0.486083343607228
0.499534434838483
0.500836735714564
0.515065394570176
0.49376053217827
0.514287861332043
0.492082195371576
0.51313276689888
0.506946691564677
0.517436613332654
0.498757314247698
0.510825852026381
0.506333804855374
0.523198568551316
0.511797980991764
0.524258738240475
0.520238064100348
0.535228714753123
0.519984785634037
0.528640816467531
0.523370344428406
0.537445747637933
0.521677753123292
0.549614964451088
0.551435967664279
0.55060456524355
0.550170133306157
0.552532651077936
0.535530933429395
0.554971509883526
0.538625145123269
0.564270988189602
0.556390154112124
0.564557443456837
0.552291742177798
0.570668597157383
0.565749469475948
0.579155076911809
0.569016203754973
0.59354496007118
0.577289264839264
0.602084367300888
0.586418253555848
0.604371029333265
0.596537166938006
0.623868839362714
0.606649857455198
0.622885388080224
0.62053756638255
0.640228449555362
0.617129581711195
0.63542006683288
0.631303265805194
0.645189034563118
0.626418371867582
0.648012383016851
0.633660126817705
0.658965241016645
0.628032870052554
0.650275197199967
0.634520590202117
0.647378770458593
0.642437960116008
0.643282934776333
0.636579610707599
0.66457844027677
0.63692775774357
0.653855722893519
0.63995959477322
0.643959022467994
0.628761053324801
0.631754571869016
0.636385338964679
0.656191632069419
0.622743601455851
0.636869574350311
0.63385313555926
0.650385420420963
0.629191520013987
0.645882861306169
0.635744551830229
0.640692924454863
0.628845955348485
0.632912993903799
0.646141574228761
0.652025107834908
0.633868931906123
0.639876502230269
0.631693397915942
0.649928045397002
0.639285926993753
0.657851404662191
0.639713452263697
0.649766546189636
0.636578029896402
0.643026815729575
0.643152833915965
0.65289033856831
0.630051794960846
0.643005864928132
0.644058010268306
0.648409225726203
0.632545074303897
0.656344123645335
0.641060234972191
0.623923345415445
0.621240627593916
0.646266082516185
0.638654003851216
0.637127449925047
0.64222193598837
0.630380821357204
0.635847767855721
0.641380388272129
0.619317562416192
0.63471819038267
0.623638478826939
0.638842164103262
0.61525752155606
0.62554584956955
0.601266681153542
0.632787839280266
0.607906099355153
0.624161175575336
0.607163534770342
0.606686799715024
0.589075683485646
0.591477775102331
0.57608151846029
0.59908278628327
0.571519205353172
0.597364350962198
0.5597795095456
0.566938237843964
0.571005291154177
0.56461334074064
0.556213668710284
0.555187417519011
0.549176420941331
0.55798025141787
0.531557956801213
0.543916377004981
0.525158743556621
0.538363494868813
0.521629976237244
0.536007403981263
0.52072322727141
0.521098215227677
0.506886422122103
0.518188451055832
0.509094571755022
0.522204455121451
0.505391563681743
0.509145392754716
0.492839047675842
0.502897756961481
0.489401294336688
0.490038524641802
0.489012181578106
0.483741403228551
0.475831762671613
0.482269506542063
0.469590582509991
0.47513184881575
0.462073984123713
0.477426431595187
0.458184700844659
0.46674684433696
0.458724679720415
0.456067379384541
0.452285156453047
0.465364934957919
0.452641525338784
0.456854593408092
0.443088627750088
0.449970769657997
0.449859270320731
0.455986045548021
0.442657805644092
0.449342867899554
0.436524566189799
0.439654273849671
0.429729114026049
0.432070605361237
0.428950823816219
0.43532876582847
0.420699787855059
0.435571284338255
0.421465544076745
0.431778119488619
0.425231235253703
0.423525515170965
0.415387790426575
0.421141895702561
0.417872134352158
0.420358530033641
0.414113526992456
0.417507202879255
0.408580379592375
0.412404981813722
0.402567704967668
0.415891763697059
0.406075712649793
0.40609311359895
0.398131200411693
0.402379137099462
0.399237354712305
0.40735507997679
0.393391206776092
0.398357846007683
0.396414471500316
0.401764607380803
0.392402681705834
0.401847350150943
0.388499344807702
0.396749602379859
0.386540003605554
0.388485592552445
0.386521589579991
0.394132334117816
0.380413737448422
0.390208756705642
0.385048534968107
0.389175761489075
0.382157606553121
0.381183928686135
0.379008646335054
0.387692179505774
0.37733773349405
0.381980508042846
0.370647795356105
0.384003972849346
0.373851670932794
0.381657436720017
0.370971255600666
0.384399895273364
0.369910702139387
0.385596119666377
0.368438021953534
0.369965353851279
0.365992432408282
0.371514419755352
0.358393625263443
0.367862045940154
0.362672978227756
0.376549945097229
0.367394503199284
0.372292909924633
0.361338812862636
0.362766130999012
0.357322871556455
0.36464763775495
0.360995880051671
0.363024409463106
0.352473146809452
0.365659602579597
0.359697332150738
0.365695867979024
0.355676151554103
0.362511937419393
0.349276548156547
0.356967685058467
0.353893315858917
0.366191024383091
0.350082344409354
0.3564657482469
0.350909676059655
0.351539269308345
0.348072998603363
0.360181813143952
0.351395659549178
0.358172230254586
0.355604011016863
0.359583488146324
0.351217709703421
0.35960548977247
0.346471202459812
0.346847364327757
0.345650613162389
0.360199863331751
0.345183512487994
0.348480066800687
0.343945854836713
0.349501130102993
0.339726823578685
0.351019670394007
0.343973026743054
0.345810873209948
0.342339144432947
0.346152062481888
0.346627766624053
0.347390083271859
0.342429853949205
0.345569881538796
0.343286159124555
0.343175362219732
0.334627674100601
0.345333559233467
0.333054305507112
0.338099041586232
0.335820726668776
0.337330777974757
0.332656099856364
0.334963054495061
0.330260854080325
0.326347108932038
0.328282935925101
0.333953141629604
0.325692916148953
0.331225994720973
0.328292101982387
0.333086293674205
0.326795333706155
0.327085278184305
0.324947710076885
0.326871418140362
0.320637178192011
0.329535834620017
0.319971327332734
0.323858186771578
0.323353189338141
0.320517166072731
0.319912517020008
0.327082178914985
0.318463466928259
0.318451658658133
0.318661187627958
0.320877554032903
0.310197908488643
0.315390600399438
0.313226208997516
0.319184438552991
0.314598198261655
0.315796894148119
0.310836354013754
0.316101905512498
0.306584098185903
0.315107343463227
0.309067668187795
0.309802757811048
0.307279350898648
0.308697438015274
0.29978668181005
0.304837998935643
0.298982537648019
0.309959277294466
0.298713972521822
0.302443871034609
0.298306037686414
0.301308103608351
0.296089191570375
0.295440398115077
0.294363658270976
0.299571943917652
0.296249609915846
0.295851348779965
0.28927912849303
0.295427184575134
0.293758903656838
0.295685952129051
0.293197151419077
0.292408725715375
0.280829686552301
0.289809340940804
0.286053151052298
0.28759428852095
0.286383318769984
0.278989049784578
0.279475908896157
0.285063931433666
0.279197643267398
0.282223025851153
0.277795351669001
0.281452126484712
0.273363402998615
0.280201298794417
0.271983629168443
0.278595804720146
0.275351788919671
0.273055524426292
0.269955516151766
0.273519331133638
0.268291839762303
0.270180356578756
0.2651229131523
0.270918148768253
0.265973645652631
0.267422099711396
0.264510300982757
0.267843930667848
0.263360084003105
0.269034563290338
0.259512827247728
0.264887098415331
0.260949478672109
0.263062363488362
0.263457182455982
0.260645661870652
0.25397370704851
0.256921300308936
0.258252353908572
0.259803807159645
0.253489385146589
0.259700580746131
0.253402200591253
0.25710198737885
0.256652186782058
0.256301958539204
0.246181269532755
0.253965062249476
0.250332081735477
0.248856839442654
0.246943315968263
0.253921321882109
0.248860901365755
0.251467231157926
0.245543665418935
0.251020936741303
0.247415272803776
0.245960245438387
0.240971850872305
0.244800302624811
0.247411549512852
0.250270343730225
0.240322698770705
0.247356515111015
0.241619282266407
0.242519785528511
0.240669690826921
0.236416343090897
0.232916353372493
0.240901699041361
0.238646219559343
0.243057862883313
0.235803807548399
0.236539250278473
0.231589521831008
0.239434994474687
0.234766458943044
0.234534078186488
0.237210419230401
0.237655938634332
0.233444773616956
0.236658983104361
0.233888560186407
0.235654674487556
0.228115939971759
0.229094777342016
0.229808349996863
0.235470203701887
0.232180036846787
0.232936079759523
0.228356594919591
0.231782875199015
0.229968278049939
0.231547914116224
0.227665146399799
0.229004295276008
0.224063277657281
0.230648443710011
0.229593081227793
0.231454464375972
0.22806588314596
0.228742537678964
0.228026213600037
0.230181053939586
0.224128706891824
0.229492387235568
0.225383269672754
0.22283060394425
0.225310996007519
0.223981551846456
0.22073250390004
0.22365387536082
0.220810006706056
0.223439247231267
0.22555229520635
0.223340072743009
0.21644964569973
0.221167302415748
0.216568343144395
0.222264418849886
0.218876277807766
0.222372593653491
0.217082359615778
0.215753104223738
0.216792275498705
0.221332751837677
0.220779107960235
0.218342911050374
0.215185860479098
0.218694364983334
0.2142971749552
0.215569217083141
0.21289719226275
0.215666736515638
0.211607123767565
0.215841109554828
0.212549807334808
0.211698534274139
0.212471416320703
0.211693913976384
0.211578862228226
0.216329292265246
0.211474732887331
0.212602674224003
0.210085499614302
0.215699148957866
0.20849095606955
0.210364552313324
0.207330909869148
0.209690723126733
0.208707822971481
0.211364309107756
0.20842061712292
0.209568343368388
0.207152010629032
0.208063938143608
0.202850507609703
0.204977247855728
0.204934274725184
0.209193302786705
0.204926675062259
0.209382150797294
0.203570155460312
0.203571514120226
0.203872562775626
0.206949475555325
0.203063109369211
0.203023906104031
0.199432657029553
0.200605297789479
0.19737851646931
0.20437837694795
0.19992987294737
0.199249739197969
0.198545538537789
0.200148426192492
0.196332041962265
0.195755977201846
0.192696986298919
0.1930452454588
0.192512406930518
0.194156860654911
0.191725005391198
0.192838980944654
0.189784183443898
0.194542906565092
0.190340958747346
0.18973218975193
0.189031780133519
0.191910584188327
0.189319375729349
0.190751576652327
0.187200568352534
0.188227729704781
0.185303671277601
0.186837696903095
0.185535659970435
0.184053750280636
0.181236961936229
0.185942055472161
0.181967992865015
0.181950801438465
0.182636725049979
0.184618365049904
0.179609889437474
0.179109150412378
0.17976427433423
0.180183409605787
0.175817869798505
0.178771404186793
0.174038238705898
0.178990328244855
0.175137099199327
0.176308939758051
0.175233204888622
0.176463360028529
0.17430446424068
0.175798595646974
0.174376555093274
0.175005641758233
0.170022631044091
0.173755688251452
0.170533335288555
0.172061440951227
0.171144858558409
0.174168727793985
0.167749997648096
0.169669838744584
0.16528459137692
0.165633591929328
0.16674311041908
0.166959109201772
0.165412571648413
0.169575201702099
0.16499059145212
0.167810012455607
0.162737614916035
0.164769637968896
0.16427113378791
0.164546127568758
0.162277107800461
0.162308535980441
0.163092728415538
0.16251655931073
0.154964190015471
0.160705709889729
0.161747580272236
0.159795019837771
0.153701939885769
0.157602990813234
0.15680701436559
0.157532307546616
0.154151865662727
0.159599128878245
0.157498204295209
0.15617288960878
0.149847171626371
0.152995708103826
0.152669644153427
0.153435897246322
0.153921710986312
0.154386640877623
0.151146112139362
0.153817755551469
0.147031820525963
0.149763756988402
0.150398669171467
0.151864161041263
0.145943645383737
0.147546566913693
0.146810928516562
0.150581556120613
0.147580489498789
0.146797185920104
0.144608411863961
0.148462380332723
0.143681466934391
0.147658681838668
0.144480192156452
0.148500879699629
0.146890172188408
0.146215360932624
0.145470983065841
0.151335732893746
0.144159907617789
0.148469442518024
0.149599073677209
0.145616330176938
0.145153251055602
0.147363679234578
0.141859326830073
0.145338167999911
0.142342439865004
0.142926889164779
0.136205423693599
0.142795882932901
0.14316051319028
0.149354604135156
0.147831789457877
0.144230763336848
0.132223913258385
0.141056832201797
0.140532753462607
0.142769628340823
0.136216852185423
0.148635665585253
0.136325299370342
0.139939744980664
0.14089322769371
0.138426663787421
0.139572954996843
0.147340359633766
0.131888477105036
0.13989200097301
0.132110291148607
0.143054051427964
0.141288838219572
0.140128462395465
0.131140227944319
0.137854557498307
0.129046496395727
0.138208802418234
0.135771000890475
0.143149343997992
0.131699456615645
0.141917094392222
0.130772956972792
0.146193727454144
0.131722254362208
0.141889306969276
0.127498475246308
0.141463067098479
0.124866594571183
0.142043283368949
0.13266474687737
0.146512496266444
0.136245756378901
0.144937884294051
0.127830053514329
0.136800998336591
0.126125166453268
0.145077634999472
0.133171789271653
0.133710413765262
0.119330030412254
0.138491031779486
0.138375333887183
0.130110480411565
0.125730053024608
0.131807895627809
0.13908189339529
0.12937887521535
0.132382568570891
0.12687165027822
0.134560691478019
0.119018403815631
0.139188042176807
0.12613179216376
0.136448706194774
0.125379667610421
0.135325869781989
0.122693580897634
0.130766031450506
0.124665305902746
0.129878299475729
0.124082757012207
0.126502235965867
0.124432752732303
0.127432067199528
0.126864984610394
0.127626701615453
0.124965931754023
0.126100237463432
0.123549356926668
0.124871988511471
0.1230625694722
0.125201107570823
0.124144104202322
0.12705586425823
0.122979188426155
0.123669656293282
0.119770849176384
0.12487185041601
0.123554682549817
0.125200484838136
0.124400994632094
0.125473661004282
0.123783272185427
0.126423726276823
0.122449606562803
0.125119592575003
0.123145463062347
0.122419950626625
0.121393975147403
0.123873066757192
0.12235930920332
0.123325589355233
0.122395195891565
0.123456268943103
0.122504012893134
0.125752345828591
0.125434186676249
0.125054809274634
0.122879348763706
0.124821954976973
0.122752752980761
0.123955897089726
0.123954522220333
0.122896051766683
0.120303159612131
0.127313379626382
0.123418800592016
0.127167540169449
0.122830302390544
0.122326778999395
0.121038133675052
0.122086824961542
0.122590132316391
0.12422446413688
0.123805809452773
0.124286196615513
0.121697982553959
0.122422106647945
0.122110333197564
0.123482345468089
0.121154027231475
0.123843915685771
0.120826627653909
0.123321328928826
0.122318646612857
0.124230178153559
0.123954939120147
0.123802146429906
0.123204339078083
0.125280456158081
0.122289019936689
0.124081673421055
0.124603814527701
0.124014033150107
0.121841497465507
0.123460196609802
0.12097996340214
0.12113554709337
0.124013276239508
0.124148700249563
0.122443693590188
0.125408243226975
0.123053311603373
0.123052170496656
0.123293009570758
0.124973681229129
0.124084297291697
0.124777335510148
0.122362098035807
0.123922562797475
0.124219920965496
0.122691816270609
0.122213896005893
0.124913697343254
0.122365225780273
0.126222157274648
0.124147416715748
0.123389640583338
0.126401496239897
0.128323538965477
0.12590848064077
0.125976485437544
0.125705868529329
0.124830703970666
0.124678947781015
0.12940495594231
0.124633294654532
0.125852968116656
0.12641951394055
0.125485409845483
0.127661431529989
0.126002498793602
0.123186587420695
0.12634777778988
0.125795597905267
0.128174163953594
0.129670991416992
0.126381600334906
0.127667970827859
0.128041804134794
0.127231412941982
0.129817175580277
0.124454083198018
0.125117506031362
0.128808824792592
0.12366707258826
0.125172465187018
0.126394819876068
0.124114938787828
0.128799886073626
0.126368642369388
0.126139218755873
0.126098330799463
0.12658036171917
0.127310650730023
0.126211520582285
0.127951443896019
0.130120004315815
0.128425906969491
0.12996636354591
0.129146791593772
0.129496597795937
0.129757491047291
0.127630459982631
0.126350134420618
0.128559598104636
0.129033994781959
0.128460491934091
0.127129442662729
0.129547355662335
0.12923677967805
0.131788755892923
0.129056917877824
0.130833286479065
0.133329618642436
0.132449278365038
0.131475286201542
0.134301209372943
0.129115902953027
0.12926931734685
0.130989805639982
0.131760894146372
0.130912690326077
0.13089177039908
0.130784385561291
0.132259190196131
0.13229321153562
0.133778416304306
0.129846808232842
0.12921970122394
0.131579337705053
0.134379428657873
0.129946743932612
0.13204996553251
0.129206016231866
0.130825172213591
0.130296953443023
0.131245893760436
0.126950562820989
0.127717330159558
0.129708360877183
0.12931262451665
0.128119042532881
0.128728541311324
0.12895408777616
0.130362694492801
0.128215398999996
0.127696428645937
0.127453641411556
0.126840055655945
0.127476129643362
0.12836347655217
0.124689901835452
0.125689870446051
0.124052481588063
0.124941745479434
0.124653974768627
0.125103269661526
0.125874257072481
0.123885156200005
0.120529707558641
0.124568499457032
0.125036913204223
0.124396618959248
0.124818576754277
0.124457879279398
0.121481560638611
0.125041681349319
0.124355543032022
0.123674319682212
0.123641298753373
0.12112826610185
0.121668863113384
0.123804873913476
0.123908622416195
0.125695338315177
0.122331190832174
0.121383449656122
0.12048733945575
0.122179032807503
0.120142487659292
0.121821062034511
0.12154262071858
0.120906736700779
0.118061111718926
0.120896772344337
0.11907071507246
0.119219038834174
0.116950585487101
0.120421607093217
0.122217323993673
0.120013827981897
0.116503491626027
0.119010827000774
0.117439136271831
0.120863977293954
0.121393472989497
0.119651943256565
0.116196310883321
0.11758416109883
0.118095675880116
0.118741876729261
0.11679179919339
0.118134106673396
0.117324219513362
0.11912854128336
0.118672671120222
0.119573959050501
0.115551892981631
0.118369203901162
0.11807569272896
0.117666742270328
0.116148134917451
0.115272583135721
0.113506099753045
0.116375765217906
0.115546830312162
0.116429760332093
0.115214270054838
0.117557719367222
0.117880730966949
0.116114260521911
0.114714629066158
0.114761880459335
0.112888284091661
0.117048412807756
0.112719047851922
0.115927712960391
0.113224307564691
0.11551275770632
0.113449752668399
0.111896983448294
0.10794639380815
0.113083258191501
0.112413659279656
0.113129700386137
0.113339764989627
0.112685188048284
0.111452849711078
0.116321518265385
0.113196875704384
0.11372524058633
0.110921123631261
0.109607830760382
0.110771459447736
0.111459549118143
0.11176245547806
0.112984806502065
0.109531912217162
0.111649649629499
0.110023966651427
0.111206394626601
0.108924064722717
0.110801617953764
0.109636403410231
0.109492924851266
0.107453523089486
0.109291805429394
0.10442886140708
0.106933152057298
0.106315343574295
0.10849172864299
0.106582279091011
0.107511857582294
0.103505664034257
0.105318027464984
0.102312648890608
0.10468319280528
0.103467995263682
0.105854621205186
0.10393828764016
0.105399848455992
0.103001410323895
0.0996333572638958
0.100155808633815
0.10125934633324
0.10021664272329
0.100082801986263
0.098716939626468
0.101001907396768
0.0989612087015522
0.0989902873262407
0.0983149166371474
0.0997741473051257
0.0998039765550907
0.0969726823161993
0.0952164949776598
0.0967951259121565
0.0949540658137839
0.0955571781520701
0.0961273186076892
0.0953532877257298
0.0944488426094416
0.0973910156317178
0.0956144584008995
0.0909619249424471
0.097457662298148
0.0993428747646202
0.0948227890828572
0.0971104228402156
0.0954604125749714
0.0937466825935331
0.0927711081718445
0.0947518755375006
0.0921786392077801
0.0930509861771612
0.0933663571985319
0.0960766238317235
0.0897872206532542
0.0922830741211956
0.0926836494845048
0.0947133588106341
0.0903156788943696
0.0899603193495179
0.0930974519097731
0.0910968834533424
0.0901711381374414
0.0931432870590815
0.092616934728013
0.0918819285514958
0.0924108157118503
0.0907645055562895
0.0881543969768547
0.0940590709400488
0.089414733869754
0.0926789554563334
0.0875836602023599
0.0908967540980011
0.0866671451744879
0.0902634993173297
0.0880020573425947
0.0895868738655048
0.0877050459714986
0.0909027791879244
0.0881069779978087
0.0878900244079919
0.0885655845732181
0.087276617405636
0.084133867345572
0.0896097057320254
0.083946265300212
0.0870178854805254
0.0847576207365692
0.087054881281216
0.0858498092555124
0.0876852830175622
0.0812174440026662
0.0891749192562139
0.0800192672340544
0.0890663807413175
0.0881702379803931
0.0893617276697427
0.0824673274031882
0.0821840206800045
0.0858916473632826
0.0857063495030164
0.0809642780430364
0.0827017360600173
0.0829119648747294
0.084947549344318
0.0862212490421882
0.0818199125358815
0.0833480051090305
0.0840590596652289
0.0819818658529697
0.0822567172736446
0.0811822032855191
0.0827116427595103
0.0833568770438749
0.0796944454205256
0.0832298034403036
0.0913724459798381
0.0819094131871779
0.0866050883000592
0.0828049247751189
0.0787383761968412
0.0941745859518923
0.0836721309270524
0.0870050686898046
0.0806811506376934
0.0846180806478167
0.0804762280893592
0.085196767971194
0.0819065405760274
0.0841207873186143
0.0834698510976325
0.0843152823814708
0.0853319917308
0.0833206526436193
0.0836814102861097
0.0831624271684031
0.0819265845392838
0.082295959894849
0.0851159293883681
0.0823431242496569
0.0794526343250049
0.0800167592648429
0.0807191609622998
0.0845348875942862
0.0770786351100707
0.0836201083767465
0.0841524091172432
0.0825627423344762
0.0813630760923696
0.084788565208312
0.0775732531518113
0.0828191492483125
0.0883648102136509
0.0832283325946499
0.0839057666901014
0.0809697230671123
0.0836981577296899
0.0807755535397774
0.0834040818357016
0.0767404412862885
0.0812197738300898
0.081327460991779
0.084096791019651
0.079674404112215
0.0830086548892679
0.0798976784319973
0.085082717491307
0.0809602817908995
0.0832114844446935
0.0810892120361605
0.0807377039433664
0.0820283200023881
0.0761356624447193
0.0853313417970641
0.0893744581911343
0.090488137683202
0.0825536605322242
0.0863422612265847
0.0813767162986587
0.0812760164786041
0.080962819371037
0.0835266445179856
0.0824927384434771
0.0819605483918337
0.0833338301828616
0.0817700361417269
0.0849776503601478
0.0819990767345172
0.079261921508017
0.0808979687059284
0.0831803173331831
0.0809870622394057
0.0828408873913035
0.0791237111759926
0.0848098738687203
0.0781914327576006
0.0888289754264328
0.078854102562092
0.0918673942746556
0.0648974526663299
0.108136699495905
0.0877004873276324
0.0897059597167803
0.0837146053638545
0.0857967991688076
0.0806467021230615
0.0848804447618898
0.0819265448710974
0.0871324906127802
0.0810237241840273
0.0841177728122669
0.0813823975707497
0.0868467869881667
0.0858055036787759
0.0793337181664703
0.0850670708426971
0.0968251772117412
0.0858729763287684
0.0937472877334682
0.0759457197764391
0.0920578415549208
0.0940274671097003
0.086383328372599
0.0920042183219023
0.0877974279495181
0.086436900778638
0.084807438021859
0.0881549056034875
0.0833107507107009
0.0868533812800288
0.0866788838409865
0.0895239513103141
0.0855579032192848
0.0844663225824044
0.0928762092213547
0.0859786477146509
0.0978790444899881
0.0933239043596157
0.0872785734568352
0.0938058760661188
0.0869541711541473
0.0888701810875337
0.0890484529690759
0.0916435140341218
0.0864083632475903
0.0949161342226537
0.0997387993492239
0.0880480399873994
0.100619791850524
0.0983211952144742
0.0909612551451872
0.0942360152942384
0.090056908706039
0.106741708445514
0.0799027088343834
0.1057074828836
0.100265238295024
0.106144107685822
0.105584114720206
0.0921035683210615
0.09899334001734
0.0922289537357798
0.0983383665397487
0.0895334734774069
0.119038509096867
0.0860114420632273
0.111338477975059
0.0815504246624474
0.114001194282161
0.0990316364088302
0.107103252565942
0.096211404614782
0.104275929007349
0.0938025018798101
0.115737568568134
0.0933592125211612
0.0941617991451956
0.108440308331443
0.115583654356925
0.123751862121367
0.100577477113194
0.0931245839872577
0.12463621448266
0.104485448148148
0.112950306794282
0.0946756625846879
0.114045142567113
0.0958265789249525
0.110823943888449
0.120301945895172
0.107541657253667
0.109881932900414
0.111518013724146
0.0969947719607916
0.12136048108108
0.111756985019957
0.115438613566622
0.107987470943493
0.120086213324445
0.0928543516253534
0.167188180369325
0.108480242152154
0.13827408785987
0.119897253733271
0.136266136442156
0.121579870824056
0.125368861955711
0.118216991934323
0.131389863095391
0.129446682886051
0.133182847624441
0.111633783934499
0.143554235747978
0.139939417260437
0.128528792890652
0.140608129329479
0.127174289158538
0.118847453009168
0.155171312133557
0.156826587705369
0.162864162516461
0.140208134297322
0.143802019746287
0.16222729507441
0.148041744560378
0.14783994829675
0.146821549004248
0.149305277926387
0.155898142057163
0.143983100188017
0.164745542955956
0.151191441994427
0.166439555272889
0.152045300662025
0.163099274320794
0.150792485767917
0.196881356992069
0.188610011990964
0.159594237836964
0.199975779736341
0.180831299506707
0.18621728449885
0.170017311882605
0.174159202495098
0.184578844444354
0.180718203850829
0.187710538085989
0.17163882118175
0.205026381862925
0.189637713592399
0.203246373161197
0.207890262458516
0.202368115783588
0.201166665172359
0.171123508512485
0.349072926937356
0.20982358987479
0.246517859463896
0.207560147198458
0.234333415884468
0.282088512450167
0.253328786161254
0.252249339059484
0.261395193399774
0.252726721620542
0.270797690281173
0.27200449940509
0.28383160493803
0.294398239761389
0.303598378919367
0.286874985437035
0.316262571174129
0.340835233220937
0.368592913339335
0.34294349667964
0.33843016985778
0.354049043202775
0.370241278123414
0.358728595530009
0.384121130317213
0.367389695564404
0.390362753674416
0.439964329475973
0.41252294890325
0.421426769657023
0.414245602543128
0.468709679703976
0.405738888583591
0.51119348991233
0.469407293533021
0.487902617324426
0.469008034204692
0.497013527016903
0.487080884132732
0.488590709419129
0.522400623860096
0.536394687873601
0.526722870528224
0.533716421494719
0.533388115681268
0.55155255854176
0.552608601484059
0.563045733039469
0.546369831689032
0.600540993287228
0.551895553958937
0.777795719708136
0.597938670010096
0.596923851255167
0.575835229521681
0.594401110609756
0.619899256058057
0.590604238460931
0.637720244969455
0.631706170891969
0.598123126137957
0.611122203373629
0.592833429324961
0.615627043537703
0.598224614871508
0.63199186192175
0.583681813460402
0.657523625239268
0.585985483683287
0.678093635075326
0.643489676902668
0.629627388022704
0.607970213483342
0.62263935387553
0.60515926666023
0.614800220947322
0.600369688726578
0.608275297027126
0.613312454774676
0.593861068014609
0.614852722641608
0.582673069618134
0.611357521298943
0.616500602449552
0.569212671262309
0.581213325633037
0.552364114519104
0.580254578701355
0.537078620457628
0.587327708679973
0.617937271247558
0.552773976396358
0.547089399932742
0.54070972718162
0.541069901483667
0.539506991884788
0.534961021543043
0.539088005308811
0.529019284150488
0.524978548856881
0.539929075020848
0.517892049510674
0.522898458300517
0.521307015829039
0.520136863695569
0.524074360611646
0.510873354086992
0.515700628936576
0.518354942972984
0.51581044130983
0.51488577812928
0.514511831868376
0.509726948678675
0.512805211252287
0.52319450505187
0.516297201431251
0.510842374525842
0.51369692244097
0.510647297208898
0.516763965784186
0.508490523022446
0.51158447029517
0.507326502118991
0.507006158432064
0.506117055371496
0.506581026446703
0.508571474337619
0.501577571825194
0.506098845378363
0.506619425636345
0.501047950578084
0.513976117977761
0.465927854857709
0.57977637277539
0.511413532152752
0.503720143080031
0.493436879325471
0.493601233336303
0.489432670677928
0.456944031336491
0.526420089761879
0.501795355415021
0.482890657212395
0.47898698402289
0.461448010066115
0.485055432051079
0.478760700581547
0.454074344304617
0.479977989083363
0.418775868118898
0.505550260624926
0.466185660272178
0.511076295028562
0.517058120662833
0.464397960105372
0.439449688965922
0.440571292507671
0.479208956239633
0.429340453805921
0.457641067718467
0.414290803643864
0.483445812435579
0.439318318523468
0.434527885106964
0.43112200482826
0.414386924848604
0.436088791033981
0.461193122940831
0.417157777620265
0.435568701051053
0.442015464043607
0.419476820904445
0.447768036692598
0.455968616062262
0.430835515385159
0.391747167177858
0.400250599402144
0.390297703128006
0.368521593453495
0.452214028667521
0.382467895182493
0.410077652748129
0.374315794644883
0.382206522085015
0.372106449282682
0.391619849070151
0.367946551581302
0.359521333876152
0.408823363130609
0.3439625393531
0.386879285932727
0.35041382763246
0.392360904058088
0.382624833309039
0.371537958232087
0.334781328862537
0.372738228469155
0.37707927157887
0.343116588983656
0.369887569741731
0.330619129951324
0.332431869977964
0.355303451283524
0.325946402299266
0.346337729608972
0.339775341447661
0.324476881734152
0.362046736782607
0.343964191092274
0.374595866501274
0.330537578516853
0.316779222041573
0.320919470079297
0.311555411237429
0.331658440974289
0.295490231221282
0.3588648451031
0.319140992847995
0.294368720177236
0.369919293694643
0.320772493043135
0.32566435399604
0.328228809944479
0.322292678918587
0.325092555799095
0.33681761296499
0.363324231188383
0.347154220877686
0.356975065302536
0.368088516558792
0.34616054120962
0.359381788927717
0.349740637280919
0.365640614992496
0.359800450585579
0.383617543632427
0.375806060743585
0.387536908154248
0.393088971243842
0.387142439435206
0.411810493692301
0.446629055308571
0.390443363271126
0.473558427947837
0.401129946755659
0.50025070161962
0.458589896084559
0.461410593074678
0.45938215352839
0.462777753675484
0.483405743673472
0.485285713164006
0.48297090140675
0.545538317675611
0.486926870971194
0.519207441868002
0.497386029024248
0.531713902265299
0.499860233217812
0.565851685193625
0.498847047972318
0.613486071669528
0.576537414702814
0.565464998909029
0.549202217169933
0.534393369500657
0.567888840449803
0.567228675814703
0.562010719287704
0.563355099324948
0.550151561765755
0.604225428607041
0.564842940825885
0.579822137790252
0.572606727757578
0.582580211647437
0.575670251215072
0.589780278364167
0.581825380578005
0.59390337998423
0.601535003464225
0.608406562665528
0.576753458519254
0.699083228463203
0.612655474350318
0.632448749743983
0.614575884136045
0.637386246900936
0.626282209096434
0.63451926325727
0.652498166714969
0.65763552911954
0.656053738047185
0.67068855880697
0.654116912778794
0.666458942902425
0.641244895251099
0.699645549728227
0.653470331464627
0.711721613303542
0.655794592083592
0.724379124712959
0.732202308735262
0.690059288023517
0.723371867256534
0.704927206786097
0.708504586778903
0.694966718936488
0.706242992215037
0.714579787789808
0.70933286672831
0.717295455296815
0.729709371534564
0.712603373735621
0.713894625663748
0.718069284064333
0.710075971172199
0.742931006807967
0.728236964649348
0.731031136917852
0.705025213849251
0.728890954041004
0.69814852592693
0.744787535155869
0.721837511782097
0.710596889785969
0.721559482616828
0.711114918827525
0.730749420365136
0.725575784482806
0.706875060270201
0.722535489269736
0.718269245754728
0.727303376949387
0.710810054800324
0.72604046661193
0.748517530064715
0.723359427318994
0.735118143978188
0.733518160634625
0.730197863588785
0.746098791555786
0.738850014582075
0.748172476705321
0.749669116630918
0.745469019113851
0.759811094316643
0.74790112170725
0.752631238034332
0.767225802805356
0.765801187211577
0.765003146946679
0.746151926397359
0.756790417610718
0.748229159553977
0.75524422690138
0.753030819404059
0.750944766567198
0.732804862955056
0.738926444795696
0.723279390097229
0.706787456194023
0.752540214677055
0.711166583226419
0.728554955265948
0.709589936743038
0.699420705078072
0.704359118095196
0.698615962513563
0.68672938866829
0.678231527619993
0.68828437276248
0.68044825800361
0.675742436427538
0.670615465608878
0.6733818223638
0.667778170407788
0.668399556004963
0.664289415545484
0.658046615206561
0.667952140869419
0.662276611422067
0.664727389324368
0.659999591038392
0.66969232001824
0.657495856610177
0.660246522803856
0.659228820211034
0.6682678573305
0.658444470585289
0.665643071962049
0.670841068867361
0.657906704466981
0.664760326092314
0.650873233252991
0.651881110993759
0.649159053448238
0.655742718061348
0.65240287365552
0.657414894559347
0.653866249785931
0.660630555903205
0.655956167618246
0.65420616816465
0.652829924413104
0.656512259677761
0.647583126365005
0.654637462437676
0.652498269846493
0.654769123185818
0.653738693892109
0.656714157997731
0.653033768948557
0.648896323219819
0.650111034530188
0.653360337923132
0.65268372161184
0.657555479577909
0.654137529667835
0.651560158044239
0.644599401638698
0.648638570807809
0.651319015639128
0.642132305314336
0.65043731007278
0.645685372924445
0.637849352514101
0.646427829431374
0.639462717214593
0.635414136353273
0.635405094794432
0.631059987953796
0.621255317675084
0.617086773873897
0.616008511279531
0.611143636581373
0.600596195925905
0.59371812051257
0.591456671582744
0.59503293047821
0.587864645823607
0.58437927409505
0.578045236097203
0.573308354203197
0.570662906536667
0.577091237849315
0.573688630043213
0.571856231128702
0.570817687190018
0.569189649765018
0.568495963515486
0.571021390197619
0.571325054961746
0.566723636342924
0.573716205592121
0.572986239460791
0.572751349954663
0.57699320119188
0.5764810385833
0.579597219518148
0.578912060321448
0.573663495644225
0.582046186130581
0.581984465020862
0.590591632012761
0.591973420112274
0.594648292473985
0.598805383894473
0.596823639632321
0.594291265327901
0.599216360983372
0.599374935680399
0.602325588812194
0.60260129675588
0.603331730984649
0.598863804828945
0.606744593875189
0.604480224250529
0.60056506913135
0.603984575215413
0.604351455253835
0.600122215596376
0.59176086223259
0.599632863782409
0.595202937540949
0.590358421256972
0.590084488850639
0.592073497931546
0.592324087100304
0.587514031957698
0.585332727739733
0.585275237307596
0.579389877110651
0.578553280824318
0.572415523589095
0.573999585305091
0.571043553362929
0.574792985508632
0.568477378002779
0.571268355741906
0.56182433286913
0.564712052893812
0.558722114641662
0.564136072527743
0.564381791219428
0.558812241591893
0.555090828196383
0.556546593912812
0.550275217184764
0.551367577632114
0.555583635729214
0.546155460468382
0.547093345904392
0.54369306998383
0.542141795122266
0.543765100552617
0.537491450706391
0.535157834107855
0.530725771073065
0.525130659772187
0.524568082229152
0.523723539084621
0.517673953730424
0.513744348906998
0.508283228581234
0.503982706406785
0.501113570047794
0.497671275391507
0.496980309057969
0.494457368996657
0.491012969120961
0.487758959971102
0.488802264807241
0.488649390116044
0.485863554593127
0.483732590701305
0.480855878281996
0.479145575577177
0.477963493808717
0.473448329359377
0.471331614316447
0.471354368281449
0.467477063234573
0.458263182411145
0.454569625064234
0.447798588847853
0.445569651514189
0.441413969679191
0.432364342220382
0.427341104609608
0.421995627591442
0.422522988734869
0.418404682954568
0.419125834985329
0.421710625716891
0.426798997407134
0.430261920264122
0.439733382407282
0.447994424953031
0.456461155583204
0.469296328770864
0.48148025105298
0.501063765450147
0.515715462129982
0.530460643162221
0.552435168579952
0.56822915277415
0.592016754878407
0.608268400774204
0.626744448640906
0.645779839585392
0.665804747111969
0.683320458466372
0.695898290665609
0.722359067071601
0.736240219783618
0.753329300466919
0.776289897065778
0.783590005727445
0.793715349460643
0.825808674538374
0.834838965177857
0.835177688450864
0.845197429254787
0.861062641051131
0.874866486205396
0.893076233288122
0.894500788299007
0.884716945887064
0.897836673737781
0.908475487584202
0.90632057583895
0.92006801921316
0.921519117468742
0.920259290498042
0.92416673646262
0.923671199741128
0.931242390897247
0.918276141748712
0.926799660113387
0.929878092916324
0.927576874353379
0.932832986112702
0.933069555889231
0.936434790532169
0.951247937863832
0.948541132924721
0.952835378121744
0.963817791520197
0.963233041503118
0.974600282783251
0.986043596561075
0.996786217392929
1.00866349044688
1.00936013972464
1.01171353794854
1.02841312515138
1.03465001854087
1.05784618448486
1.08139275727591
1.07651261728257
1.09198610347962
1.13084444261798
1.13313137675969
1.12935814079166
1.14434200420394
1.15009414009804
1.1530417013558
1.15788346120368
1.16443361916972
1.18511993127721
1.17286351261207
1.15550993944117
1.15785682637808
1.16967680626967
1.15394989123557
1.13830452056875
1.1310019990424
1.12542954005129
1.14634873631565
1.16359243700019
1.16620846339596
1.17890054500817
1.17953379645214
1.1966398238489
1.20261642954195
1.23789284757452
1.23654027445596
1.2787542713497
1.29793665159887
1.32632521956978
1.29528789775202
1.33072026513625
1.34191008643629
1.35696146663026
1.4015269981627
1.40858118470641
1.42041295722896
1.4401938887269
1.44095551501964
1.47421198895596
1.48921876480426
1.55015533608916
1.53391684712471
1.53196220988215
1.58264590792345
1.60723131802958
1.66194274296604
1.72864084557415
1.74482021898716
1.74602209447074
1.69838964369807
1.77527806186646
1.7617735448341
1.80739529968706
1.75578135332035
1.90071140824421
1.89284544047786
1.91502524485652
1.86398358301667
1.85385444117105
1.8300286411007
1.81516360982725
2.02244569933304
1.90070069140522
1.79168099550983
1.88987329377064
1.83860691531869
1.8632900674679
1.77269707371183
1.90447957770171
1.89237563984391
1.90675513955581
1.85797055653768
2.02861687639422
1.94594644180179
1.95955284998785
1.93943177076583
1.97099212030368
2.02853988733
1.88424110654981
1.98179076935231
2.0624322268996
1.93682339793987
1.9988553299446
2.05309687419459
2.27096177379211
2.05189818196831
1.97982432909245
2.1251694578094
2.17662287286293
2.0279781054955
2.46791492532929
2.22460012945913
2.02513744401758
2.20603333190704
2.42467498716779
2.18486551326178
2.30201272916429
2.2047161221861
2.259569074032
1.9984050484805
2.16341265655894
2.31232589483449
2.12435549170534
2.0193119097453
2.15877680676141
2.13147360334675
2.33394847508688
2.23230389400184
2.24573402532725
2.25672281734872
2.18138755803267
2.46166398747079
2.38725680465374
2.14059498176108
2.21390576830635
2.28628428887946
2.22429507583982
2.12028123768455
2.18216708733827
1.99925669394029
2.15479274087319
2.04247203761738
1.93545737236424
1.95069171648061
1.97667514444862
1.83435687835059
1.82989681333933
1.86322998957587
1.85470680367464
1.66386630736378
1.75301305271633
1.77058030224209
1.70577759746746
1.76773446651731
1.73104430161534
1.6594745231029
1.70716685595287
1.63807625141537
1.69942900667655
1.57134366052815
1.66829097740641
1.61913316717335
1.72810206576057
1.60007226050142
1.57787639951691
1.5328416220269
1.53437482553931
1.52232900931339
1.57900483916692
1.4969221175201
1.43899820498321
1.45095083153844
1.42998287647472
1.30752049509111
1.27703980982922
1.23284385559725
1.21172736416478
1.12907756308084
1.12218552436323
1.06880296235048
1.01589799729748
0.995757241562846
0.95868812984307
0.920203491372531
0.883564753787683
0.853644276304527
0.835528382999746
0.800495296102034
0.790721617216133
0.772450900611351
0.745408791622671
0.724757373086189
0.717597676490183
0.703008446047476
0.705161032125897
0.691690981469166
0.683897742557525
0.683199192036399
0.67448977104459
0.668366358396541
0.667119670703905
0.664482525267398
0.656407217743139
0.659895607430018
0.667756174913242
0.668980413562019
0.678458753102452
0.671527834374779
0.67373465397492
0.663047332075808
0.661050157203153
0.650615938154124
0.650343833175305
0.651141181019977
0.640896022400991
0.63508333160016
0.641617149752036
0.624624702853142
0.622784990812897
0.618815885402014
0.612849037159924
0.610829814964323
0.618491486331334
0.603972446397646
0.601605482304241
0.612135779243055
0.622912439282835
0.62325693928336
0.619537624761383
0.61901238190817
0.636958134220671
0.632178165479126
0.628404063936952
0.624590968773712
0.628446083022518
0.633329103650277
0.652830992567252
0.643004213906647
0.648622354275195
0.640983133281597
0.65620820022445
0.662263132092151
0.649427027230651
0.654639193257275
0.654198490037043
0.63706840782927
0.649633093948509
0.651733414263536
0.663284020845027
0.676326211795395
0.675183965840207
0.691164424688501
0.696221822768421
0.694787177088894
0.701455855413057
0.71160058038005
0.7338736517217
0.742865296758967
0.764963696248417
0.777954849516225
0.797707659425308
0.814694321752837
0.830844469699574
0.845464451770589
0.848329502943709
0.844948321927498
0.848431946310291
0.836731387503497
0.855250267025707
0.818280445925832
0.825834358270337
0.815177111870738
0.795145881125829
0.797393150454163
0.776379934555318
0.77517685159946
0.777116616294031
0.788648566594795
0.781276676315126
0.77344485956288
0.787410186829551
0.774765611104375
0.807872186017032
0.777003190992301
0.778884043664171
0.774904170007352
0.75792989870391
0.757718086757728
0.762223188324614
0.751342924178657
0.747487833172295
0.725013070403678
0.717100415245125
0.721123025471782
0.719598960967396
0.698890750097265
0.718617621103562
0.714319989253954
0.717062894086292
0.717137802103703
0.703551850915918
0.701547212895716
0.694142152680102
0.688641841539817
0.699052448457233
0.680239304096999
0.680351410050539
0.688887697502847
0.663698325149717
0.658028463414462
0.676215975842239
0.682713818696729
0.667401004056403
0.647665403312966
0.674116644885964
0.651122609997338
0.647435093269595
0.667406918209093
0.67198625443095
0.644374407763935
0.642744948157236
0.639741444713103
0.645741633402548
0.634305575328355
0.633611319417346
0.630276118182719
0.624173580948819
0.616377439325462
0.629254633157213
0.625865661059706
0.6376303286038
0.625836114074759
0.620557574109977
0.605429763574836
0.631683077156345
0.635572886835382
0.61779559743319
0.626186834133944
0.626726387143814
0.604711487170144
0.624494069487278
0.618939222469533
0.628369581101151
0.625020627751921
0.639387972134633
0.627867214042348
0.633208212764801
0.641833828412279
0.656202423062449
0.656867522419414
0.659827548610308
0.637573894812829
0.647951190216493
0.661261488107884
0.637510457608247
0.633269052036318
0.663288186888746
0.682621811189922
0.7031889743772
0.682200370926869
0.686281919943291
0.707614259244176
0.726820180778259
0.725762239864066
0.730397403534056
0.739794874824177
0.73399741506504
0.762812733160335
0.772642495163591
0.795779756229456
0.82790998393516
0.811976924471437
0.84831287421754
0.830679402079192
0.850538974891787
0.95995549400893
0.965321568588704
0.932773411845134
0.961080552561721
0.974631272650698
0.952845780418144
0.987865395817092
1.01087292959344
0.999017951251592
1.05462582930291
1.03993102047072
1.01066744736283
0.948440224970385
0.971118228032958
1.0547798743176
1.03845251423889
1.01521751985556
1.03672849162777
1.02700931143788
0.981139791767737
0.929866984398035
0.958265615025276
0.965620071232254
0.982239872508595
0.968641443322147
1.01110425088884
1.01468152001055
0.971397319523625
0.968572906789052
1.03341434786786
0.97456458795059
0.950329652217811
0.985678757965802
0.938992178972002
0.876497105818755
0.943999332998856
0.989887416498324
0.934316002101626
0.90063696291696
0.934712542843418
0.938819950715349
0.942875805775658
0.939572526818141
0.921030031105174
0.88843026081844
0.875308917881739
0.970823508265569
1.02045819418514
0.944342304745583
0.858060323779043
0.899421269818024
0.967767053705403
0.876889832901833
0.903142698810981
0.952596136093569
0.94110607003723
0.929583268613508
0.989075286574255
0.933259229984711
0.860908954278769
0.878867624617512
0.926141335367768
0.991402768977817
1.01577200116485
0.945418600495021
0.942593112743145
1.00014536232525
0.96550387093987
0.979656384628003
0.984304616809691
0.941491980239999
0.924875947998099
0.949844408253507
0.975092305010759
0.950698313815954
1.02034899659519
1.49734294582439
1.19695894456548
1.0310775218678
1.15604888538259
1.02409946916162
1.02576487774168
1.12140658885697
1.09434623049463
1.08225917260558
1.36915384661972
1.49856215189891
1.17378420653701
1.23633312300197
1.14563462299092
1.28196556263764
1.16636859854945
1.22055506999757
1.62832464760568
1.38878322367821
1.2733097808264
1.19148598110792
1.11783673143013
1.84395634150411
1.96039897960617
1.61259313361957
1.03379446052374
1.1038356270503
1.27463769467122
1.28222152227295
1.11861478466336
1.75139214280758
1.34780271768762
1.68466739020581
1.11044557180227
0.975095591493232
0.996927926601246
1.12764009317268
1.27207312698174
1.14645000821401
1.20470533060507
1.14199484281865
1.19347070179839
1.99337998633791
1.20384625122421
1.51050779150513
5
5
1.72304948938321
5
2.47353912655428
5
1.76433579673369
1.49181737071811
1.21770166655197
1.39126025813523
0.663648035902335
1.09269011093363
1.03806127289085
1.49822660026157
1.30960547875651
1.08711992568346
0.953347350238878
2.01775944063713
5
1.73248301393315
1.6277174570718
5
0.901999503601901
1.40742719666839
1.76013934896836
5
5
5
1.40427520274417
0.986090683482371
