3596
4000.36533379555
650.420452594757
1
2
2
0.0831183936313976
0.083370552987249
0.0829182813692564
0.0755678479707098
0.085755927381777
0.0781563088193623
0.0851554201299999
0.084111429170655
0.0876168961369506
0.0869003091239959
0.088584864473098
0.079385129840665
0.0788931960058718
0.0773912402387922
0.0803195462961579
0.0748811613259077
0.082191448118337
0.0758124318580468
0.0868687139280309
0.0738778307582465
0.0840353152128813
0.0782405925704856
0.083402641007749
0.0784053135908594
0.0875743441115841
0.080653156489306
0.0823069169398353
0.0822865695734756
0.093827766257622
0.0878457720125685
0.0970395202803459
0.0733412251083055
0.083657717089944
0.0776520885687504
0.082419686401492
0.0869462484468469
0.0841399614935015
0.0836752468476295
0.08619872069797
0.080752410308653
0.0923660653886465
0.0747157370835477
0.0860552799191671
0.084403157187939
0.0785585171443761
0.0816241322660029
0.095295940940395
0.0771888028412304
0.0705660858590931
0.0741544691530539
0.0955656522020756
0.0708530509055766
0.0918712168867903
0.0902451929689575
0.0790478985111445
0.0866651500535654
0.0815228977905218
0.0849056750706229
0.0892132900840727
0.0783874819412119
0.0908727014354725
0.0869355119916271
0.0798635194113273
0.0875420214635924
0.0753395580281782
0.0735791065960852
0.087217702909169
0.0744875522198636
0.074114767929122
0.0780189724213991
0.0809849039685298
0.0751055878110417
0.0927351330041225
0.077338023485269
0.0926089095552858
0.0767405253977455
0.0825450969652338
0.0685484056758657
0.0737429838470313
0.0822740007758845
0.0930668157563751
0.0783048286086528
0.0905451382448325
0.0722028214837862
0.0807411102169192
0.0886366476086083
0.0782894661595945
0.0641384346531672
0.0945481000583999
0.0832783092848028
0.0870563776671535
0.0702127926805413
0.085514304241587
0.0768155766878845
0.0794752850264995
0.0696380912278486
0.0802398740765377
0.0699158785725627
0.0800439270712062
0.0722763828215846
0.0914231269637239
0.0690588400876951
0.112610071617957
0.0664871654685593
0.103034901259893
0.0876482352681543
0.0531328186479518
0.106125546441232
0.0825547708772684
0.0783757936164875
0.0816087187803984
0.0722659329033768
0.0844305351373773
0.0775670356718894
0.0628737228069736
0.0695352839937339
0.111662486267556
0.0738645784805806
0.084037133822589
0.0699109284986421
0.0685217519387123
0.0679918468042467
0.117722795815596
0.0733722083389773
0.0878608883175808
0.0670070080763985
0.0673285159875166
0.0881288290762287
0.110539043814227
0.0685689913856357
0.0842336364343221
0.0658503018730312
0.0774843422075678
0.0526595800557128
0.10604592266214
0.0708372563267322
0.0713409782330773
0.0572359551875411
0.0858825019463947
0.104555108346483
0.0932922419680058
0.0678719735952017
0.0619374622722192
0.0578545740574549
0.103835886992188
0.0742850184604876
0.0755114011481331
0.0740501280844654
0.0909056631170826
0.0674534738187482
0.0763875595293372
0.0574636471092247
0.0894052146027661
0.0778056536705542
0.0545248850839023
0.0673168077816031
0.151185309759154
0.0446255391410732
0.125358895765912
0.0745054107800392
0.0802469547591339
0.0767774754146673
0.080869453983014
0.0704968805290255
0.0789031036986657
0.0608699304856693
0.0666805608559257
0.0948753936480972
0.0748798041968462
0.0646037759142851
0.0956703481662617
0.0731892324720423
0.0522210738142118
0.0946651259680088
0.0975093277192
0.0449855732183842
0.102390191932916
0.0783663919819027
0.0733685211408909
0.0627715388243588
0.099729793000766
0.0641838029186286
0.0747872199333598
0.063015776760505
0.0786127468481425
0.0792342054402725
0.0824815315025991
0.0636515312417803
0.0773931319405192
0.0509184998763927
0.0760737441353916
0.0923559089769124
0.103172020175836
0.0681955441498908
0.079688663990068
0.0443815852521747
0.0975347044890436
0.109674943895885
0.0680489453023805
0.0657539617695056
0.0766084633659845
0.0575799151465837
0.0697104217371307
0.0569154470008051
0.0703579859612685
0.045902388233374
0.106574569265811
0.092424418471728
0.0740937809043195
0.0763155162414415
0.069698757169366
0.0664354474148307
0.0983554949666833
0.106361263971764
0.0798890820261971
0.0738559305997998
0.0626026602747592
0.0789136019566864
0.100881303235873
0.0659395792599064
0.0761166964170311
0.0673924398466157
0.0726331484045267
0.0734011594849421
0.072990200458003
0.0624660954629442
0.0752942109885851
0.0733725878396226
0.0780063652667154
0.0690251028842349
0.0893133002826303
0.0729838185489516
0.0700222392804706
0.0669283228850127
0.0737678621768906
0.0677291218367238
0.102362734379389
0.0709348723760458
0.0830803242674911
0.061555134050525
0.0765282579941654
0.0675113436992562
0.0751524759494025
0.0655115069024182
0.0759249620544305
0.0635912305979261
0.0981147337737079
0.0837583749105633
0.0715471568511336
0.0660544431746701
0.0817470119420406
0.093658744163255
0.07341265065352
0.0763288215215614
0.0710022633170301
0.0687640323251562
0.0614811722036939
0.092321753970121
0.0842787988265876
0.0726401087736253
0.0803813412678227
0.0822090372201161
0.070715942049783
0.0619736777549828
0.060157227873617
0.11122232909797
0.0838414035769422
0.0515617539715443
0.119368463456134
0.0915701707767973
0.074832637372322
0.0768082467209913
0.0440468350614315
0.125484446852458
0.121276307737393
0.0737120991090158
0.0788251160088809
0.082344306026552
0.0779092300054321
0.059215692801606
0.0856515620003585
0.0743394728058387
0.108735599008597
0.0976200372282114
0.11657614833569
0.0690693007694927
0.0823825590096002
0.112004627556466
0.0809395996598285
0.0828780911967625
0.078630375130582
0.0804727459092387
0.0844812343009887
0.0916492715146211
0.0805134100803702
0.0831125060270539
0.0711058902598414
0.0929030948284929
0.0956182719831804
0.0722542897130375
0.081999902856822
0.081675496124059
0.0776359074481578
0.0744870875901691
0.0825096945600371
0.0764275716575072
0.0773643823866069
0.0618757045356504
0.127504693534201
0.0850935267836624
0.0786118596033148
0.105525146593591
0.0983263941749935
0.076546951955
0.0832519865135621
0.0769146652468765
0.0913985609579278
0.0768685156343336
0.0749057625830783
0.099633170322511
0.0999101732774942
0.0788496474646006
0.0927236778204739
0.0809249887577544
0.0940045652866588
0.0775883260191119
0.0903433552211725
0.0813380165344236
0.0899353690023228
0.0800898699808469
0.0916152329464252
0.0992813494908842
0.0771820645959762
0.0959361537115136
0.138031806048054
0.0835449683998275
0.0983656677039965
0.0903194771950526
0.0963622212256254
0.0859987926743485
0.0954903318879873
0.0943449179921269
0.104790502782766
0.104990044033294
0.114577136778388
0.0895185880068998
0.087245495163699
0.127023555400834
0.154573077873776
0.116642615785946
0.104073137490665
0.086113246156119
0.116347941057249
0.13594356850385
0.122384970777322
0.128155669010062
0.113084150615556
0.110443050828498
0.12398508338056
0.112564312091245
0.115564725194402
0.106925210847924
0.12831374910987
0.11565651162837
0.135642332722775
0.122709137340899
0.120660951503692
0.111348016446078
0.165231276334623
0.140670643645547
0.133837256068053
0.120466131330912
0.134122684241229
0.137664086762326
0.171383903693621
0.145776180775493
0.18214076253328
0.139252435799959
0.181076710896527
0.154912901277424
0.157604210107774
0.151063210842373
0.159212736769273
0.160552909215586
0.169929491425705
0.170331187022603
0.178203525427417
0.159340327536277
0.181107154352409
0.169573845747624
0.172824778964749
0.178173329841946
0.192513850351173
0.192017912378181
0.187389094153145
0.173876447629282
0.188070743400204
0.223895254256883
0.227680153620655
0.199271961016935
0.208821784206557
0.205775583181793
0.214692705242466
0.206330774247356
0.207020449233448
0.208734157205942
0.230233274511215
0.229120996112938
0.252529421627649
0.228830039047222
0.243870817027443
0.232907962731102
0.24746319131511
0.242017974190132
0.252984722081798
0.272577744709022
0.258070233810192
0.241995900269545
0.275077730320339
0.269142302450985
0.277300900632456
0.264796183820644
0.275810928219265
0.257500328621175
0.278016122557253
0.286631799904338
0.290241779248811
0.276398647772642
0.292641456752571
0.287112052938339
0.309143467844998
0.295314229418151
0.318344242954944
0.314411713061521
0.323146600620544
0.314571088804721
0.326395852780071
0.30000682135498
0.319334436896635
0.322581603831864
0.346481932377388
0.336275397569039
0.350909145754323
0.351640096378012
0.367908237005649
0.343550382479474
0.364500532657932
0.35403105432207
0.38099270768911
0.36475212451528
0.392331913895604
0.370784776851935
0.395578496625892
0.388205825090254
0.407382023399333
0.403817580340447
0.420040852364988
0.399640225091958
0.40782148133907
0.391474388800569
0.407927257364517
0.408281724066414
0.450455018428691
0.434700584891297
0.44575376580967
0.438647184693632
0.44290638208111
0.439399948612636
0.471237670848038
0.435144325403958
0.451678244260832
0.447336910629607
0.480271087685908
0.453346261817344
0.49888420295929
0.466877962121206
0.490325711606045
0.480689997100765
0.511097183333004
0.486202819399689
0.510298845189958
0.496189118186852
0.557163732245293
0.49860777935233
0.537716441826535
0.527364134078019
0.54586714863342
0.541108667969662
0.558223681957638
0.525085038823003
0.558383960107762
0.557265580322805
0.56924586028578
0.544534154199748
0.600747667104649
0.546850832877835
0.59739147179274
0.604675176101681
0.612621868388811
0.597189207253159
0.612579390181177
0.59340026434963
0.666433091310668
0.580432614831873
0.628090372526835
0.607070795976499
0.649341730732662
0.613216808696232
0.654284802821369
0.630835172228282
0.664567367472921
0.671495883417784
0.698040691061959
0.672080748102994
0.698194187842221
0.681407729878121
0.701562081842722
0.713715589730871
0.74759227628165
0.665150369958007
0.668621770118271
0.683013264619332
0.712828717658188
0.689474034625202
0.779489346047568
0.720689879286083
0.772168136757168
0.742170170726575
0.760745587818357
0.715938139564071
0.754672066183793
0.714030927620984
0.770791888755774
0.734374645272285
0.812821980313238
0.776671536472657
0.781986865835058
0.747201584761878
0.850469658689697
0.790130813573436
0.854402315558776
0.79457329267717
0.844044884426484
0.830092571573016
0.859018461715442
0.816052222391583
0.830385794744886
0.810253435508046
0.835032001217136
0.860304566479864
0.946074583444839
0.859910017437717
0.906924092339733
0.842156743843644
0.910173459120525
0.87785005333798
0.891082826851253
0.834661551922952
0.915464614282212
0.943586800084629
0.941306257195793
0.864571415109089
0.940040266563924
0.975238707566926
0.947588639371148
0.908132394087313
0.975097653518028
0.884017061336567
0.971464923889319
0.925182968580703
0.979880804023123
0.931427091713898
1.04283140014812
0.968022328105865
1.00284656834321
0.98507641342975
1.03776089759281
0.937596264268667
1.06000942171004
1.02558147347768
1.07823408288056
1.06253724160429
1.07357554929051
0.95953002798819
1.11863828748824
1.08927133327632
1.03232156761672
0.992652754950271
1.10443666925983
1.02607186631581
1.17419682974733
1.06476313964385
1.10334675838983
1.13406385168479
1.15271220127447
1.11703433237193
1.08404778507719
1.0189475689
1.14553670340426
1.02909310952962
1.16265642590664
1.08923979505707
1.13354589656169
1.19629983535206
1.17549001776476
1.07902179114352
1.14493375848839
1.06864698529364
1.18858764945528
1.12302256100918
1.21625450437232
1.12831029777948
1.27840714385246
1.17314191262916
1.2276994718042
1.18210606282155
1.17619635964978
1.13834199393541
1.22838532490691
1.11937018424116
1.36015268052385
1.21586408579602
1.24643147367322
1.19890858367535
1.30223692738495
1.18418304718107
1.2682052987391
1.15353341269796
1.32403407396834
1.25100839946322
1.30415504445733
1.37559105953882
1.42613882337924
1.18568412645928
1.36608942080143
1.28258838912281
1.35729665587175
1.16598410134474
1.27988715901525
1.31459304954356
1.31831574428845
1.24632049643856
1.24605513967511
1.20720055019601
1.43079309296276
1.28012544157154
1.40768718683034
1.21604147382596
1.25637799510624
1.22904026000514
1.31689084513354
1.3026052556136
1.44309738329235
1.28824134037466
1.39627184498542
1.38619706275406
1.5079252578446
1.2842501868176
1.56149062937485
1.32376328416572
1.43371853675332
1.31346286347004
1.48007111018558
1.27466289487676
1.47505474832745
1.41279722008911
1.42533197631996
1.36260278277571
1.35952093686476
1.25129257864712
1.43922515668884
1.35329763240555
1.49380158692097
1.38869569867563
1.43253139468946
1.35599039828508
1.42945013609199
1.40449506811755
1.56766604853263
1.37168065114213
1.57249562141109
1.48065113074689
1.40885138157792
1.38255046173616
1.42495151300411
1.35604639898187
1.42163190017249
1.31299496202496
1.5102118554046
1.36088451712593
1.35409483157272
1.40837702473359
1.6703237899269
1.37110037558214
1.41438175625372
1.45325628940796
1.57109288768163
1.41926620074673
1.57624152468999
1.38071012618401
1.42658410222135
1.47424875549533
1.44647862986824
1.59869839668412
1.65558504919921
1.36734434637223
1.49812479002232
1.47575010684936
1.52626698315758
1.72877288785769
1.44381025180074
1.51465796918782
1.49123194369118
1.45622326589171
1.38882656878884
1.48649358295788
1.60356968041798
1.52070616793948
1.54367121000355
1.48721329413037
1.64572096811931
1.43274244174731
1.77665783796398
1.38064517700539
1.56077317222061
1.61940266144048
1.5772806394752
1.51792725154491
1.60158668964774
1.36037195939758
1.42145350292906
1.28837139914501
1.51941821845547
1.38361750679984
1.51551305782879
1.57979378044944
1.51588949047472
1.48046839851798
1.58896943372253
1.52731900864836
1.4092437256995
1.50972835249009
1.4809624734471
1.35870022435802
1.50213027811721
1.38084441078343
1.75489897280081
1.55106365373325
1.55086840912846
1.36028553710778
1.48784117799462
1.70889769250146
1.47550981066539
1.46511238990655
1.48976070329079
1.47626466188326
1.51441322188485
1.41309692375853
1.55700385283035
1.74490868151591
1.45018669624418
1.40194476732686
1.47902875441944
1.42278945295442
1.43872193326131
1.5928791279804
1.48954766998454
1.43351578211984
1.65761537415846
1.55967111449924
1.43873790836454
1.39574604912702
1.50473280266503
1.41810769168326
1.62919168039235
1.5685225750479
1.60442335488189
1.45713058826856
1.5450863307653
1.58140361679065
1.60606456530146
1.51990734272817
1.47300302598787
1.31252067124459
1.56137383029908
1.50583864984066
1.49071044723057
1.54760179085617
1.50984987512651
1.57090643470666
1.55613455312919
1.38887611557844
1.50027808100368
1.39766523345198
1.63637913113617
1.42942433122664
1.47789102582765
1.45201668967306
1.39612678944527
1.49566869957184
1.43578905244012
1.39751805651836
1.50267534239754
1.42690265283991
1.57503626539681
1.50614921769894
1.55732911018009
1.53986862247725
1.49041651434141
1.36016890822825
1.41473000565783
1.4457580663489
1.45767250723531
1.38981609418057
1.46749118538403
1.49869475449358
1.4819510021814
1.4387280957263
1.52741910097042
1.36387013551679
1.48741236064067
1.4063019674495
1.51290505395531
1.33551776534905
1.42702128807972
1.37459333778561
1.56531518093226
1.3894792710697
1.37346947039344
1.33915484975129
1.38138983324071
1.34983812490963
1.43496037497152
1.45057309530187
1.38777553227979
1.37880083423477
1.46333351221271
1.41003559632704
1.51468843540164
1.42676404494771
1.51681694001077
1.39981728809496
1.35594173139367
1.32755773885273
1.45964376235207
1.37312157954469
1.37283754111558
1.26405716280503
1.36919350864684
1.3125804824497
1.33922259507656
1.32803864896454
1.31488146254151
1.30566819739209
1.38241869269752
1.27372475650692
1.34163331180529
1.36102671843931
1.42714225515843
1.38357644459447
1.41608075987393
1.26432828621319
1.34219361926625
1.26329527098869
1.38892447735127
1.28619379451967
1.28412353030302
1.25926102676626
1.26370295690573
1.27993323301386
1.33298480410774
1.24626649883863
1.2954510588484
1.2414028925426
1.35607452904706
1.21867535031456
1.2580679477638
1.15735284347267
1.26950243605516
1.18315316056138
1.2238173496429
1.25100946887088
1.24371926434052
1.2371039308496
1.24857993485299
1.21846737133176
1.2090027160195
1.17797869422089
1.20149294086863
1.15249187295384
1.20453143150055
1.16877553914641
1.14829962136509
1.13877779472614
1.22532704209388
1.19639428913566
1.17179072728697
1.12879150762276
1.13197769174414
1.10695990576571
1.17968107554603
1.13168748147513
1.13716246678741
1.0962953432289
1.07903078123293
1.05600141846324
1.13460032186874
1.12159128955285
1.12755176972702
1.05144550991431
1.08363859643056
1.04119163953158
1.05029671668736
1.03535534455366
1.07056120578837
1.04250908814546
1.05194486197298
1.06035442793707
1.03722313176595
1.00908697221298
1.08223055504295
0.9551216646245
1.07220470714111
0.981073137734684
1.06156533997443
1.01204947494895
1.03440353927824
1.01755154194173
1.00487956897303
0.99648622481661
0.998804543438633
0.973528566210721
1.00680174797988
0.98615530891468
1.01407126248089
0.967567122226353
0.978214536349774
0.940996873807208
0.947974304513436
0.949926283155795
0.948702290401514
0.921736324622866
0.951591908054295
0.912353175892036
0.948163932522091
0.904831145829714
0.905067050545415
0.904227544888268
0.914864646477936
0.885284560063
0.917535912516428
0.895221807756663
0.925936292757565
0.90827846571072
0.910070267174104
0.8729688747717
0.885436430042373
0.865650743356811
0.912344304829239
0.850418779597844
0.876150124845595
0.853203287294436
0.839643748025767
0.82948628246938
0.85789010557816
0.828636224765591
0.847946265696578
0.803517017434178
0.833280331155797
0.815839540464769
0.855743182210412
0.793470086327146
0.797816384552441
0.786756253715474
0.807950625681248
0.789408851228571
0.815061653450688
0.793647123149004
0.799769817537737
0.799879630445114
0.773235784879678
0.763654716856686
0.779917042741634
0.738372650191094
0.782870355106603
0.748217730871273
0.783552334101571
0.75269712410822
0.765455880823726
0.725133438823777
0.748303332614716
0.740821634709308
0.773019396889331
0.726277426269918
0.731349426378307
0.730389530370052
0.719815907725246
0.721917250268477
0.710271883389556
0.709785427645588
0.706758599685516
0.683555431301815
0.725189015861316
0.69552210473961
0.726614290948229
0.686455244997049
0.703009755573341
0.679871506361788
0.692652069535667
0.67684162147255
0.66544920818131
0.664393986809276
0.678146422237392
0.648542881574675
0.669168957425712
0.648550851122692
0.670393581421671
0.641526217813676
0.648121237800019
0.654880587613919
0.643450970319877
0.6319675134908
0.649282257243666
0.635818703437987
0.642758267926772
0.615281893878081
0.620612436701206
0.625949027400174
0.611009524376043
0.612786513283301
0.625205371749979
0.602664668960718
0.603517877326269
0.608143069931639
0.607696928756282
0.598314047236673
0.599833557404315
0.586830136827038
0.614309345747145
0.584120436438819
0.587062766995844
0.578404161440445
0.595982600924981
0.570020852385664
0.568779431718814
0.553614434119548
0.572531456020462
0.552961755337198
0.563308711675096
0.564135380584122
0.565297716938736
0.535883295167265
0.551267023448942
0.542943183285699
0.561039560551357
0.538340270823492
0.54313282504671
0.52900850548885
0.54509620198076
0.530139258744057
0.55230516206072
0.516730052676039
0.543771366611614
0.520812700687492
0.533354939276066
0.519923499923022
0.530921777528345
0.518991334824598
0.519368486646026
0.513810487749643
0.522655552501825
0.514442700965284
0.524358274260717
0.503839666880781
0.516976168827082
0.505910070116695
0.518070894533816
0.506063796900309
0.508070095261149
0.499040831644774
0.506119548899752
0.503406918371338
0.516237537824439
0.507065981643606
0.514660235515888
0.509073294593779
0.514336540857317
0.503546345200531
0.515640023910037
0.499860555224709
0.511952996698672
0.507968841059382
0.522283595765034
0.51420942779704
0.522660948086298
0.513350645961317
0.53772957719109
0.510251255034803
0.524335903836432
0.530214269898707
0.529614448592913
0.517182448526591
0.543827443310104
0.524751244390509
0.558721940532153
0.530627543545428
0.554591115347741
0.526139891071347
0.553235565090545
0.542350527528015
0.556386850424235
0.538544114298713
0.571711372004136
0.554647907934528
0.559419559492027
0.548982562260009
0.579760742511084
0.5556827506881
0.566660542881373
0.561032719389348
0.563799197223356
0.572980437761618
0.583519944563353
0.584367194920238
0.594956735491646
0.594741871782066
0.582295172575695
0.586956515683134
0.593864568068187
0.585457258826342
0.622770435909713
0.602246663678593
0.619687890105228
0.60112573053892
0.623995191998739
0.612754695200748
0.631577959894527
0.614237184326726
0.639993771050958
0.642479538800344
0.640018872999542
0.633084502465486
0.637384600236432
0.640707568762349
0.667696755838825
0.644167764554375
0.690538352894736
0.657768493605361
0.665261367081527
0.643373371238786
0.663563268637798
0.648144547834724
0.678246077704003
0.658602826494336
0.677195403093725
0.665735375951627
0.676164417688442
0.646779073755231
0.669531199499788
0.657005799418394
0.668700742547434
0.662248591190743
0.653185156340703
0.649602000140057
0.654409474479996
0.651140512101812
0.660766905621348
0.658115534344391
0.652631087628244
0.639552374756802
0.663536841895313
0.652114805274234
0.675406886197072
0.639195359131316
0.661801404803369
0.645864537293004
0.659248910740008
0.642663598496998
0.66399336088537
0.652713568355457
0.649599630370908
0.643231199778737
0.660680247900673
0.648629628696966
0.679563783728713
0.660151788845277
0.656488471519476
0.645976531469806
0.654833679673594
0.649870554208535
0.663218429574894
0.646506094881864
0.648203316557896
0.653825152592127
0.678491820003277
0.64797506763542
0.662207634024996
0.65306628276928
0.656744334344299
0.650328619520108
0.65633665059667
0.650363646796112
0.654369537862036
0.631405421454991
0.655881405694661
0.646492166563429
0.662886206811366
0.622748247290673
0.642615247250242
0.639483596430657
0.65086415862462
0.620357565450529
0.645050290962669
0.617246290141569
0.625927231442012
0.609276789411945
0.621577324673577
0.603782088317815
0.607408063118968
0.597507335327674
0.596433087487364
0.59347332608441
0.605617722499795
0.572514887339855
0.588893580115672
0.581434059749097
0.577679470400186
0.560111702185631
0.572061460975513
0.559885799192499
0.56351976282364
0.548865542929257
0.553434917439432
0.544470725057826
0.542547177016307
0.542322097704313
0.543492421722562
0.516696570370719
0.531417849115205
0.523192659771308
0.521493713890129
0.517241516315446
0.521119028816947
0.506229948435542
0.51414185970621
0.49663049863068
0.505543118352968
0.491881300112612
0.501030706786197
0.492708010172899
0.493056914976331
0.484664524004376
0.492743756489549
0.485243665887784
0.485157314951609
0.473165163456004
0.481205228420579
0.480125032311423
0.480618424692116
0.466941408228556
0.478472391944572
0.464355340783553
0.453915673584454
0.466908895748065
0.462146834014036
0.449520708696672
0.461449270318435
0.45765150529377
0.453695316064829
0.439952603732868
0.456267449673714
0.446375508066104
0.450444586727941
0.44448516951595
0.442490782395494
0.434077491490679
0.437030135791816
0.422506436688237
0.435401461985049
0.425678015395765
0.436842367371498
0.421777131171159
0.431363003430678
0.419208874265499
0.437636578252076
0.423417430150426
0.427595779498189
0.414659497732635
0.423203968755977
0.415728364382173
0.417619229781363
0.403372533430352
0.419890150869239
0.402058912322476
0.412292496393151
0.402457665430969
0.411124092512021
0.408220367468613
0.411066324354579
0.398743678717342
0.407164708809368
0.399644313243749
0.405218777498421
0.400186529773263
0.402451799134054
0.397375547684391
0.394557621424782
0.384553962399471
0.395343144567466
0.387282153959873
0.399688897735635
0.388918558379047
0.391455858592399
0.38626145207424
0.390987209510113
0.386770228817572
0.38994025344628
0.377164936766856
0.388184818139486
0.382211728830378
0.386459512636342
0.379933831979021
0.38583950511107
0.380174310387912
0.380443042427467
0.374529946237296
0.38427810386868
0.374471929128811
0.379468294137412
0.368285058051825
0.377605311382279
0.36631087322148
0.371593993254594
0.36917119160657
0.37410891336964
0.359223140430802
0.376073030206846
0.361681224805567
0.370023200176776
0.367017695684656
0.369656162240149
0.364604546355584
0.364773208237977
0.35956134279991
0.366540822418971
0.361503836740198
0.367550128311219
0.357464442362743
0.364132863513365
0.353225993694345
0.356040214123484
0.354682456634116
0.35816211989813
0.351345849998518
0.359411392604886
0.356199227024715
0.355799826743568
0.347761264979112
0.352246672136561
0.350336116288622
0.361828145441864
0.350154326661434
0.356839443889807
0.35296084203937
0.362724286177879
0.357626460625181
0.35841250167537
0.349025640368924
0.349803374346798
0.345600121184652
0.353499986444652
0.346056309409596
0.353373670912622
0.343855841785332
0.349077347089457
0.341591819882686
0.350610131703794
0.339206560927561
0.350401422201148
0.342166276582201
0.34430755865142
0.33933502593972
0.341352240297829
0.335501835801091
0.344139211403709
0.336714236814452
0.342210108336628
0.336539804093989
0.335511149200349
0.336503870298157
0.332396121846008
0.325985889433841
0.337800384444293
0.332426068274531
0.33484768165617
0.327589961159939
0.334045350391004
0.327068894944278
0.331533031487693
0.329620761924085
0.331076118456308
0.326999275975987
0.327240690340804
0.326891163812676
0.330326730002846
0.320155220616282
0.326483039473742
0.319249732616734
0.32641855427644
0.32765807290974
0.327793790952176
0.320595710782075
0.32017225773871
0.318661443058859
0.320339614574141
0.323194766640845
0.321194983267188
0.314373000171565
0.315356755059623
0.308768802936089
0.321110463870989
0.312417728609469
0.317744742652345
0.3092571041299
0.310692015227886
0.30614325368727
0.30631997227207
0.299584934896419
0.305747282699136
0.301059563503396
0.307391530634969
0.30544528578332
0.309816478044978
0.304862730594851
0.30599886701034
0.297412566122678
0.298568298680181
0.300125743248114
0.298731311004307
0.29059973263251
0.29764708040259
0.292565042325556
0.29538839850549
0.287194382252068
0.295924961076291
0.288540669685852
0.292325685528613
0.289471801552203
0.292799271145156
0.287188702916529
0.287515070905658
0.284780695364623
0.290617377483365
0.283824140707192
0.284921791949199
0.279969614434775
0.283916704263409
0.274062238582691
0.276199501935238
0.276894066815303
0.278233464225345
0.272022276619085
0.279892324788018
0.272699047472881
0.273509362912234
0.269553952656265
0.269488377130122
0.266325842531611
0.275842291910873
0.267814772932987
0.266532805471749
0.263041557550386
0.269093746535666
0.264351244640388
0.265195823632025
0.259810992410497
0.262965883731555
0.260075824781739
0.267890862005377
0.261378155296898
0.262444760808813
0.257304776016575
0.265854773691616
0.258327388925414
0.257702561808694
0.257074888775051
0.25527812378393
0.257726807844447
0.256549622846111
0.249670435587264
0.252541170356303
0.2535628133086
0.256533536774431
0.246206215056405
0.251428905351795
0.247579384734519
0.253491733226589
0.247293693913085
0.247336869332608
0.243860752394743
0.253096953660865
0.247302143912018
0.244008416129186
0.243224900120872
0.249672589798355
0.243490139436696
0.242310638468849
0.241494171010202
0.245564368260962
0.240170516138155
0.242807853396556
0.241850805133673
0.243030695182265
0.23816599161488
0.240089686677182
0.233742697207047
0.240290635441732
0.231989476943327
0.236325196550023
0.233122279551497
0.239067113399178
0.235369575621999
0.23675414332747
0.233058075512985
0.233662774285071
0.229585812126137
0.228284447640217
0.228998535022664
0.235873713554029
0.234215005575319
0.234777709465523
0.225683820704971
0.231376282266026
0.228758356853976
0.232837016065788
0.229299785617234
0.229008906196914
0.224594474804434
0.229172955457083
0.226521021597191
0.226061545200011
0.227103852952399
0.229480888147957
0.221625604726488
0.22889894051799
0.227049260962434
0.224984742764272
0.225898524498916
0.228290370454573
0.218623478986745
0.228270192113605
0.226613317961748
0.222397594926884
0.214586796763621
0.223672090317834
0.220980803862626
0.225114910282157
0.219835629182136
0.220792171138769
0.219457565180855
0.220354500132422
0.219543649477187
0.218711068000745
0.215984688800967
0.219946987678925
0.216578242053504
0.217121417673161
0.214599761338263
0.217782477529646
0.214151346889515
0.217764985152569
0.213179600328521
0.218135484717771
0.214711809942756
0.215414663616677
0.213019997999435
0.215336396314895
0.214555413527599
0.215193607645002
0.212346132748044
0.212972540682379
0.207293455987956
0.211631164863752
0.208968208359538
0.210149621287844
0.207881689296538
0.207667353876322
0.205215949826599
0.213078184934125
0.205737686619318
0.207324190644203
0.204478455531869
0.206020458316478
0.205788626403779
0.209194804542939
0.204589965520479
0.207198373740938
0.205111714752299
0.208277142918327
0.203051496406677
0.204441811734234
0.201229834048342
0.204578825965764
0.204871242904498
0.204580520771275
0.201917781870187
0.206126596296917
0.202314043667523
0.204255767309932
0.201389079809418
0.200612210224344
0.198581817051865
0.203711273670144
0.197530272233922
0.202344118593494
0.198684885101363
0.200686256299598
0.200288991207696
0.201232846145369
0.193495655589962
0.196259073448765
0.195570643810718
0.197897508239671
0.197705979147494
0.198866078393671
0.19569331978105
0.194201380833812
0.194474967763359
0.194905619421342
0.192784768144961
0.194796154621716
0.191150789502947
0.191607819579995
0.188659999446118
0.191219334938118
0.185216164004
0.188507868037219
0.187447159737917
0.186581407858217
0.18510176375149
0.189334799652681
0.18925727868381
0.187392502171972
0.180934813654375
0.182619679251355
0.180642518339867
0.183917983363384
0.179336201416952
0.182385732096584
0.182030925302783
0.183527581662834
0.177635592934204
0.181178915403802
0.180579576835833
0.179126865172128
0.180016654634103
0.183043967008496
0.180105719460121
0.179837819380642
0.178919694702238
0.179620225762872
0.17441249393455
0.175812719110061
0.173126490239134
0.173179188234879
0.16922228058019
0.175232957430891
0.174981780234103
0.173810391497887
0.171545687564847
0.173891307978934
0.171634514440757
0.173653970221336
0.165890287010692
0.17138930479903
0.17069785947581
0.174071299213386
0.169161229150093
0.170164154895904
0.165564409998502
0.166710646621821
0.166371376309013
0.168843411817079
0.16823440457228
0.167830126554825
0.163154123264991
0.166260850109692
0.16320666995874
0.165106830861548
0.159893885833464
0.162294118277687
0.161667535320602
0.16542184536221
0.1634994680162
0.162042897141859
0.159889569102212
0.161579495507489
0.157755965649829
0.16160910781789
0.157276772461945
0.157664679301244
0.153750199402941
0.157743692788983
0.157262856413647
0.157459188557685
0.154293952992088
0.159321036264617
0.155534511023152
0.154922209429363
0.150957969830922
0.153985662958952
0.151338635766616
0.153701526120589
0.15256365001205
0.153937939847184
0.151882299083358
0.153883971289247
0.147538080455268
0.150223851766343
0.151459513833586
0.153518706451352
0.149901407549059
0.152246339971195
0.150658937450796
0.152517134411744
0.151849657097763
0.151238995105596
0.147608883908575
0.152933169503071
0.146415280472814
0.149780030446259
0.149100438155224
0.150956351416888
0.147480320285901
0.148942626706249
0.145367311818628
0.145573743459205
0.144318206947007
0.148946253840323
0.151157471095249
0.149799147379165
0.145272761720534
0.146641285491846
0.145172504192419
0.147106671093529
0.139111664811967
0.146005016237268
0.142324632695229
0.144528400001836
0.142244300781325
0.151688229877874
0.153381260680322
0.146276073998994
0.13080775406196
0.144659225116515
0.147706533914887
0.145671150247102
0.136642688500383
0.14750416765759
0.138354325565735
0.140847841467057
0.142249461686826
0.140866072038108
0.142890010124415
0.150157552544639
0.137688513592274
0.145282938784131
0.137716600843574
0.145176266672552
0.144786694461301
0.146529008679973
0.138409046122588
0.141191690752621
0.134517062912325
0.138991132076522
0.135410574367755
0.143277083822898
0.136168899265547
0.142027108212152
0.135956231671482
0.149049222441019
0.130463795922526
0.143361689447467
0.131049053154553
0.137766029477004
0.12650541204754
0.139219867822918
0.131615558845937
0.147040787553726
0.141861878001781
0.14576555889858
0.131976158338286
0.139688740108278
0.129208361100368
0.154332839160711
0.139417912923797
0.14401396014339
0.126378741542356
0.140443686253927
0.142369906271968
0.140521936325698
0.129584882205623
0.14132904272715
0.140937900303093
0.1398006225343
0.136755167221086
0.137737663810179
0.142283578456599
0.12842294323189
0.136936077647962
0.130041561692302
0.136058125721604
0.13232418549239
0.14249389956883
0.129676592486363
0.13639060343255
0.133207998756726
0.135556304069555
0.132589296022537
0.133656115789613
0.1293853697697
0.133618169108807
0.132721775826226
0.134086218067077
0.13274058621206
0.133423300864825
0.131277604169743
0.13025952854522
0.130928975954442
0.132491485773685
0.131179148190678
0.134277452761659
0.130885492446818
0.129571778861235
0.128675856939056
0.131445114355603
0.130485877371985
0.131475230732992
0.131767719270709
0.131726575555515
0.130128377190294
0.133960786507591
0.130241163324266
0.130339813353204
0.130105551687458
0.13024328464108
0.130998146108306
0.132532213722242
0.130334849614825
0.130467117635548
0.130137343814807
0.130586459493158
0.130121355161054
0.132323747916405
0.131636720079988
0.133268217806853
0.133109716064241
0.132079163789529
0.131457756190183
0.129507471060752
0.129079404468859
0.132029385576789
0.129422951838684
0.131672488178743
0.130736592829037
0.133238215049655
0.130936130032247
0.130054068690559
0.128970508051673
0.130268378069377
0.131840400788938
0.129795057200599
0.129104176537016
0.134306462557689
0.131478867194148
0.129631595467155
0.127779276309159
0.129586297701287
0.129746513767936
0.130399447692044
0.129107045246677
0.131394337905385
0.130300276218119
0.130261703014302
0.130739791071765
0.132148366057754
0.129922341209841
0.130657238791084
0.128803392203103
0.129365732875235
0.131753681541597
0.131610758175642
0.129919115554737
0.132724058697412
0.129165882247722
0.125953627812742
0.129927333943282
0.134544394930965
0.131213029621012
0.130942457395201
0.131177045720485
0.131216142148042
0.129783456133189
0.130280007100733
0.132644400484386
0.132210628703004
0.133058205886866
0.134491155411811
0.131713239530482
0.13135674714155
0.131812410935157
0.131688693063071
0.130386893062645
0.131853675739155
0.129513649650375
0.130625364423936
0.133799175334978
0.134093153287781
0.132456996805584
0.133907388316178
0.133556817054301
0.133568239307887
0.132649327292282
0.134717523715475
0.132921264895103
0.135146091483616
0.134662836972871
0.131515735652079
0.131459570526031
0.131634848329966
0.133837607353982
0.134999271559374
0.134164239141853
0.13623246651292
0.137876360043481
0.135286561449117
0.133181893655996
0.134452259123408
0.135113836680364
0.137277562707072
0.132292639223975
0.132834865479624
0.137614696202028
0.136545938803253
0.134686523508153
0.134240760249806
0.133825686284738
0.134471307046347
0.133233903734529
0.136502998266945
0.134524852102177
0.135188609624009
0.135871821524185
0.133469216862135
0.137404681958515
0.134649133748155
0.134356358725156
0.137629366383937
0.135280881697677
0.136691527131421
0.137562984766051
0.133672911345922
0.135091338473696
0.135583228153044
0.135617297888526
0.137494015385848
0.136146004980175
0.138919294432901
0.136698104390966
0.139254733806092
0.136756622517027
0.138058953270561
0.137832767024895
0.138366247669412
0.13745502977305
0.139445598005624
0.137271987302242
0.136884176005103
0.140059393032491
0.138924397166348
0.136001880440815
0.138643017468445
0.140046477482204
0.141096233934322
0.140221418215375
0.139125872471403
0.139107624060677
0.139729019604846
0.139415124603545
0.14173845159603
0.139270688549371
0.135773955043555
0.136961911814265
0.137806486504997
0.13891260142915
0.137721382186978
0.135902586846333
0.136145470138292
0.136280535570169
0.139476029967364
0.135312783811048
0.138952460088613
0.136591678828913
0.135251177184206
0.136140776676714
0.136914662586624
0.137241097874546
0.135361238876034
0.132436994538389
0.135152475056843
0.135567903720124
0.134878641628452
0.135061285909634
0.135668962828022
0.13244037129341
0.133395047068424
0.133994499918133
0.133080811039207
0.13252362950371
0.130606897497898
0.131630299704452
0.135632860132019
0.134271019393737
0.134988121240836
0.130379929723679
0.132821362553673
0.13335267006119
0.131816265329577
0.131712228010445
0.132177093110583
0.131731329104788
0.134733256766628
0.13441029674004
0.133769988461702
0.131558340278738
0.13237700767481
0.130351092958229
0.132458789550741
0.131837152543002
0.13238057840681
0.131930471706598
0.130571421850028
0.129730071874745
0.131577359431988
0.132243154647451
0.130755251619785
0.129818797776231
0.131710223349557
0.131423326579539
0.130088416330558
0.126260637162114
0.12812619102074
0.129948566870741
0.132314799276863
0.128463638079626
0.131308101264329
0.128556488736203
0.127803810823678
0.12569766190184
0.130291690710035
0.127063430241723
0.128345345385827
0.126882939644492
0.129566809385605
0.129267737826136
0.131105193454147
0.12956671094316
0.130116384401411
0.130076766019887
0.130023779270476
0.128355212851718
0.128110586521676
0.124929970679357
0.124760305698491
0.12690142077206
0.12644867436494
0.126837072487416
0.129239607050208
0.125911329197016
0.126678755740157
0.125039300763246
0.12630104851479
0.125759294443215
0.126539063906618
0.1256682752453
0.127697160271529
0.126211573968428
0.12779149980094
0.12603621745317
0.1259574921136
0.123497554273822
0.126811475169574
0.124949904496534
0.123767759041209
0.123137673460141
0.125425822052099
0.123467034536655
0.124383908450955
0.122416064921262
0.125717552142726
0.122887103460214
0.12312327406783
0.124065900394235
0.123777040756899
0.124016156641724
0.123358978549335
0.1206708260657
0.121756258467667
0.121703639679034
0.121772421446981
0.120874916217039
0.121936521459199
0.121479445666414
0.117166359670859
0.120109255112792
0.122679003381574
0.117656025177066
0.12145726030389
0.120670158021425
0.118908956010138
0.118969907998754
0.117820417029323
0.114815973543323
0.118289114873809
0.115184106066977
0.118998179943416
0.115996960101094
0.116715854656673
0.117427836385747
0.118232430165906
0.115457434045619
0.111189164778149
0.113546518074092
0.115650459281257
0.112172658645264
0.113632515669151
0.111205587973385
0.112988663183118
0.112499837227154
0.111084662118957
0.111900463271935
0.11242606082873
0.113537857544564
0.110659348548154
0.109415962439392
0.111443236697262
0.107487535841638
0.111424412367145
0.110540347611707
0.107909487788311
0.107918166600655
0.109921572895359
0.10632182459107
0.104001467709965
0.111470065646669
0.110285696215775
0.108033085383933
0.109267791073717
0.10982762732415
0.112079435195919
0.107783088461371
0.107953682415242
0.106531098791672
0.108806335939856
0.106848343386969
0.108052733057171
0.106458699432389
0.108443348811859
0.103677508139819
0.107157041501892
0.104914280654445
0.103983541316862
0.106968819011956
0.104553907272115
0.102273347624108
0.106904737998055
0.103674025571334
0.105084963512576
0.106466595626766
0.104270658625479
0.10235778893571
0.107359249451013
0.105907780625839
0.105649759743522
0.100653159062914
0.103692392765415
0.100386568110649
0.103411956715143
0.102892664956635
0.103502787657423
0.100889670689831
0.103945231005019
0.100668149676288
0.10073439199294
0.101130815961847
0.0982383238249077
0.0996115992471029
0.104552527128746
0.0993361264480001
0.100095792469255
0.099196748172088
0.0989743245763928
0.0978682354535754
0.100354595325518
0.0984388423515615
0.103122491920071
0.0944455698477329
0.102918973415841
0.103828732585684
0.100658824773214
0.0962329941882512
0.0974040084389151
0.0978254574754314
0.0987525682007059
0.096968293737922
0.0975029656952409
0.0972561485176854
0.100170989498626
0.0987348505942362
0.0950268777143544
0.0958179918602755
0.0991806016515621
0.0973704015086234
0.0965534005865579
0.0942643944247522
0.0951133796554004
0.0991889477635397
0.0939161155154593
0.0970057892505093
0.106204700789948
0.0955522334192837
0.100316276102377
0.0972268759911362
0.0927478310453685
0.105942290441713
0.0976222365077465
0.100517103606309
0.0909862947661316
0.0983875507162149
0.095689007320637
0.0967399635692122
0.0915814060468492
0.0992138898427823
0.0942616490157544
0.0973332810398323
0.0966729461726831
0.0953655677324451
0.0953177720076172
0.0960895416110801
0.0947643372811939
0.0946069880207157
0.0956218051175325
0.0939772722621441
0.0941723633049546
0.0958680461903966
0.0937826111869474
0.0975885543848246
0.0903378870619116
0.096227004548288
0.0951390058652518
0.0944936075341696
0.0938762839237849
0.0977135957848571
0.0893134854877314
0.094545346182653
0.101052347884588
0.0972114239178593
0.0945213974953307
0.0902891122821608
0.0963365864825423
0.0956553769797604
0.0938277522746317
0.0907359429087988
0.0928963041297729
0.0932390478097031
0.094473450490539
0.0905539084249228
0.0920310760017213
0.0907306250815218
0.0924126971925545
0.089112622889634
0.09546545654403
0.0937354616383068
0.0916168823102022
0.092069313890934
0.0879253444862779
0.0942612036383126
0.0979098339470681
0.101528773886443
0.0979384158627683
0.0972873869183744
0.0927374853658168
0.0939895891085041
0.0902585453644979
0.0954627656309703
0.0935829651448866
0.0935734952168845
0.0939203838380189
0.0920569558588015
0.092777442025222
0.091986330678984
0.0909225917482898
0.0915813524356948
0.093395938449248
0.0888445530302349
0.0904187032390092
0.0878690972322782
0.0934922735287945
0.0882958280798757
0.101444430517923
0.0931401905286931
0.0976647565774587
0.0771417238767096
0.116149209219193
0.0964549783376871
0.099143468368227
0.0935470007068576
0.094692707893267
0.0905382077584022
0.0923042989710995
0.0900924576697388
0.095860914230848
0.0914107993267032
0.0932473705510509
0.0887818397186777
0.0932497523593587
0.0964379491270661
0.087673982004231
0.0927750577802154
0.107756033704053
0.094824764085244
0.10265795869957
0.0859800292489504
0.1030035133472
0.104508905183577
0.0952272405740061
0.0987205290850148
0.0933171724216101
0.0940364853319055
0.0941792493397077
0.0942895489430318
0.0905176572976007
0.0968231266153419
0.0961836091281858
0.0959360052103091
0.0922200914570599
0.0940761921690329
0.0995301931264822
0.094264789118258
0.105356568592724
0.102896347488799
0.0956965453005241
0.101581150085258
0.0976342154189865
0.0966348885430687
0.0952831861559235
0.098944949070128
0.0917435219373528
0.100055628185057
0.104387427549516
0.0950995532659408
0.106315727501395
0.103226035000418
0.0965262651110119
0.101632018185286
0.0992619442552486
0.113107492733662
0.0857222090367261
0.11413947687928
0.10753543933372
0.115273918142948
0.114305382637429
0.103530755286131
0.106520978153374
0.100773037992326
0.104077003929015
0.0974519863373292
0.124355482194265
0.0957040998112944
0.113919655723825
0.0882105794363345
0.117639394290228
0.105757215581164
0.113332077931509
0.103461233869657
0.107681694802758
0.098141658501929
0.123845384153712
0.0983717872099941
0.102990030655877
0.111013901430588
0.124795861073618
0.133222425411832
0.105473321868274
0.0998285958754184
0.129666900763266
0.10806345945378
0.11871478970065
0.103772145697651
0.119615005563537
0.102122526505665
0.11923426295569
0.125989124381518
0.112565161819558
0.115604388065956
0.117178701446874
0.106184391344483
0.127647920097905
0.116922129295579
0.11939572058177
0.112759620432909
0.125144713733974
0.0975790214377819
0.176042119036481
0.11499810376414
0.146467137940683
0.125086352282684
0.13908763806526
0.127836497166592
0.133199179294988
0.124038120379474
0.141356558318254
0.13776965106489
0.14040477218623
0.118554477335223
0.151597979116331
0.143747540943763
0.136619055164517
0.143438753168624
0.133690977873504
0.1265491296505
0.161007169044534
0.163923183693882
0.166862484296741
0.147335867362973
0.149695564965599
0.163971195739941
0.156086718600781
0.153768790463736
0.154671178532805
0.156034741618806
0.157870119822114
0.152388721294933
0.170059011605574
0.158114629364198
0.171464844972723
0.152579649744631
0.16717294662445
0.160601142838903
0.202640923405128
0.192510052864038
0.166530273444279
0.20609190133264
0.189519945997921
0.193941052476376
0.179776805951367
0.182664818204971
0.196281676803524
0.190287394403418
0.196027574812011
0.180465880424704
0.214086713539464
0.197534399702447
0.210557486517319
0.215191975857641
0.213491141226238
0.210274321259426
0.189099341476585
0.354262657147549
0.225210572492955
0.259140206432039
0.219485273425661
0.261610561330794
0.295390040365666
0.273332518103474
0.271410553023239
0.279548028778529
0.27664649089186
0.286887542075874
0.295760863942796
0.302849645046645
0.319815879470167
0.326182160303535
0.311504951094175
0.33987106199957
0.369446449908313
0.407312228879663
0.380814939498111
0.371690852196888
0.384381828584343
0.404235346549662
0.388655825525048
0.426082030951491
0.40611848825243
0.429234610627979
0.475438646245772
0.450099012467117
0.461255617197919
0.445910442009534
0.512435778470332
0.448694158690761
0.554263937838822
0.502076316676716
0.531108737020129
0.507852800771041
0.539521114614302
0.538703976515193
0.538881082743986
0.583760321345214
0.593655963601713
0.582446864382462
0.596580782775916
0.585513598982941
0.606191051190076
0.613886240086058
0.626427714896548
0.609317557103382
0.66944748310067
0.590880506751684
0.876767590278449
0.647497657969635
0.660950466235427
0.645758717667828
0.644714839816618
0.668886267776265
0.663029057577378
0.681916751779411
0.67912219394254
0.659813986923378
0.674751974779275
0.658186402476648
0.665344246511191
0.649128553773333
0.691439879960813
0.646704555026918
0.697032549676648
0.639285411714697
0.694119519759391
0.725303900992542
0.692391994551911
0.663379031280162
0.67511721741524
0.659933855594027
0.679597223542711
0.649258540967339
0.682634414042224
0.681579091060691
0.651735869886814
0.659935135251871
0.623227570400019
0.658257947529482
0.668200329182896
0.627526906878337
0.617357680294981
0.602146624013205
0.630202369792054
0.573560883156547
0.608612306076265
0.637940910131795
0.585874429316439
0.595514535969806
0.576447533942529
0.574989186569191
0.575565671250249
0.566982045487755
0.563953778277446
0.566200819255122
0.548720666325778
0.559582861135245
0.555246418940058
0.550876983614868
0.555152583516559
0.550908033778321
0.550105890968632
0.553900667427353
0.541768277888647
0.54570497544645
0.540814941636667
0.535008535627874
0.542145768879518
0.544604021613111
0.537180741916806
0.548603595779605
0.541093254679313
0.552032100127229
0.540071361611056
0.541336806984501
0.537123019335694
0.537673015112357
0.54743623064805
0.534963220375654
0.544880657979474
0.530487051145641
0.538380337666896
0.545228068815649
0.539105167554609
0.534992694309747
0.543492219740726
0.533120813418728
0.53812411322674
0.487682988467159
0.590757937311913
0.546953521237831
0.539629856033779
0.51759887512906
0.524566281882046
0.520461075890823
0.50099810478793
0.560113989281258
0.534741468491672
0.526621230559097
0.513664412880676
0.50340536828487
0.523116390261018
0.522790889137757
0.497104531210494
0.510991855774497
0.469247436742655
0.521641826453816
0.510106724749623
0.523374883802338
0.534284851302655
0.511701744645692
0.480787659708032
0.471320766842771
0.528276637611684
0.472748940094949
0.498711981685582
0.457174209780973
0.523204850105994
0.480690910176335
0.480985001593236
0.476001030603322
0.461142852438295
0.49085783475603
0.500429277341167
0.456796301088785
0.463516362078271
0.477044965511188
0.442057038930295
0.483358679659549
0.503025672718166
0.478867401350567
0.441149710718304
0.44513240097032
0.428988467241851
0.419689061928949
0.49253499902176
0.423689708086125
0.44579131091267
0.412608101487951
0.421816064102723
0.407803421947224
0.432513354352408
0.40916387509269
0.401890371723814
0.451722242280069
0.380301003944938
0.422329518369474
0.382324831458966
0.434963732111442
0.424519366780218
0.402398464801972
0.369666532688574
0.406456293214328
0.408811372114561
0.366615080378734
0.397208700829199
0.370286445965938
0.368025014541639
0.386651357542812
0.352145463952754
0.380984705490968
0.368211627367731
0.354265431692132
0.383445532926014
0.378458111136631
0.393617388503333
0.359617281099449
0.33400212083391
0.344516786964815
0.338319100035097
0.350752612442291
0.313207735885881
0.387056727140676
0.34375942375858
0.315664125585035
0.388852265887898
0.34353383931959
0.344207140410436
0.343568972258801
0.338566493129921
0.337005909401836
0.350484183162276
0.37760397620852
0.35302413237933
0.365855477055073
0.381724188460833
0.356782951790601
0.374584439968169
0.361953131607449
0.377320132766748
0.375044792721127
0.40068822865428
0.38148436025578
0.39470527798504
0.402902937612511
0.397510775655633
0.425009440761832
0.459279348612022
0.411321327807383
0.483848263782231
0.421225523623372
0.519259804832092
0.459702318110963
0.476604270343612
0.481519085753178
0.488466066129166
0.49744167034017
0.491804899955467
0.494670358981399
0.568059785665276
0.501600640271266
0.533806271277143
0.506734949810712
0.542594186276822
0.518640586337288
0.57834850932436
0.509966869939767
0.635815674498153
0.583356417529202
0.574541188119708
0.581606442789581
0.556484321300976
0.583195173841758
0.579725818188985
0.581504069836139
0.579395267358037
0.569204675799025
0.612669831569588
0.579699351446223
0.605377144155716
0.584360045481973
0.601226765499043
0.593009259786534
0.599066993947233
0.598942269174719
0.608816230477592
0.615285693912838
0.622922799754012
0.577507925206274
0.706177508065176
0.622195128852191
0.645414003271093
0.621577770758713
0.650891777032084
0.64560095397553
0.643931427004856
0.668578479764845
0.668962219812203
0.65905897593919
0.673871884895567
0.671722676051872
0.671362739214771
0.668151931907961
0.714235481003076
0.6626565220236
0.722177146323503
0.665647059217877
0.729103023324191
0.716361054314009
0.711467176935856
0.729644742703448
0.706177947566345
0.728302243671372
0.712053117172694
0.725658877024505
0.713893228225747
0.723874238314839
0.714392670893769
0.734255083597192
0.726416340162733
0.726168891292202
0.733107124872775
0.720556654828542
0.760023316679204
0.73300268927537
0.729911783234308
0.720477650315771
0.72992671467354
0.701537950921618
0.745435225660453
0.740193403240844
0.734049734057452
0.72519926037423
0.72364196652703
0.728209487381787
0.733294618552634
0.717339854350888
0.725584567843842
0.717955528572739
0.735134515012069
0.717567241861282
0.714431189006245
0.781157869050044
0.742212078784821
0.749613314566125
0.727958116084692
0.753733081612219
0.747817573183172
0.748969959239935
0.744096090193092
0.757132436302432
0.750327031299735
0.753036720052515
0.749288873262448
0.750896104231714
0.76830482152427
0.775137215167506
0.764711602076231
0.758058180983093
0.761273949641199
0.75954098113745
0.742283189083931
0.760833505269173
0.741122883636788
0.726401378059646
0.744966753449175
0.731222382188051
0.711971231243084
0.756386958902348
0.713716043397093
0.717710686339783
0.705124117756533
0.694058828538373
0.703037853307093
0.698704365248559
0.689209148101729
0.686733582817015
0.683708632039984
0.682763986404293
0.678216546092864
0.672444767667957
0.671354890950392
0.675196444694069
0.673917514159639
0.66731251604776
0.667818555289401
0.664366426932076
0.656052698681296
0.664224744862659
0.659305154337657
0.666085311230913
0.649347958256286
0.661414801622553
0.667675694734561
0.674747473148125
0.667746810313227
0.658276565718099
0.66901772278155
0.653446325696921
0.661947041487383
0.646474385587184
0.663952282119003
0.653271340516554
0.653435109323817
0.645351273723794
0.65488371263578
0.657398518688558
0.661782888759641
0.65246107783164
0.659742644365358
0.655454660358705
0.655599407023488
0.650034338930961
0.65838734362591
0.642325487875333
0.659737423474763
0.657902503655591
0.65438437425007
0.665289018251019
0.652416638851093
0.652713414146604
0.650205107108166
0.652615636009069
0.652915258763096
0.650045750451519
0.655360248055824
0.649159245807099
0.648703455953031
0.648851999100612
0.650645280381034
0.647414304573168
0.646732007134661
0.638917310975657
0.642042963237224
0.633704641062202
0.635304193079215
0.629083043458318
0.632272676706085
0.621018399033773
0.61902561984612
0.612239320369855
0.617814678153446
0.608850527630897
0.599265399842892
0.593106591498722
0.598532323820607
0.587605793113382
0.590966220383131
0.583608796330349
0.577710427034615
0.577594754546594
0.576260930435679
0.574539536335961
0.574228869082254
0.568239040964407
0.570021597945108
0.56643599637506
0.578762165843511
0.573284461069255
0.57205249356478
0.570361134660477
0.575962384797868
0.573983777815822
0.579652752602552
0.581489081844024
0.575457595139272
0.584313077623216
0.587779859801406
0.589971780930686
0.58996163007522
0.589133938307249
0.591983501191194
0.594806016639432
0.599538043045815
0.597431675697099
0.603354305697644
0.604985002827049
0.60352889608132
0.607645691880271
0.60739996705188
0.601608879478924
0.608799473989199
0.604747614960063
0.606947396051642
0.599509937179433
0.606332958894209
0.60536938302472
0.59919745941925
0.601215214879349
0.599150850218061
0.595105903168704
0.602470091043055
0.592421213470647
0.598627885436262
0.593260242649671
0.588914058339506
0.590041345295818
0.589423278058384
0.58599043115552
0.582980285700338
0.577302155425688
0.583875269771301
0.574736039322932
0.577515287470981
0.575536791583321
0.570318934481312
0.572226889369621
0.56700432503969
0.570047219875404
0.568576227642746
0.567468738261624
0.560126449858601
0.557982911330318
0.56292530133448
0.555014656944463
0.552093411665117
0.552570982237528
0.553031116058073
0.550154359563485
0.546776058638956
0.544901475415515
0.545546009745191
0.540444143569949
0.541121912242926
0.536250100438249
0.530897690501832
0.520328367728053
0.521198701337432
0.5169827905758
0.516632791831254
0.513564337964759
0.508207566332859
0.501938381209521
0.502482790581564
0.499990595276029
0.493959034983099
0.494590797593891
0.494451269393
0.4889558042976
0.487342198903374
0.485299606892415
0.487846088566721
0.481821852117882
0.484627246009255
0.474163338832978
0.476625438375638
0.476195772975435
0.47236338723318
0.468533094037967
0.4632254870629
0.455861236111172
0.453655862896288
0.447071406577425
0.440366114816339
0.43590753927665
0.433148396531095
0.426447783683109
0.424443764615301
0.424173601310453
0.425630164457264
0.426006609490672
0.433990793877334
0.438394376784352
0.442259961385896
0.452963686833768
0.463654242886866
0.472917471895838
0.487666966687027
0.504367640371127
0.520459426290954
0.541650090526222
0.560196920226317
0.577101401359719
0.595438772712462
0.618662813974098
0.628340712554873
0.647141125930447
0.671420873478732
0.689153671857411
0.71360751089723
0.728843431612114
0.740153293717536
0.759709521143408
0.775538288812595
0.791993917819749
0.808392686685622
0.827684052766101
0.843476226643159
0.855649457547319
0.862115871608787
0.863987196920487
0.884579037261802
0.894328160475881
0.885254770122001
0.907752825413468
0.916704069933497
0.913089618395354
0.918256050389011
0.925872099491388
0.930574687079683
0.930627940073096
0.921089568421983
0.924570203157677
0.92469186136279
0.92135595085074
0.925811241253993
0.921910433769954
0.929111736695634
0.934104271961238
0.93538488602483
0.937671217713953
0.937573196207525
0.948264675115056
0.945574150642951
0.967746946824635
0.968836383041668
0.977762885352611
0.977653842302938
1.00510703883196
1.01809905845743
1.01715881756195
1.0195554619869
1.02797584312212
1.043636341688
1.0617258700863
1.07733414085727
1.09490637274724
1.09684161894442
1.12795921063551
1.13293829321504
1.13535048690327
1.14086592710797
1.16663105737869
1.17079324783465
1.16200505926062
1.14999253451218
1.16987043065326
1.17373481888758
1.17174384244126
1.16508852756772
1.17466213674475
1.14265188311975
1.13935175511137
1.15010645991077
1.126381806342
1.1370464203826
1.14619645092724
1.14989002055534
1.16569440774602
1.19187775731607
1.21618289350231
1.2414875002531
1.24296350575749
1.25257344915077
1.27911182751149
1.26291935702391
1.33363609894787
1.33628446444726
1.32631556685438
1.37563265267506
1.36765027705808
1.38819832819609
1.41676090687301
1.42409937095032
1.46593018655247
1.47756646131894
1.5222937591829
1.45581079300988
1.48351273251945
1.55331641960826
1.57112891706078
1.63689004768284
1.65746528280385
1.68175801931436
1.77211206119407
1.68549327510377
1.68468886419259
1.73785081154871
1.72343853348979
1.64440125461986
1.75962780104536
1.83831852446371
1.87464876545916
1.77591756397386
1.85846811846783
1.88340143576874
1.84443167920749
1.88746454269705
1.91036495791275
1.79027508497429
1.83034273647098
1.82959626538278
1.88941392855846
1.87236496648893
1.88508224470795
1.83374739485492
1.78771167197821
1.77511370413599
1.89112310287109
1.83390309540891
1.83187224624887
1.91996704782015
1.85445575624514
1.86415701960193
1.98757473627564
1.8590599341935
1.92117172349693
1.95766858008785
1.99884530935587
2.01963663205255
1.99686171388991
2.01044428011396
2.02856313279133
1.88443981132207
2.15221477189955
2.24603408672354
2.20211381881024
2.1237167942472
2.15039532767353
2.12878400950776
2.38479420462679
2.36369569420973
2.16877402737929
2.00305375059393
2.17159276214586
2.30608284417299
2.21467570392171
2.14936737148268
2.40055400774212
2.10668742947419
2.29882541293868
2.34646072584434
2.22062179479212
2.17129449764027
2.50686335500049
2.03250870759959
2.20902118092194
2.50607342388579
2.4077119391022
2.15154317285651
1.97042145013332
2.0747711951632
2.11343896934445
2.16410974019675
2.06303074423406
1.84512097815046
2.00837661386594
1.98262486420415
2.10969282048819
1.91879245894536
1.84909434374537
1.86922595361788
1.84796033562904
1.65199269652013
1.66716114323872
1.64261864372568
1.72217881550763
1.6406956618097
1.64169500930246
1.58390270235976
1.61367574248866
1.58569025664922
1.57966338415704
1.53725888231828
1.54173979850731
1.53497357900997
1.56979546820277
1.58331544794968
1.61495509994312
1.51711428581008
1.51600327952656
1.4627519996669
1.44546954052291
1.43919282102842
1.4311348151103
1.42001043558522
1.39172280811487
1.33200924092816
1.32319869932549
1.30128620583096
1.2817706511362
1.2245973107089
1.21135873942676
1.1451587001917
1.11995500573369
1.09322950335394
1.04709876086016
1.00409144532788
0.964269444185957
0.939114197550137
0.898103010132619
0.867423233430768
0.835938654811424
0.81164437744257
0.797568214944085
0.766682422605759
0.753502351870431
0.728023389634029
0.708753609189739
0.70616317597437
0.69115002665833
0.676716240487811
0.670397508752762
0.656234405443518
0.656067769535262
0.651877915649068
0.64370236623312
0.638037228366554
0.634583904492536
0.634073322269418
0.642644646231953
0.636558431352852
0.639900853114861
0.642507173015259
0.646675482663073
0.648819853742876
0.642923298875069
0.635571804282729
0.638177900490307
0.628924798174129
0.623345028216778
0.628568740895311
0.619071037071659
0.616945166220921
0.609648766439823
0.603589927108681
0.603300356226636
0.589999099304947
0.588365982736433
0.587709355731899
0.595180965418307
0.586510851843277
0.587573966861992
0.592582348236797
0.596445358883379
0.598745621545918
0.600253688705435
0.595596796459292
0.596916196014104
0.615286342278632
0.618509962648864
0.609129822081596
0.620159555521414
0.614787157753171
0.62516531533683
0.624367519407354
0.633262006097659
0.627258902581871
0.630635593170573
0.633138038007789
0.638164866739977
0.632910088137188
0.63180791330476
0.62010993272653
0.621270893088388
0.633875584881604
0.643386664455372
0.642582868647585
0.643167368869746
0.651603076831378
0.659742180450155
0.661508514140091
0.674546208961192
0.689172280440155
0.720040951134265
0.726798617167391
0.741268388992254
0.748275238725227
0.773517759183264
0.784107278723324
0.784243542357876
0.801297401613268
0.831714632117638
0.830631042401635
0.820601049838484
0.792738326807459
0.810460319731533
0.802236505999811
0.774367444955941
0.76573299778595
0.780763189518575
0.766684265628159
0.761817332937318
0.744197887774156
0.742189031650106
0.752379583481714
0.735472904989177
0.74482178571393
0.7376033172884
0.751315961730304
0.745460791564611
0.728714344830279
0.765529165157474
0.740002151876451
0.755967200843868
0.73104383454362
0.721404256845187
0.730718515135897
0.720916218064895
0.697612368772066
0.697189986563112
0.698756786148045
0.692841469201354
0.680226534679464
0.697837263293995
0.71025313275238
0.695665514184806
0.672544522549966
0.70160603964361
0.68196594317898
0.671325469920314
0.688152804633536
0.68801250375285
0.685505964973188
0.680679069792585
0.647525350811203
0.652367395996693
0.658237859609912
0.670660109462347
0.661907105857924
0.646950139915694
0.651594090138931
0.660428021203894
0.64860102198053
0.643314565813781
0.639105962594786
0.64330811171185
0.628993985208621
0.643826538525364
0.628222149711991
0.624484851661272
0.640196033434154
0.632454012919056
0.622753243635942
0.613373339855868
0.613790917553245
0.650428075503531
0.621550268315767
0.630811348485159
0.625523508136338
0.6250679882167
0.617460657665907
0.609786004399999
0.61212335674532
0.632092355804572
0.62375699583621
0.631464927661921
0.625087062925611
0.628358107986757
0.619364658307197
0.629091009814966
0.608167770121682
0.626859519502479
0.634105157177671
0.650235009724256
0.63195168219069
0.632882693211173
0.638240665486557
0.650880896085294
0.63979050575774
0.656969753012872
0.67849318986505
0.65294128991189
0.665785796077906
0.685230533763363
0.683725880012684
0.708507319633627
0.678658263652903
0.674477541315034
0.708657490519496
0.735316355387353
0.718172365981517
0.696011222995851
0.725289388917021
0.76932529394884
0.746074588497927
0.753046916799166
0.766233496420243
0.808018437068339
0.817994156177678
0.804010601328848
0.879790042863428
0.908081051800953
0.875961812922231
0.90303981297785
0.876703471711358
0.916701818923441
1.02455346533142
1.04227401190545
1.03800099022989
1.04008982079966
0.959011231527265
0.973373019033789
0.933847781004522
0.940383083674859
0.960143098436606
1.02044243034225
1.04138428176864
0.987864835160313
0.955185368436942
0.962806695299269
0.997844470917642
0.973875154399894
1.02557970197714
1.02045132540272
0.96077725171128
0.980634877608732
0.966161228987302
0.956873857908025
0.968098227820231
1.01014240241062
0.984525250387554
1.01160161741486
0.959453319371943
0.943473560887259
0.952795829677998
0.937148080984763
0.913252213516384
0.926009128704493
0.902922524827308
0.948636478585563
0.942327395154777
0.926653744796475
0.974007125716232
0.917583670682824
0.914260177335391
1.04723860609889
0.957189818560533
0.852994177083705
0.863443031784998
0.927248588828313
0.924916988030944
0.86050022805622
0.882500673909813
0.946970415436951
1.0396369298964
0.978100415034113
0.920040280120918
1.02338697826702
0.938772381665825
0.928266267588293
0.972291001184655
0.96451370996699
0.975398528067502
0.95957693779227
0.891455498571479
0.962036008599168
1.029967131313
0.932866617948996
1.04380600313354
1.05921950727179
0.937965369230829
1.00825677831356
0.98442167360351
0.954134384357707
0.984304923919245
1.01399039325444
1.21115973322056
0.987991637956743
0.914331979126008
1.05706049290921
1.09027869431397
1.08237241445826
1.13476394819838
1.1436978302639
1.03983149672498
1.11309357270848
1.09198679199961
1.14440762489884
1.04590400490996
1.15464545532794
1.57316846530517
1.27596069761397
1.43236066708356
1.6697646250967
1.20054659046459
1.19598801272967
1.61331066911398
1.33931967457601
0.932526840198843
1.11481852182283
1.48986465173915
1.10032299604011
1.15472667758489
1.32130893383118
1.30198224589944
1.61118789621298
1.45226362582732
1.04787141426081
1.22739431498575
1.09481976130113
1.13292755104419
1.3286553599556
1.17057747486746
1.31075412438073
1.33889493304176
1.04719002368686
1.04433997819717
1.49805360325515
1.28880134912993
0.91990092407759
1.30135482735066
1.24653901051924
1.17376551950741
1.31002781256344
1.23916698266007
1.54488144362115
0.886759778086718
0.908219790825698
5
1.80768245874876
1.92336344839268
1.40035250003071
1.0643167151071
5
1.16710140243124
1.13695995820234
2.34896912511403
1.76626911145608
1.11025498322576
0.879289938687363
1.39824775871666
1.02035635247887
0.917659486307766
5
1.09047715570401
0.85326034124805
1.26483214525422
5
5
1.18315920128077
0.737167968826
5
0.935925995515016
