3596
4000.36533379555
650.420452594757
1
2
2
0.0685767901124836
0.0711938282779735
0.0688549810109592
0.0657916492277389
0.079420275973866
0.0674809559465614
0.0771554034233777
0.0786241916059389
0.0718505829909336
0.0761903023457215
0.0877870936874143
0.0747550138223687
0.0703785190380539
0.0745047755816146
0.0752695672127646
0.0755310790166749
0.0738445259412176
0.0668229885553341
0.075033711527668
0.065557060761826
0.0773650002154719
0.070203085850724
0.0734896947281266
0.0622514192589051
0.0768334244627579
0.0776711035580964
0.0697405029096512
0.0724449801931105
0.0853633266854627
0.0762665268999597
0.0806797756173823
0.0688710535276188
0.0770954474375221
0.0716550952999003
0.0736462398257689
0.0785534522327901
0.0723794780561711
0.0717404256977485
0.0781619689960703
0.0745613985334318
0.0856381491185842
0.0694909475421368
0.0730533376942487
0.0739728206664195
0.0769442849580085
0.0753202573243159
0.0812139644127462
0.0776442860490754
0.0739218855270195
0.0716694908242557
0.0804251787022764
0.0597113736326397
0.0775643345268531
0.0766887190552496
0.0733416679209081
0.0814587325773418
0.0706379482155665
0.0707230430035059
0.0756463809912532
0.0689566728977768
0.0739576217272527
0.0808731912525627
0.0646269301428599
0.0694858414504239
0.0684837998630161
0.0687670349334095
0.0719418892124189
0.0595037640406623
0.0677237119612058
0.0696172989622539
0.0676334113360768
0.0733273972194364
0.0864953528046081
0.0692131342046121
0.0797896832602887
0.0631753033422687
0.0713818678047554
0.0645853088101696
0.067357020038822
0.0796628649299705
0.0788041051132806
0.0649890714713121
0.0772960371646702
0.0604444880912348
0.0645061900327769
0.0756236428994994
0.0614074917467243
0.0537130386672003
0.0865776478640443
0.0700530721773858
0.0761239845194056
0.0634863589311456
0.070822794173996
0.0660091642026747
0.0709994886886656
0.0612127739150295
0.0695843968062472
0.0677674606490233
0.0732083244210947
0.0621749967336992
0.0754024541976904
0.0511201545997734
0.0980047457302118
0.0518137933283546
0.104280285381171
0.0826392231304811
0.0370548577110021
0.096993498330425
0.0694028794586794
0.0656934737393019
0.0664834948075916
0.0671958029292926
0.0642262978291007
0.0683590974802296
0.0524716179736177
0.0582853887399383
0.0957131300661898
0.0545933303347787
0.0717523795569402
0.0559856894410185
0.0533190381811434
0.0633928507540576
0.106326128755231
0.0553661578108114
0.0721751422442208
0.0544583338040949
0.059174672209653
0.0732510534837997
0.100833760391323
0.062327594487483
0.0698571735582533
0.043735450870302
0.0591870069632791
0.0349874158204335
0.0989357324178352
0.0654575250377765
0.0668364561515883
0.0437397687328059
0.0665442244571858
0.0952329965833984
0.071440910399503
0.062221912369176
0.0551473399006973
0.0399580149833755
0.0910369596856454
0.0556800670384432
0.0558591473701342
0.0642534189680867
0.0806605263787824
0.0582667490656037
0.0675367913953026
0.0458515535488248
0.0785334406283748
0.0609428342291546
0.0224630847646217
0.046228810808686
0.134851592807274
0.027023960341684
0.122489296832929
0.0616406920682185
0.0629273208779204
0.0616736429365602
0.0725241687124232
0.055490420053323
0.0626509640518471
0.0528454775244769
0.0631431738637774
0.0844619917470084
0.06141637822992
0.0581474738539023
0.082268543032249
0.0624334949324254
0.0392583719421144
0.0867781575366311
0.0821683863030805
0.0291359822774879
0.083117807427626
0.0721657688679651
0.0588774563908089
0.0506340841365562
0.0960129538920699
0.051215880046156
0.0604018311804127
0.0480929746305325
0.0628066963474595
0.0611836767120086
0.069730760711504
0.0533581961739287
0.0619154067791071
0.0281545684692355
0.0628296349966467
0.0852509652777932
0.0900830235570539
0.054610720016796
0.0671230294276553
0.0216294117988227
0.0655741537604285
0.0951554294728478
0.0632271321808056
0.0580413692348862
0.0619935573830395
0.0508106946122392
0.0633223268412567
0.0428711764337878
0.0579700057489015
0.0297045329516786
0.0919970986670803
0.0801051188535225
0.0632640950681445
0.0607716339172133
0.0551033672928681
0.0447973294179304
0.0861091523463387
0.0941109274709094
0.0647871968583325
0.0631686599520023
0.0487357550691158
0.0641242639953751
0.0796967015254955
0.0557318285790717
0.0649193548846169
0.0555131926059873
0.061434911027125
0.0637195027752545
0.0610963828038704
0.050313664455629
0.061347346986394
0.0565315195984525
0.0633190872320221
0.0598992078804389
0.0706572575959353
0.0613585075505437
0.0628392901720824
0.0541987474516525
0.0571263849813437
0.057128085353192
0.094483220606219
0.0606727529948472
0.0701590312636344
0.053877435068924
0.0663970176718343
0.055561069872842
0.0672102148828386
0.0503602395547426
0.0637946072232388
0.0464834725970103
0.0965355246475561
0.0744547744014009
0.0589060432918201
0.0595145335750592
0.0634979639569865
0.0794041779696514
0.0677969070006553
0.062965262224951
0.0585511671596417
0.057875900197495
0.0482896327582404
0.0778973645857905
0.0656205745473103
0.0577327969749007
0.071538757158667
0.0774727469296418
0.0622662544277702
0.0550938734580549
0.0376572809021322
0.103025040006478
0.0747273223222786
0.046823712026481
0.125668479741062
0.0790060713675114
0.0614805874797326
0.0681608740512475
0.0222597714162937
0.129580526567816
0.120575402089211
0.0648849319833584
0.0599023433020086
0.0746168491714831
0.073700809896646
0.0535596282231095
0.0728365273783465
0.0567524333027943
0.0963087371070365
0.0866241941360127
0.114906235730053
0.0588559630006243
0.0756185962521498
0.109784303900935
0.0724133348589446
0.073275334486814
0.0625393512577985
0.0623212793540187
0.0729481390096749
0.0860389464847022
0.0691193842716973
0.0766163264648795
0.0656592441355669
0.0925565708569402
0.0779318031585209
0.0607552140425632
0.0730312643676108
0.0764838850834218
0.0662652684045829
0.0660381831788992
0.0757989338230663
0.0688738437463883
0.0719460093351675
0.0530783200651559
0.107068552947413
0.0773698409686695
0.0698540378546111
0.10114117423845
0.0869915158465433
0.068021506423435
0.0735232812765351
0.0676521809947325
0.0805474672840412
0.0675735157567041
0.0703276901971817
0.0935497808894675
0.0924854882665202
0.0728401283202184
0.083442270145709
0.0710026018409846
0.0812180507803462
0.0674092428426502
0.0831972276016191
0.0809240644638036
0.0827981834040838
0.0739785085428462
0.087599305088871
0.0951106386934283
0.0722913416098851
0.0905871653255304
0.130690659034005
0.0803801108595787
0.0938392275327498
0.0825584839144442
0.0896521025829749
0.0842418980773207
0.0933535480610892
0.0803202514347677
0.0895793219797973
0.0960828303892658
0.108735935670794
0.0912408802679297
0.0899686679032756
0.111196655360036
0.15110529257284
0.115668213164387
0.105453780068036
0.0817459355982622
0.104776245878848
0.132576295581002
0.11111957351875
0.125036207261851
0.107581455968892
0.102991660946241
0.112606832258747
0.103499418036976
0.108949952906212
0.110738988477845
0.121359441714487
0.107855058548239
0.125029583475675
0.116103486264476
0.111926566856225
0.102605836096239
0.161526451144884
0.130833603118869
0.124016093432281
0.120232990861404
0.125570767401259
0.12400778969936
0.154668329071763
0.132286618301059
0.178782026938382
0.141602513384681
0.182903482164946
0.145524527028497
0.151440409822041
0.137235628605103
0.151698033020837
0.151514117395822
0.160985593606022
0.152552488262934
0.162693226625822
0.151728336366205
0.174383630746335
0.160016189983274
0.159974599970202
0.165172334060807
0.196189504388845
0.181901753319806
0.170931238234183
0.171591562168744
0.1754540069029
0.213222465777255
0.222375045875427
0.196645684194777
0.198069611391133
0.203156071405642
0.193422671688297
0.199333883361678
0.198570247294082
0.203057918734482
0.21950340050072
0.223526196235893
0.246806882035833
0.215222538039379
0.238402242079541
0.223387310797904
0.232353746355976
0.234074391727154
0.243542129677884
0.254784751591458
0.25057570182136
0.236642831683768
0.259787151664169
0.255957084194943
0.254313777855293
0.273257561084816
0.263431205296791
0.253891684085138
0.265970084195411
0.270402777040144
0.274494037384513
0.260031280973754
0.277300346896447
0.27911644894474
0.300217658565793
0.278510195381602
0.298746569603587
0.296335747037291
0.310651889108696
0.305973621795529
0.317300946482352
0.29274693767835
0.31292442173836
0.317529704489443
0.347944174842812
0.339102626347161
0.339546381443755
0.338678934466804
0.34370165314421
0.319867526263295
0.342234028097164
0.337610549818858
0.347707430216214
0.345751070329051
0.367362943668734
0.352504337659956
0.375415037380778
0.363944743270165
0.382732461854191
0.368424755653384
0.394682869473886
0.398982906228462
0.404423488923638
0.376456736015724
0.406372258604521
0.404205853864831
0.428114372110759
0.435418020509231
0.437714166087027
0.419874099960775
0.415567382761757
0.427128365006391
0.457560304672848
0.428445671121121
0.455129738415406
0.46585332468384
0.468026227957541
0.445656595175354
0.485968996322948
0.451054067929616
0.461368542771623
0.448332524075983
0.494142754748921
0.482163650522313
0.530260812208968
0.492625209553694
0.533259801280535
0.506556678929658
0.514198398772633
0.511073235608273
0.534074043658374
0.537195663629576
0.550724422494952
0.532396324920114
0.54232771771069
0.543075303824031
0.573093936012761
0.538815695875462
0.570087245662899
0.575084613153935
0.622174869780905
0.571958867767744
0.592770223791962
0.564281314999413
0.584634141731345
0.600360621160916
0.609444437511885
0.57513217557976
0.634491442314801
0.617596412110993
0.665407236263801
0.625046183589961
0.6341629920969
0.629777530145716
0.657240514780005
0.656957645903392
0.690541691170793
0.655062928615394
0.705094833252962
0.695146600374179
0.713422039399101
0.660994073103283
0.71237105122402
0.694169425258887
0.710302597425777
0.699929643633996
0.731778399052524
0.680779972353378
0.72905135033947
0.747086252538707
0.74946814994088
0.709100322188043
0.741958632073385
0.726047007010768
0.765736092781619
0.735696804571464
0.768844307566927
0.717667700814334
0.762073266966808
0.793750118425342
0.848414944253903
0.788090527054169
0.80688152106415
0.776142033439962
0.862838419018819
0.803538659935481
0.802449194919723
0.816112292871867
0.875061400246643
0.89183944842191
0.830361696540914
0.819779216999149
0.894628380300192
0.853941452970404
0.86487116522662
0.860906900620707
0.900712276856968
0.891943886707595
0.884392083544465
0.84897180433139
0.95250007151531
0.887598901782824
0.914115087342232
0.875048133569023
0.962163715626313
0.89002195337868
0.950447380440152
0.911154473533542
0.961562750457351
0.946369175025362
1.03693733291538
0.981697207358974
0.969678982954357
0.937035775749422
1.02535887565381
0.964191128994993
0.990880188393608
0.981541227629877
1.00581597967568
0.965305698817184
1.06169407674911
0.969417587360437
1.0405224493592
1.04879040895876
1.110455695696
1.02846637480598
1.06044232225537
1.05021167668143
1.13789517868305
1.06149777399531
1.0273269129485
1.02098919582352
1.06333843036407
1.0836735650929
1.1684881870434
1.07834411329169
1.12325297243892
1.0867041816539
1.12888480164027
1.05242868907027
1.13441652193389
1.1373693751581
1.14542325676775
1.06765837651566
1.17445185481088
1.084375454319
1.21829892746277
1.14801858160251
1.18477111380155
1.10037561748538
1.20045973025179
1.17042684274289
1.179079638494
1.17592439879776
1.26240679977189
1.18226726041295
1.27157386918587
1.26409026909691
1.22241257720108
1.18863328118957
1.2107097842715
1.18428757854134
1.32511265144016
1.1498125273786
1.24030136075746
1.24749904060165
1.3173865594993
1.25742132361033
1.45646622440944
1.29570918864093
1.36047157097983
1.20218385740518
1.34390832632574
1.33099691951256
1.36837010972372
1.2767380840775
1.32329651022023
1.26656998713408
1.37236209130259
1.33909118435569
1.34593313376007
1.20756969849118
1.32965144295374
1.32937778897594
1.35760359672801
1.22344169814599
1.38761443969925
1.3239325789751
1.44119358947068
1.18614062244443
1.4656107317443
1.30424843076913
1.35949271630015
1.29119295945467
1.47719250492738
1.38320302904706
1.50173400068712
1.3609321509305
1.44820203802192
1.35680553255906
1.45757376738071
1.3416333024519
1.56274620420685
1.3924123955533
1.53347589287649
1.39563644308969
1.33340562275481
1.34051981752263
1.42540841864494
1.22616088508886
1.56145665983429
1.41694700424119
1.38276359339388
1.34479205852035
1.4302543450841
1.29068799343227
1.44632038227543
1.37834736098369
1.56409702215839
1.3963286210781
1.42976879568567
1.41859374535629
1.61104232745815
1.42420254303351
1.89116909695526
1.49913885841038
1.55382260401891
1.47389608004986
1.72676555493608
1.40263739601276
1.51884213755202
1.43202723559545
1.71387300049639
1.46194959283737
1.53190860667573
1.4761893869831
1.63700390303363
1.63055120680911
1.53021191380881
1.66911977730972
1.572052599579
1.42789200977405
1.76979257679306
1.5479053651542
1.6028825004449
1.48909051383201
1.93330153805471
1.34873737659634
1.32977767750286
1.71619549897793
1.6106669921625
1.38928045144331
1.46803252345774
1.48623921417538
1.71274169552983
1.5382514312356
1.55336469281089
1.50671189144309
1.53882797352836
1.54183182527637
1.56843481616154
1.49889066795353
1.61199332752
1.4066539689228
1.57011932553619
1.47829552938337
1.67398357372573
1.55387257428434
1.80935866453056
1.57404622867937
1.72170968784221
1.42662247621032
1.53457877938335
1.5847536837991
1.58958506675086
1.58186317442505
1.67989800034668
1.39324203723108
1.58395148013062
1.47460074372091
1.66920140831024
1.44363644683242
1.54255229009065
1.57243379035158
1.5505571925933
1.49291755710012
1.52895877287312
1.40307558276504
1.64836213375455
1.48687424389184
1.6561755351925
1.49722930531876
1.58850358738851
1.5444846085438
1.61792808257762
1.49945783880933
1.49347784268558
1.51543310444968
1.624812694733
1.44935486265551
1.69763592366024
1.47097404803232
1.91972006716854
1.43958913907467
1.7629742315138
1.59822468176147
1.52946797847669
1.55212591405256
1.60365944018109
1.61335125996311
1.5683162869568
1.65288901077916
1.55461039481171
1.48943075342301
1.69077071827014
1.67525267598189
1.56704830175581
1.39941749829224
1.51680812274963
1.6028828583979
1.5422005952739
1.61018361375963
1.62472466273984
1.61319916784344
1.5119082342329
1.42242455458405
1.69671109837656
1.54393400459874
1.57577966243897
1.59925727781929
1.76257334201477
1.62927372105483
1.66724187520105
1.65093517532122
1.6845926146395
1.36869674177973
1.76891345881081
1.65842938072522
1.62930549924087
1.46195883522524
1.5474769690542
1.47041967751997
1.57874828774446
1.43405327701296
1.60539288186756
1.42030040073712
1.78836515200599
1.51359613802904
1.66218540514391
1.53603550607333
1.56316157343345
1.40067717539889
1.5900823227393
1.41095369622282
1.50718354775403
1.32268073292849
1.44592230027796
1.50469050310598
1.70687051098048
1.46198312074723
1.53960910760992
1.45574826944847
1.6157228263161
1.46145838148465
1.50574721434899
1.40511335621702
1.56336337065798
1.41814177693355
1.51442889671297
1.43828264593109
1.44882648326015
1.46487424796204
1.4147712047592
1.53911674204106
1.56556550444427
1.38432813348211
1.38868519309001
1.41646504460748
1.48144443913313
1.5069930189867
1.50876000089639
1.41017539396867
1.30692785873963
1.44058336823084
1.41269447933442
1.36752488508372
1.47338894868199
1.42943266803363
1.45298550983425
1.46856950021034
1.35564414445999
1.40298618225878
1.39917618903456
1.43934695177305
1.40980949401627
1.392605983413
1.39210470258211
1.32277149598864
1.39189562864128
1.27456645303863
1.31159051549266
1.28445888258226
1.44187511878964
1.28345841511607
1.41998002263407
1.3708799707381
1.3485207707546
1.3077101559513
1.35281372296454
1.37131488640529
1.37223817294874
1.35662539142056
1.29774949619308
1.24035162454125
1.33136515139009
1.24290114600205
1.33235800741357
1.30274415800295
1.30345384871141
1.31765001016545
1.26650400871025
1.26634518806374
1.30322737184072
1.24308243989937
1.32289207294682
1.19650583307321
1.17824394390142
1.24371153422087
1.27422363751913
1.18889246367711
1.27739722513195
1.21044214888941
1.22524219651904
1.20597343225716
1.29340997963446
1.21946086888649
1.2200182031739
1.15857962506316
1.16307159796132
1.12474731110532
1.18171914280985
1.14184932146875
1.2203305994842
1.14899221358482
1.18202842436217
1.15831405558239
1.16770663408601
1.14488459830629
1.11124587305856
1.08663955724545
1.15812960358624
1.13293430781441
1.1168321330943
1.06704875585189
1.0754322910576
1.10886438439909
1.10880850761489
1.07927029578773
1.10235349682956
1.05182081247029
1.10745035873842
1.01158838975504
1.07731892567275
1.06047224679358
1.06745586672493
1.03763695494115
1.05561933301429
1.00279670632769
1.04929287658603
1.03237414573089
1.04847956896338
1.02417451959814
1.04059951085432
0.98373970938632
1.01513241614089
0.986949298840099
0.992304348683337
0.970487794030163
0.996538170504015
0.947631705115159
0.929431694945655
0.962084791059731
0.997023612046951
0.935504930234874
0.956271239930447
0.937890907083775
0.93848863489797
0.932429147802455
0.936015907532784
0.898227025867493
0.940439999821812
0.946856815392416
0.957492720275069
0.89191658880367
0.910129120976893
0.913288892188914
0.934971126416608
0.896997915431389
0.904012900742589
0.855935817138367
0.887334682686338
0.874328467628223
0.904087576087153
0.84439465353464
0.880703385419905
0.869594151247658
0.871714333574791
0.865412069846452
0.86945396221275
0.824781527389589
0.862583117665243
0.837110673823902
0.836567790952374
0.820200847692462
0.8360626816198
0.801749626126365
0.845919803084339
0.797436100362226
0.835558645466611
0.779140771098022
0.815241209876495
0.792694339252086
0.801523329935954
0.774050851484274
0.801267583511372
0.782665694107865
0.799948004180421
0.770867266323835
0.79133170826439
0.764926641519174
0.795346841943161
0.747928396362426
0.764969250649266
0.744760172884041
0.77731116676281
0.7568255333144
0.767938237461606
0.714829856022397
0.754399182338713
0.738874415479959
0.741760154433184
0.718520293763454
0.754592649937306
0.714877127129857
0.734942043651593
0.703104084185841
0.730180025727255
0.706649236284028
0.727090365733656
0.695304973146003
0.710288418428297
0.675017767832252
0.694062743858705
0.689448297371516
0.701376118228115
0.679405582420151
0.68890648928693
0.663328029635385
0.685380296034335
0.657744660485611
0.676823660973256
0.649101201835184
0.656271201724616
0.644139266136842
0.663145310556995
0.638080095262304
0.657533863827715
0.632746267378927
0.652380128994125
0.631752038604392
0.63273278344011
0.615455555243075
0.642258791753315
0.611837716206394
0.616175926900282
0.621614319225465
0.617158383083285
0.597457618718556
0.602454322391921
0.598702600578714
0.612938182186609
0.584926305834003
0.603592820403647
0.590994028528067
0.605292024159372
0.588269784834381
0.594882601712823
0.568569874192374
0.588181219769465
0.570214500741528
0.582837418108458
0.579321853263467
0.583657600626826
0.555008008655784
0.549969731119946
0.552072873797779
0.562144460516855
0.55130529569663
0.568984910610464
0.544901077795866
0.556704981566536
0.534061174279371
0.564630333272979
0.534688955428384
0.557627648908297
0.527626295726442
0.537576377949054
0.526349151241787
0.535647418408079
0.521338030527481
0.540622271675297
0.520691706925153
0.534404912621388
0.510946442437162
0.531276010503544
0.5198947760935
0.535212465847023
0.51995119669973
0.518466495640747
0.502068711098895
0.523997190180844
0.509971995611184
0.529340504220115
0.50029046558606
0.512474041015095
0.513976132328816
0.525893258640955
0.514873006701379
0.520515424889933
0.502992804124592
0.530451945059334
0.51472819691007
0.526815651675675
0.508432003491972
0.52023009929632
0.51781523578503
0.53919394065128
0.525854861810602
0.539360856312872
0.519435954234629
0.534126393412152
0.533081516026771
0.540692536376065
0.535961175809388
0.543688185117145
0.536044302611623
0.553367908576509
0.533046238529061
0.552971749644812
0.543640349274276
0.555429818424722
0.555371422751299
0.566116568055562
0.544265981549959
0.562254182167967
0.552044452597673
0.571151359556235
0.557683409251494
0.585253591470945
0.571796500691299
0.596343785999076
0.581093674631776
0.595296550253758
0.570187951440052
0.588264606966908
0.577792589211317
0.597822459044811
0.58731187349281
0.595836730222453
0.601553667061154
0.609662559462997
0.596481865480154
0.611083691635925
0.608385812735992
0.62763450488244
0.610512680003181
0.634664861494675
0.618797904246778
0.651660695015776
0.643412857205828
0.659265887304394
0.644761038291061
0.652863224350041
0.652246347680667
0.678467596182926
0.660929033100635
0.687161888705256
0.678600259707132
0.699416795565923
0.677953842701488
0.675611771547469
0.680899577405778
0.681131208502161
0.688370467785795
0.686108523141147
0.676730987561398
0.694410822786505
0.675468949546328
0.706597244215531
0.676347493679432
0.707883901448596
0.677080666996372
0.699633023911473
0.681605247488035
0.694193824511865
0.69427241254018
0.698572202661002
0.666846880565351
0.687283045407358
0.66803753512935
0.682927064934826
0.662741170546439
0.688354628445083
0.659596396512394
0.689723601065876
0.675611596482754
0.684830407266464
0.676867287661101
0.682233870853505
0.686993373470466
0.675551979245018
0.664828090086372
0.694863664938084
0.664216860382795
0.696038580411513
0.681101456591298
0.686168505756305
0.678851178847534
0.683843238283781
0.674683577342413
0.69246156285853
0.663136257492264
0.685682993177565
0.662061251750251
0.685116863661587
0.674306535708562
0.691091291425698
0.668218506628205
0.687891543010106
0.671917833151361
0.680050849891871
0.673968528048851
0.685335177959395
0.666336112411535
0.685378347830163
0.672371074701604
0.677601802294091
0.657690148432847
0.671522126372485
0.658468282787912
0.668835384468285
0.658436211667575
0.671750373026772
0.659630862936001
0.659719021975574
0.652861670267692
0.669622223508925
0.63773100097468
0.65041394309701
0.633159179948775
0.63876577996582
0.638216632196341
0.638880554584334
0.617792435536759
0.621450563319052
0.608349089899105
0.624851593424917
0.611590788644272
0.602778182839756
0.607807317052246
0.599771166548183
0.576749125113196
0.604654391528007
0.582541065907294
0.578928117991696
0.566835536985366
0.571336646297451
0.553042039223503
0.573948746800143
0.545044151393916
0.55851288246515
0.547423917783084
0.559147441710851
0.538987930613516
0.552739260011663
0.532187625363651
0.539369072337853
0.518333891824455
0.548048559604754
0.51643693056482
0.516938911262835
0.514453424307251
0.519426070624786
0.513143161124703
0.504335999845279
0.496783724413685
0.499561984986602
0.487830954470698
0.50320386938511
0.482082890235865
0.492811271342445
0.486879921201454
0.480728413567025
0.477545481344553
0.491079756756235
0.48096495889044
0.479517785989012
0.470780616350499
0.482581705214346
0.465577731940401
0.468118427164944
0.455281977074911
0.46473690863508
0.462967934850912
0.467283257109348
0.452277472546861
0.455532352517726
0.445275541208136
0.455268926034156
0.443072095215964
0.446963343174501
0.441254549732588
0.44543718778123
0.436884563458401
0.453711595071786
0.43156358390745
0.439374174797464
0.434188625383443
0.439677316329786
0.427499173001128
0.448272200152597
0.421500316559006
0.431143176309756
0.423728714177182
0.428851406475229
0.422155747591809
0.430630774634074
0.413903828802414
0.424022886511414
0.415503358707574
0.421804071658452
0.409832459937279
0.420896210315686
0.409415513997066
0.413610212026812
0.41386650400412
0.416814581571722
0.406539414241973
0.415010041324193
0.404314505911917
0.405362588750005
0.392951476083253
0.409755941226261
0.389928398864829
0.406194011018219
0.393557138325953
0.403526041552788
0.398126767226517
0.400064317936512
0.386940581304343
0.39858328061452
0.395709194632039
0.396823360498173
0.387076506952286
0.393812620152695
0.380265354546062
0.396617921614481
0.386508484602159
0.384984397162678
0.379083480600946
0.389319430185101
0.376445037755988
0.382679794082689
0.374322996451839
0.388172602558707
0.385067706552411
0.38442555542128
0.374140383503154
0.384283004025789
0.368678082674817
0.376847226499435
0.369878783998231
0.375568886452926
0.372018824957906
0.376796417533508
0.373157613950421
0.370207684274287
0.36528414137557
0.370218690436324
0.366653604082172
0.362956968269744
0.36277005806987
0.375624694452488
0.366700289591049
0.374756061083708
0.363227697518478
0.371060707390837
0.357042752629327
0.363017390518864
0.36258690959342
0.365256202016971
0.359115991137033
0.36634795124408
0.35526891111649
0.36581983001652
0.357988647873697
0.360841914627232
0.35148960009722
0.360421892128558
0.358747527162288
0.364778111747155
0.35566328081831
0.355374061478341
0.359176432124213
0.355140774692769
0.346917051776066
0.363969131779838
0.350419615423478
0.355208179267575
0.348952602427376
0.358774587093604
0.347130087208933
0.354743036345889
0.345694773802583
0.349880685587214
0.346188459774574
0.351478632497001
0.343162599535534
0.348874377908187
0.34601816576102
0.344822310881196
0.337678846593434
0.349845765201863
0.340161940612654
0.34940454609644
0.33699814918807
0.346581390520607
0.332315353195042
0.337597597916142
0.337319546457605
0.339362206418703
0.333584140460779
0.341473628154733
0.337853116429486
0.338644591543301
0.32880417003939
0.339323828755494
0.332725345814436
0.331602706709765
0.324505218939091
0.330630607561798
0.324401520373022
0.332735887521423
0.328869576572902
0.325120703072501
0.320673690856635
0.324194573183205
0.322092858606736
0.329365955567876
0.319555642617242
0.328976115580561
0.318833029661063
0.321697025768063
0.310317416518782
0.315517589861549
0.315365601333189
0.324495278042211
0.312633792438106
0.314100203237289
0.310235856806655
0.31581182965264
0.30392880737131
0.31014711351213
0.313567133719178
0.309020776844656
0.305580470856149
0.318338977994026
0.305615175429067
0.313215764870371
0.303644656427152
0.306477757161347
0.305470859820602
0.304840439749871
0.296600367131456
0.30303459348259
0.297682914797623
0.299535511662277
0.292660572075437
0.300000198764157
0.292396894543601
0.291070963279909
0.289541474283473
0.293004144767587
0.284433178862041
0.289494498286492
0.288488171610026
0.288491005852552
0.288175759962155
0.29364890464433
0.280505545345468
0.288362396575511
0.284433393002699
0.284518542348054
0.273043241484742
0.280671913905598
0.274755474030162
0.277604073213724
0.27492008778133
0.278804085821071
0.273946445727627
0.278010700151446
0.265858321630556
0.273138923320566
0.267926129975335
0.270725896286791
0.265055492071741
0.266233478694189
0.26579353589488
0.269006863125469
0.259495589990927
0.271484395675159
0.263052864141254
0.265091935069772
0.260344955927631
0.261623883471658
0.257120148436273
0.268893689565047
0.259784373794999
0.256807924477798
0.260344354494248
0.258885192193676
0.253200670597961
0.259249524366533
0.254893206243263
0.257905643657804
0.251121330176782
0.257958748634897
0.251230079365667
0.25296048930505
0.244119869196463
0.2527139195221
0.246132903460478
0.251258948215306
0.247955630270725
0.250570723833167
0.241246319100736
0.248197991062743
0.244613498221356
0.246200440498021
0.239489480500796
0.244403320627898
0.239350633958364
0.244067536203787
0.244652517083236
0.240532790061731
0.237950308992269
0.242678058163658
0.240430590696095
0.241265841594986
0.237825543489222
0.234967655505467
0.231316642957946
0.239718311472937
0.234804029494128
0.23822731367765
0.232263371245449
0.236848160932665
0.234456903927788
0.238185993927286
0.229719665045092
0.232537753244949
0.230828307425998
0.237109870551269
0.230653717765164
0.233113195091074
0.228871969809487
0.234668941763441
0.227797196199224
0.227651466657771
0.227249275191674
0.225644041571932
0.223698172800759
0.22681037131527
0.222456990045648
0.23261270959724
0.225704012226373
0.221945597014428
0.222574202616073
0.226076558056458
0.223090147259939
0.227730611358145
0.22573323875834
0.225600433753386
0.22105170555342
0.222831559005784
0.221460907194626
0.225894810272144
0.222279491775246
0.221459333143163
0.222109095680132
0.222159105331071
0.219302170477626
0.224360562909911
0.216745565771137
0.220611573992986
0.219051211964977
0.218179483632726
0.214726382716135
0.21709856929201
0.215089236238314
0.216469720996819
0.210472621470588
0.216717332159424
0.209101279082569
0.218271628970329
0.208674862233536
0.214623268204444
0.212202918147969
0.215525129398333
0.213454488973694
0.211151847487824
0.210741503166008
0.215349158853396
0.207147842852658
0.211350630293127
0.208763417524014
0.208846029871111
0.207129048033261
0.209620049432774
0.205101255243633
0.20669520072856
0.204958738856451
0.208486631344446
0.200872175265569
0.202417865698048
0.203215710250186
0.204534359335701
0.201050763687419
0.202103561995017
0.204319189532456
0.207405512431629
0.201749398178482
0.20560981959088
0.200740258434209
0.204287700592558
0.200544294969857
0.200901569631168
0.203085825376368
0.201796878237252
0.197036744630057
0.203240947809135
0.200070580567282
0.199598762366504
0.199631719765312
0.200192368932226
0.195272356698775
0.199546715947377
0.195283364142089
0.19925251440913
0.194432384942218
0.198462356548643
0.195103455064692
0.201089486370532
0.194550965117857
0.194261113995276
0.190200455385446
0.192360560710603
0.190915064949774
0.197106970067981
0.191962254863872
0.192840594441282
0.189754207440867
0.189624555672695
0.188665849807962
0.187198772240871
0.184841240407834
0.187545241250589
0.179481183354266
0.18560598603817
0.184205015104596
0.182486678770838
0.18143806072104
0.185478152626567
0.184653713371521
0.183717616853745
0.182104193583648
0.18338371066079
0.178654323813983
0.18059118965483
0.178433202735126
0.179264835102343
0.173633631032477
0.177386772484464
0.176298320653168
0.178537273437412
0.17413468030527
0.176001366235967
0.174147432887474
0.175071798453273
0.172713254620918
0.176162249656285
0.173463226893583
0.173478135907505
0.170436004546081
0.17301915142023
0.168184886509846
0.170175185570814
0.16587965760109
0.167629738659341
0.16579049793665
0.169198640849729
0.168706649457879
0.167236151223488
0.164745209386922
0.167408106441803
0.163546989276669
0.165110116256861
0.158700876898896
0.165015103812217
0.164328969546832
0.164911064625801
0.16140424827326
0.162561579492269
0.161172165069541
0.163213207448718
0.15920757319701
0.161631379799959
0.159730026743311
0.1604072511569
0.156485878301564
0.158984190581348
0.15707856148572
0.158556225176897
0.150791103287257
0.15674420276936
0.155054509267309
0.157209333463205
0.152852753995256
0.151915959181071
0.150896764597482
0.152740083386256
0.149087198789261
0.152261924463102
0.151483275724598
0.150948884832735
0.147177773325737
0.148544414082308
0.14456080791798
0.147978495901013
0.145730344942769
0.149109761626772
0.147275269670872
0.146759363155844
0.141377344624542
0.142002281470215
0.142117718210006
0.146009056684517
0.142041570672703
0.146022035820875
0.141863034071749
0.142796147843188
0.138924552124279
0.138701664663522
0.139106938209734
0.142674714334736
0.140428756216914
0.140044807506595
0.139605105265177
0.142031684145281
0.138111445066986
0.139232976326215
0.136387685590089
0.138098195900333
0.135622088321352
0.137647856243557
0.135087140079383
0.138220872382502
0.135124120194502
0.13952462170818
0.135876244397145
0.138494329166594
0.135589643532024
0.138777521224139
0.137138394415314
0.136378719903841
0.135602246632996
0.134076441524671
0.129898328607714
0.134387664181706
0.1309092496386
0.133792894416232
0.129879706453996
0.130221942234093
0.130090863173584
0.136418165466989
0.130648873981541
0.133465899069605
0.123601230370026
0.125131131615727
0.128193933280092
0.130011534108064
0.125544113675176
0.13813568046061
0.123760084064076
0.12511583472753
0.132196804743605
0.12512733406457
0.128330000256082
0.141610532974923
0.121883668098155
0.127567001398009
0.124906169190821
0.129898977737759
0.132095053126582
0.129677558152271
0.122330568693985
0.124570797346841
0.12352784012102
0.124804140985975
0.124763137124842
0.129661346454101
0.119755344858548
0.128738417650792
0.122613429423611
0.129342895180616
0.118518928337089
0.12463150996897
0.117247269485771
0.119985613834124
0.113465200705229
0.127731777018499
0.118299678696849
0.128944157037688
0.126205892101609
0.133030457141592
0.116879796116422
0.12385464284781
0.116737157052393
0.132867999216725
0.12114146910686
0.124358167634321
0.110421598437929
0.125680400456668
0.12591679130447
0.126645784288477
0.115329443593832
0.12915084359311
0.120776776035967
0.124367594970925
0.11470806764198
0.122535009205544
0.123450915463262
0.121466714243348
0.120281733898993
0.11916044388783
0.121950182590339
0.120364922313922
0.122532916053543
0.115034312120685
0.119737086604673
0.115226905628311
0.119761428088984
0.117499010361334
0.120153673181343
0.112739040082114
0.115846622166426
0.118640334459094
0.115027239705199
0.116190332480105
0.117514475624312
0.115433976395902
0.115006834385425
0.115258251045003
0.113712724369473
0.114867444558619
0.118342590887314
0.115485735447471
0.11400822817048
0.114014010103432
0.115192430644263
0.113622184949693
0.113671878764964
0.115018675860284
0.115795058958521
0.114099602040296
0.112868047235858
0.113243064445704
0.11555271246232
0.115956956708188
0.114418555274216
0.11671172771801
0.117013761253112
0.114448026860359
0.114197106862969
0.113566837723632
0.113366027702489
0.11274020162804
0.115818414494183
0.11805703414803
0.111236765760797
0.114059462737441
0.11755637595286
0.114759429672986
0.117344076576355
0.115785164491991
0.112745604604927
0.112710974307641
0.116250876527443
0.117493619355104
0.11771046501553
0.114063155488077
0.115823666368783
0.115658531330446
0.111775868461364
0.112974404962339
0.116453741861695
0.114434267272161
0.113928015880345
0.115069462560105
0.116379589303511
0.115366478224427
0.113108624437305
0.114400356827291
0.114149450579255
0.114624219955548
0.117832736810076
0.114112127826561
0.115860278342972
0.115057946277598
0.112356388731382
0.115106154879743
0.115100626847255
0.115038735520691
0.115783998303363
0.114184910441906
0.115702425847997
0.11336726403137
0.114128085172295
0.115125882658396
0.112492627663714
0.114005928320965
0.116159713317338
0.115528070131308
0.114594128410794
0.113902096890174
0.115125535619607
0.115045955466283
0.116296443091724
0.116676887875894
0.114583448612331
0.114548288541413
0.114394697717393
0.11485594431966
0.116251650655389
0.116737802128232
0.114358028000492
0.114050479578375
0.116089358096903
0.11661514991375
0.115725142065272
0.117334637796012
0.11697103245022
0.115818315541969
0.119549498566913
0.118023704096235
0.117791130398742
0.118043590979749
0.119428677384041
0.116011604449667
0.117701573000937
0.119910272031707
0.116866199749258
0.119320927293807
0.118757827516315
0.115448550153014
0.118178571072624
0.118645657031095
0.119988244711267
0.121426822700016
0.11728149599138
0.118968914005398
0.120629669174302
0.117132961146072
0.118251253461578
0.116748749964102
0.116373039086719
0.120922574062579
0.120192173207712
0.120165316026591
0.117790099626795
0.117076115100293
0.1180502272324
0.117916074785616
0.118758915348646
0.115279417001277
0.117221800402822
0.120621837665277
0.117991102710042
0.121319268665071
0.120981932508874
0.121651894770013
0.1231154826538
0.119906152157399
0.120935884901011
0.121217456455347
0.120013122752334
0.119469208087405
0.120199112158242
0.120897046015451
0.121027224115451
0.118914942143182
0.121831738780595
0.12151564489572
0.12171561904984
0.123105301848077
0.123396137056778
0.123704227147094
0.123765374755825
0.121612632170245
0.123222139363132
0.123134667761248
0.122679476912454
0.124243070762865
0.125206644823469
0.122953737919353
0.122977199703566
0.123540526014627
0.126803548457741
0.124150815734375
0.124181788820441
0.123001740739735
0.123733363316928
0.125505723880209
0.122539823869015
0.122361966722031
0.123067050718911
0.121141209020871
0.12437090625903
0.123929296470194
0.123486683369227
0.122764534546326
0.120592506594853
0.120329601987594
0.121441547481587
0.121302927026489
0.122825106423324
0.121659144644931
0.122209869465632
0.121912472388023
0.120999762452359
0.121691667734241
0.119161580611048
0.119195738844013
0.120736046023644
0.115898430506464
0.118320181153619
0.117951385414945
0.116569770079456
0.116979163873197
0.117866542822497
0.117735280753058
0.117455787855317
0.118093912503713
0.117629486604688
0.116841890289471
0.119410028620088
0.11845017923376
0.117730862032573
0.114265654849415
0.116502231148747
0.118220241068372
0.117762890387585
0.116423911468832
0.117321031497849
0.11636130243173
0.117412729777276
0.117726893030707
0.116395023131392
0.114814341418394
0.116378552334101
0.113492798648454
0.117022457454225
0.115046771033305
0.115808839051846
0.115259087963845
0.113767652573168
0.11412114456498
0.115622909775897
0.115777031969205
0.112831960989552
0.113831073112024
0.117338783955127
0.116668976272278
0.116120988612233
0.113852781833005
0.114229811480193
0.114133004153264
0.115001919956082
0.113486832263673
0.114888445347601
0.11242965626588
0.11152794521173
0.11259640237684
0.114677324060314
0.113132111626432
0.111458342121341
0.109354596355294
0.113272191945148
0.116716296269421
0.116982607216953
0.113556026026075
0.111939973751216
0.111816293687174
0.115935336134716
0.111783367338792
0.11155925932068
0.110061666186746
0.109547840874246
0.110061742821718
0.110574512600422
0.113603274301779
0.113819445871315
0.110778146887883
0.112970057956884
0.111802225672146
0.110231438157683
0.109883713002521
0.111407546709171
0.111088253946162
0.111276114509108
0.109867578095286
0.112778182373175
0.108918608389231
0.106390301910103
0.106653018312191
0.110033989319405
0.108236198573722
0.108004124887526
0.10869059187092
0.109861858993224
0.108162490096991
0.109960564735317
0.108939861619347
0.109774163646601
0.108467664436398
0.108718403711059
0.106336049494741
0.107569185840653
0.10697649466085
0.107067204061152
0.10794704771689
0.108071953245444
0.106911067306461
0.110046839446981
0.105477809186796
0.10883483447188
0.104908318364589
0.102962784601212
0.102199752981853
0.103198623365314
0.103563534111257
0.104342140111104
0.102955278813381
0.103933219763986
0.102508810024303
0.103822054510871
0.102654760666413
0.10270207073305
0.0992146835769893
0.104622398772438
0.103573316115526
0.10167609616927
0.102530536640251
0.101254278166059
0.100492259075419
0.0972028930526039
0.0971264186300319
0.0991251538590783
0.0972267886302155
0.0970435212208293
0.0938944734464813
0.0967746501791995
0.0965405714048003
0.0975476777798217
0.0985548611956397
0.0981310431001641
0.0963497761509656
0.094916070244349
0.0939381213836703
0.094575033088974
0.0938436434908457
0.0952434523952753
0.0944287776110738
0.0927061589758317
0.0927873122214413
0.0952600016416703
0.0942279593850315
0.0917895695509788
0.0989771176392567
0.0961249248730158
0.0927222856281641
0.093753526903911
0.0929256593778025
0.0932768867268507
0.0905426878956563
0.0925120094318969
0.0898533568279569
0.0920012804055252
0.091063472856685
0.0925371254773637
0.0907885521379005
0.0907205210198604
0.0902457647220506
0.0917075881519077
0.0887104430577815
0.0921701694492534
0.092326580545767
0.088684848368611
0.0888687139280179
0.0904929789042338
0.0887070835635284
0.0880945887159021
0.0890539503510535
0.0889079556847999
0.087633365193303
0.0947380251712949
0.0929429281138552
0.0922763765193314
0.0882115065251354
0.0894114325874784
0.0866329553540083
0.0908303224273683
0.0882527417341106
0.0900154360751737
0.0895943990548373
0.0892653358060974
0.0840960088260795
0.0861635785671791
0.0883963480889301
0.0860380182109789
0.0843914050586785
0.0875000755171016
0.0835696853189207
0.0859141512224124
0.0848369220039679
0.0875556876734384
0.0835746007719163
0.0862051022104511
0.0839501123056303
0.0884122930899794
0.0786608508020108
0.0871851162351984
0.0889000082572897
0.0878175826628683
0.0820363778297278
0.0824492276159528
0.0829249510171657
0.0838951628879484
0.0842254920880078
0.0840301834552068
0.0828103960643077
0.0847531785543961
0.0838387396729666
0.0823421883154344
0.0831548070505685
0.0843411223269038
0.0836506240778692
0.0832966351647324
0.0805961596066276
0.0815521955807608
0.0837473916308081
0.0806228828643051
0.0865381174425316
0.092209034455142
0.0813144742531076
0.0861002684393018
0.0805969892360016
0.0788000014845334
0.0917332164953157
0.0840786497937695
0.086873058716798
0.0776707683328798
0.0824062062560969
0.0817044441945845
0.0846527497840125
0.0803858952809719
0.0853463276082152
0.0810142662780781
0.0851983380902534
0.086755315589034
0.081987725917412
0.0821568961310897
0.0815552286783128
0.081523597742129
0.0813771404061912
0.0841648498191431
0.0817234472507362
0.0807865377594634
0.0826721783072422
0.0814827681989303
0.0844592160092489
0.0774186691745455
0.084508333357175
0.0815051518020325
0.0807946501380085
0.0825992958762526
0.0842617813686293
0.0761572623321971
0.0835410174957699
0.0869324348776246
0.0840030748207158
0.0835013167158677
0.0810065633161463
0.0829033364731493
0.0841789022100271
0.0845246332087454
0.0788099399990696
0.0798406805577554
0.0808444235194508
0.0842453742624465
0.0783437204171899
0.0839756338023289
0.0813357975741584
0.080656729764334
0.0786089869040071
0.0838810246051292
0.0826908559124893
0.0823619962412357
0.0829473879622021
0.0778487705465481
0.0830066404631312
0.0902476873554119
0.0917088006110792
0.0818787764984277
0.0873354323858055
0.0816887704445386
0.0801065165718621
0.0799238075790893
0.0839554067832154
0.081531278901783
0.0829549383579107
0.0821973399394155
0.0830424595019566
0.0817233397544937
0.0809046252486142
0.0806085109535948
0.0796411767425377
0.0818131483382576
0.0794570969828133
0.0786882327957318
0.0776523939005414
0.0818544116681867
0.0786484552165092
0.0881134457796958
0.0829321763931549
0.0894207544429179
0.0680683695847484
0.10441523089982
0.0875756808743657
0.0895882612990198
0.0785656357471425
0.0856461845413836
0.0813961033897744
0.0825916906553729
0.0818481903738979
0.0866283444990892
0.0833259916638468
0.0828324771706618
0.0818271340254589
0.0861038510569468
0.0841139213170142
0.0784065114717778
0.0829233677209442
0.0967828336171166
0.0866371015468089
0.0918231092454951
0.0759425910035944
0.0913428431750411
0.0960919504792738
0.0866175649452694
0.087399018844974
0.0858313321915269
0.0841220485938674
0.0839242122640772
0.0844857156010699
0.0812836082990083
0.0884287806763594
0.0855112834029323
0.0882218461313184
0.0837838363147409
0.0833177357183801
0.0902932203298452
0.0858522772165356
0.0924674764738862
0.0912258811580816
0.0870876395096637
0.0918369869265952
0.0851706513975045
0.0864362603136501
0.0861256923321677
0.089457149026389
0.0832446984219049
0.0927950876703808
0.0959790892607847
0.0885872107348121
0.0988833249244468
0.0943393827126451
0.088006727762588
0.0921422983845401
0.0899250760339882
0.101058725052632
0.0778522724165677
0.102925103856803
0.0967183830581572
0.106504811172261
0.101179215024651
0.091772648365596
0.0953306839980434
0.0903587121466886
0.0948533398051286
0.0886202984506143
0.111634589958519
0.0836204291860031
0.102872489615761
0.0784281416645703
0.107935812476003
0.0963075974410141
0.10223671987268
0.0956161770436441
0.098920082101178
0.091219169717542
0.115139574845507
0.0885814369775054
0.0939878522582553
0.103499698728092
0.114755622436603
0.126143015217089
0.0978845236711899
0.0920646460212215
0.118654779701588
0.098641772865651
0.107582529756835
0.0914496211310121
0.108137805974643
0.0913417340211497
0.110153026557604
0.118437429146635
0.104638382647851
0.106352652923068
0.10709314545912
0.0971063489331323
0.117233283072674
0.109759858981649
0.111177853487807
0.104378798252929
0.115104495331724
0.0910959424577302
0.163719437307454
0.108700977460507
0.136030207766438
0.119127420299953
0.13408356954331
0.118271351313834
0.123783523247231
0.113956153632826
0.133228088440366
0.131074071340974
0.130852196633401
0.110876400688952
0.146186729099814
0.138491095933357
0.129821896013755
0.13600018583727
0.126494986174639
0.122608489006081
0.152410992284595
0.156821368340382
0.161661112005439
0.137429199492629
0.142942658056777
0.159573635743619
0.147308182242864
0.143383662042128
0.144131002581216
0.147600458769072
0.152765397917975
0.145628158784292
0.163386919770289
0.150622420782803
0.164348671134124
0.146018554606119
0.161349758454988
0.153954797853048
0.198558338392585
0.188953818362084
0.162425962285104
0.197582426222934
0.183138944771664
0.182939246334656
0.170623984845005
0.173047279310702
0.181587285239517
0.180618508802886
0.186026611411429
0.174186382169588
0.209353015829318
0.189768703881469
0.210475341302862
0.210528802185709
0.208406396042062
0.202492401954735
0.186045084345422
0.334299467083734
0.223920663229326
0.256183241998848
0.216549263074043
0.252998515407513
0.296623292900963
0.270400549849399
0.271357677518643
0.282372243932669
0.278208016101746
0.294400406604776
0.302456206296239
0.316709262345874
0.325945698748988
0.33136769069739
0.318545713310604
0.351920340602227
0.394926709133409
0.396480105663117
0.388101920375743
0.375138497613349
0.396268236637696
0.416093958059977
0.402930664802234
0.437969995902062
0.415766241429621
0.44634559147545
0.483643706316139
0.469651410821507
0.478434790420547
0.470948019263725
0.529002308081081
0.482810067677686
0.555736315483562
0.527157458982454
0.558531288869983
0.533678348113647
0.563314801567624
0.568077891808453
0.559299937185389
0.608740645728666
0.620675394981214
0.613203355669153
0.631581248377792
0.622244575385991
0.642480450365477
0.640702374574155
0.661490480935297
0.638918093564068
0.698820689325108
0.646461742573765
0.8794462485088
0.682279736893521
0.686365023409461
0.660554161140814
0.695353457379691
0.703882484028563
0.681526463326179
0.735535671127635
0.725090244653773
0.685398734503864
0.706130828541762
0.689267115788229
0.709637252454441
0.683172652253782
0.715598580209166
0.672906277152158
0.752938377488827
0.667985721553761
0.747633409531719
0.767624859270851
0.710294865235671
0.695287060825903
0.717702217575515
0.702807256288222
0.723556438313291
0.688134185726512
0.70461051024225
0.713287120241158
0.677618163370413
0.684329267531583
0.652158560856306
0.692139345316602
0.684457910790849
0.646070831819887
0.649806070301943
0.629389315879237
0.639568117314563
0.610373760786902
0.646994115491001
0.66022646114274
0.626657216938071
0.612206427660274
0.597015984542872
0.601641627987129
0.603750613517061
0.585553216765047
0.599591923748232
0.593059050029514
0.578469472657245
0.589209620397344
0.584327591978013
0.579849437776654
0.571487951737587
0.574912335108941
0.566870102392392
0.579915231531157
0.55987871017914
0.567516312602487
0.577289973500799
0.5704242812753
0.566613572742414
0.563639129974323
0.562978369874426
0.575018408921287
0.57028525170624
0.570264457791189
0.566611806455596
0.576424071319628
0.571846407991972
0.570778768826026
0.573650846475714
0.571588342098013
0.578142625089539
0.576224401605413
0.577539953094253
0.571935165616377
0.566455035087705
0.559596680041912
0.572932409231879
0.569648503832041
0.575820881954661
0.527860750803758
0.633518826459694
0.570956550812333
0.57465479972541
0.55414654600034
0.562133305883371
0.551985569147051
0.536146721421396
0.571191232570465
0.558586618610703
0.545080015729059
0.547562155519785
0.537209093053068
0.550278763204919
0.554669607462531
0.529731941936149
0.544900042989344
0.48861113500652
0.578646564087284
0.547414857018349
0.571334866218021
0.584360979921873
0.548557472965308
0.514761963643318
0.523419465839278
0.554626432663344
0.516325628948155
0.528865852103695
0.492242863966245
0.564592360365538
0.527512052906382
0.519937559538835
0.520807412625368
0.50140206280506
0.533179554180947
0.544037048198422
0.496817961344162
0.515029991868699
0.528206554712708
0.496303175520952
0.533976629249561
0.550904743862521
0.515389984819224
0.477728636664248
0.492582443113538
0.470025432157267
0.465684112510952
0.525889934234303
0.461571110581903
0.48598586880774
0.445725029093155
0.459873072009259
0.444795213643667
0.464443317663603
0.43822242902405
0.433625095499835
0.482167924617899
0.413668362048836
0.450486171901016
0.414100817442767
0.472025392366516
0.448297727434265
0.425052577598752
0.396999685394278
0.434674336951801
0.435259065529969
0.407004417259021
0.431070898311868
0.389969378753658
0.393784008300267
0.41149490589179
0.378082267466885
0.396986458861076
0.387973322749706
0.375289307853799
0.403794087392657
0.398657766786637
0.440119796153282
0.373464735835915
0.356025300031245
0.354777210826774
0.34957999125123
0.366868505099653
0.331080525838417
0.396907461234341
0.360116566497631
0.333473510567254
0.411542670115481
0.355778954532259
0.357830076137488
0.355211114349084
0.344530394342511
0.348651443380863
0.364800986022184
0.398401888108888
0.369088434032188
0.381050661205294
0.39658256138588
0.376908465681034
0.385322066462887
0.376607077514036
0.394452181487301
0.383392945997977
0.412176682002218
0.404461504963816
0.414193354126806
0.425787441028049
0.419355880410402
0.442630711890275
0.485048654798076
0.426861503598314
0.501613773228719
0.447062986295344
0.540701943442636
0.478202241531842
0.497624305396233
0.49688160172167
0.504904594726502
0.520031837187649
0.514444675651438
0.533186204842692
0.582892180768782
0.528384169263756
0.569829536029731
0.541948374562113
0.577282551935036
0.535723578011496
0.608121283302139
0.537681481731266
0.677988050249493
0.614034847442434
0.610536189240541
0.61265852124209
0.585898614694259
0.605252748055431
0.611395218440142
0.611894375417269
0.610566299591994
0.593835919660277
0.639121769476267
0.612565203100542
0.640571507393766
0.619754681811522
0.632029897407384
0.614433021474639
0.642044698815486
0.618622967394358
0.640582826044558
0.645042192461681
0.651225605359562
0.617560311808824
0.748730297679189
0.662786434264782
0.687915222212226
0.65403429631666
0.689883358443899
0.665792991652267
0.673946512759269
0.707099251822788
0.700693445533729
0.691637535346919
0.71284589341625
0.709376868994258
0.717195599121981
0.701135725594355
0.752813112280745
0.707555603044561
0.765668596370141
0.704173664685577
0.76603478209349
0.775645428692526
0.757461657433578
0.759490850295882
0.750341633305127
0.757234635344902
0.744285449265321
0.765936731169382
0.753839191616347
0.765242014746845
0.762734698355823
0.770536083971688
0.761322922939122
0.770653189241029
0.780111753489103
0.754662573782889
0.777666740218981
0.769522644523052
0.761178263034586
0.766632482454469
0.775294110460619
0.742528137476828
0.792589768418394
0.771284906965266
0.765532413972375
0.762151481638585
0.766664866843548
0.776263993158244
0.783437014818588
0.753129502310612
0.775351543585538
0.767501540495242
0.771066589890812
0.749168035016458
0.773926807986029
0.796706303478324
0.782605391187721
0.786339933742587
0.771680072580544
0.77913843663898
0.794074934076135
0.782620663819064
0.778750024402074
0.791020580789915
0.785935574720593
0.806361593280493
0.795302139423435
0.791652364329356
0.806890420790243
0.80361304073218
0.822373413895956
0.784350484749589
0.807927552896481
0.78747820523149
0.783372783619747
0.782361583318365
0.786427805834477
0.780240734078112
0.778993202598524
0.759188962410314
0.769126888128225
0.787519707093506
0.741967798144118
0.766118971768518
0.732718680454661
0.729921509134745
0.725034256735338
0.718201503621143
0.72270923321979
0.714075057421949
0.723789901320261
0.712592747988303
0.70597025207357
0.706824760773761
0.699633415892217
0.698414529073698
0.705192802357137
0.70139855323236
0.689516728889788
0.691956720477057
0.705716341673145
0.698869702025942
0.696539960514227
0.688362734032576
0.680650255925616
0.702886845664759
0.699297951600127
0.705900705322434
0.687373906501042
0.686087656482918
0.699468041467239
0.683618991551989
0.69371550781719
0.686425551742677
0.693403568857404
0.675674803800179
0.693845063633589
0.682810152286838
0.690743267756704
0.681647614650828
0.689807881998739
0.682557431285594
0.687064642502507
0.672421299985422
0.690179558511865
0.676535954615285
0.693704899623145
0.67325414621573
0.688906927917872
0.68554983639473
0.689279686467444
0.684866201049601
0.694294004344098
0.684126433970478
0.685261668098707
0.684358452080948
0.687872894209568
0.677879611180053
0.679103627500377
0.683713466147074
0.689294410828075
0.67492077868262
0.678891238116798
0.670661959585485
0.679524227811049
0.670383961216473
0.673269597826563
0.660094594654497
0.667354919667531
0.654776902892607
0.657787306921106
0.647895357337183
0.647916312060561
0.643062579581074
0.630453027395673
0.631469394263049
0.624156398225733
0.6227241430156
0.612498353613508
0.611517027138775
0.605711598432931
0.609711520487688
0.612226841746409
0.600100343757895
0.601707432378024
0.601558768232291
0.596922316128014
0.595711314344289
0.597262675934503
0.593628605206719
0.594280741526262
0.59454447973498
0.592963632500759
0.600175768090921
0.597729779059633
0.596797836767628
0.599469560896417
0.59927675440536
0.6069551549673
0.603420656672031
0.602062921117518
0.611932711577338
0.610966269532642
0.615646384776517
0.621281759865185
0.621168035358368
0.619861250513298
0.623876837251505
0.620849600773862
0.626133060454654
0.626635813801998
0.629489628964141
0.62998862662364
0.627151956673327
0.630666365649481
0.626998732850598
0.63082078543924
0.621490799833767
0.62324216181696
0.626600683266023
0.630664842459113
0.624280816545652
0.62295391410685
0.614517057805303
0.623072720384855
0.62185148218251
0.623986611420821
0.615602749772577
0.618627056086015
0.616509921652183
0.611345842463555
0.611636551813397
0.609456650304021
0.603167637878163
0.605767346900252
0.596463169904362
0.601626495637293
0.597343808516913
0.594445438026346
0.591068906385591
0.597721710500961
0.587692283568694
0.585336694311501
0.584691154050347
0.581329577305066
0.579637870594181
0.583772964297767
0.578461742230527
0.578388653427785
0.575080153364266
0.569071100292119
0.567620618201014
0.565731689576718
0.563679791045093
0.560116671379947
0.558106021962097
0.557055286018905
0.553348062761026
0.55100395976687
0.54875909397791
0.54097502118498
0.534655111927332
0.528626931363556
0.528572078982735
0.528122172594459
0.518612657704058
0.514351668652936
0.508685420398335
0.508205252446358
0.50897372527988
0.505183692277562
0.5058857243699
0.506781892236631
0.502922880144768
0.501419288678592
0.494177979780185
0.49575002112298
0.496598040111985
0.487748313562032
0.485119497001729
0.486243062482722
0.485571268665496
0.476635811055328
0.471953172695576
0.465060402056015
0.456790976514618
0.45259243935441
0.447740778863428
0.443366037125018
0.440015839023
0.437565110264758
0.435967464058494
0.43585352453768
0.438520314479428
0.445502605990864
0.452055457435132
0.454718425735734
0.467019655351805
0.481276207539711
0.489431276768178
0.505279120880675
0.519835809479747
0.541534625915018
0.561096821774109
0.577386521887583
0.598627529505936
0.617535756263666
0.635915201741968
0.658671254692025
0.67893387737542
0.693836262534428
0.71349373650509
0.739141610299528
0.755294562897241
0.777668269530875
0.796089087756202
0.812871652258232
0.826275721715268
0.837097253130067
0.856334762389247
0.874036546512314
0.885084091840433
0.889743990726194
0.904609177604462
0.922568605831142
0.932967129663888
0.941354996371912
0.938539147236479
0.948568058014963
0.960117819671713
0.961406154373923
0.96314021388367
0.965167378372871
0.960095905790252
0.95471012495942
0.978143325444866
0.967071300613794
0.96027530472357
0.965626622223017
0.969847615600397
0.977072159774689
0.985594639569407
0.970732319566292
0.98445083166045
0.992487231439691
0.995442283040111
1.00876631822975
1.00386814167992
1.00772984784329
1.02746241067566
1.03603404077413
1.04243354085528
1.0516408535818
1.04859633901126
1.07504651829629
1.0911333210398
1.10023956891868
1.09958252439062
1.13723031414968
1.13319842345763
1.15749596147493
1.17868005790685
1.18790701794049
1.1937990392171
1.21218914475866
1.22389878693896
1.21748261473339
1.25084403695966
1.20730238035722
1.2250263632736
1.23213036279439
1.22801197379056
1.22697430453606
1.20611753937051
1.19482320449532
1.21242612957903
1.20381905991624
1.18954849590641
1.19470819210845
1.21021143725616
1.22135020935399
1.25115159596889
1.27732669928893
1.25569014273158
1.27428130322924
1.29776708764686
1.31326809881374
1.32249937498546
1.33305213149185
1.36054162149221
1.36714695344941
1.37916311754928
1.39665068721562
1.45070372310092
1.45008177463884
1.51179099306266
1.55472932771442
1.51456574883263
1.54084052464069
1.6286489749351
1.61170649197108
1.68455040517396
1.68724934640428
1.69819230102317
1.6168266613226
1.70066620234349
1.76855291488605
1.7519129038374
1.74145980891515
1.90290310010793
1.76822207006826
1.83124411410195
1.80852569740752
1.82523157846451
1.92607898781653
1.93020627075737
1.88574180810019
2.05143699991029
1.97401314546271
1.94377896493745
2.03777154097068
2.03118357389724
1.94486860855906
1.93568378909493
2.04551867985287
1.86513443960268
1.98852085104732
1.92576767312038
1.85018052443302
1.93180342115113
1.96995058960174
1.94830779924091
1.8645911586614
2.0388958084213
2.06224846801553
1.94444292561675
1.98819160864072
1.97960943279966
2.27545416846227
2.23068088700538
2.19289270274892
2.21900002031274
2.21053790996706
2.11544044324809
2.14077750915428
2.42464164686152
2.12292286190535
2.23876656022836
2.62921088506224
2.09483264546492
2.09330266954731
2.4951194374845
2.4070620633521
2.4228303738985
2.01728240752844
2.39090220868134
2.22048302418089
2.28480893909513
3.00836750354714
2.27743967942918
2.06068751387112
2.55483076811785
2.33340810297147
2.60135983398466
2.37039737397027
2.8558820421316
2.10393947117776
2.55592446027597
2.3885435969528
2.2862934399133
2.28054797334551
2.74523372503068
2.20623632930104
2.54171962442808
2.15099978322732
2.54845108724868
2.27287709331777
2.3369350796851
2.01114140915926
2.06740254022417
2.05502105679338
2.1512802464548
1.93087547091727
2.11079476957475
1.83784703635298
2.00299864093984
1.83910911555815
1.84722496660493
1.76565261072145
1.77216574249115
1.7880569387786
1.77139256503446
1.69310006840326
1.65566278893935
1.64648379596184
1.73504113252933
1.59716674233042
1.63642272868565
1.57777128071936
1.59852361091118
1.57765220876276
1.67520664168103
1.5730572027719
1.58984472815549
1.53254300866799
1.57353983913526
1.50594486376375
1.4644490762036
1.46129395288776
1.44536613692474
1.42760686456977
1.41429247987253
1.3382748029214
1.31069694419343
1.23431243457631
1.20490130865744
1.18339965422941
1.13155455468022
1.07954046926496
1.02632772167453
0.992822257355003
0.944028553220104
0.92012680249273
0.891416317215259
0.863164294852514
0.821250705032345
0.798987512911928
0.769719195584014
0.74331535587633
0.731266327565826
0.700874582600218
0.683177219497917
0.676792002418905
0.665917736936813
0.650160376835222
0.650645190920797
0.63819024511592
0.639832891160585
0.640881377579508
0.632596745814836
0.623449601196848
0.635076796566065
0.626237599922641
0.633282235933587
0.628264871712607
0.630384047759658
0.629683891601317
0.637673103498246
0.63431767098784
0.629237443285851
0.635969727641924
0.636796147671483
0.620064077706209
0.61460314955929
0.611769746991784
0.611776328782796
0.600990606244084
0.589733098355744
0.585308327470084
0.590784286827533
0.581064893712645
0.578743032136405
0.583416285327823
0.581246296400034
0.575586933215872
0.582688853465545
0.578358206095955
0.590967262531846
0.588180021844688
0.591636531409846
0.596779275519358
0.601834121028276
0.599453877188628
0.606566380624626
0.607420609540077
0.613716155930393
0.60660752631438
0.60988846206723
0.623786130000971
0.621812352392299
0.615169456314767
0.626235882074937
0.619497806630846
0.631610158069341
0.632887409322227
0.636727463197618
0.622156540979525
0.62252088226322
0.633713417801059
0.635704272287573
0.639992746300595
0.638251534080887
0.647050088258452
0.654271829898754
0.665925379033142
0.672389994001956
0.696012606688973
0.700476262707477
0.711513554679624
0.732109275429689
0.74953965266166
0.774190289571239
0.779142481657853
0.782778020457087
0.805793408054347
0.810385643516802
0.80462040365028
0.830712469296091
0.818160428275883
0.793205460292524
0.785465529867069
0.799043523712408
0.78474403208037
0.774916946063678
0.754257956924743
0.74868588966632
0.733846361552942
0.725248577164585
0.726512989096981
0.739105699315948
0.743571001752278
0.730773809757245
0.730558259247061
0.750266010673025
0.733345484694316
0.735989264373521
0.749278488332275
0.75045160438575
0.733111413745685
0.737609658116367
0.698362077119223
0.694623428918739
0.695858455597954
0.686846495636582
0.684392552001298
0.689537414286665
0.689789706874913
0.689457434675789
0.667075562095641
0.666012671282762
0.666449746296274
0.673861439577224
0.670142620426392
0.678895142839985
0.668251146000707
0.662382809531236
0.642508131009207
0.652846536555909
0.636085483486679
0.630594740330025
0.622172715780506
0.647381426830046
0.64401971124395
0.641259659311804
0.628733802522449
0.631114049351522
0.621282390461967
0.609561380037515
0.599745813839815
0.625737429189403
0.616804080517397
0.608093859762723
0.605582011083688
0.608003534309032
0.601296205982218
0.607606350846818
0.591343538620639
0.587235592202103
0.599088459436395
0.597547063604786
0.605839953352758
0.599400737511722
0.584843544073015
0.587782235540236
0.581765894771937
0.585678620027332
0.570438301153333
0.593275569878976
0.57209055368438
0.589085748819381
0.601370535262676
0.601467963289457
0.592198397297331
0.607289358416414
0.587928224748531
0.599691790098075
0.590614592970242
0.614456800580089
0.616332265321248
0.598892565120807
0.606658259544996
0.634386027813071
0.62611209017496
0.627361167120075
0.637726999782452
0.635856398796209
0.643539504707237
0.657507837600457
0.666336217713325
0.651888415510815
0.622725037197009
0.677896434385947
0.658344725153773
0.655103802681195
0.693243997213347
0.687458925875956
0.703582689130064
0.703410654552826
0.743612235449657
0.757999280665913
0.754654078174212
0.818537435548788
0.79869329841558
0.823957595750684
0.875271553706719
0.871977983046241
0.863663016026747
0.927820068737564
0.873188040179334
0.920056483159578
1.01325469099477
1.01559110880124
1.02158034437754
1.03358537818296
0.976007903694972
1.01476575196391
1.03484431826856
1.04142793506699
1.04290035600513
0.972396525062959
0.923961835154995
0.930805966110707
0.91434707170119
0.961020249418388
0.996686101830611
0.970922419310555
0.965556296558457
0.987469402874216
0.918124843611899
0.89970334541357
0.931678698669698
0.906214788816638
0.937844672342151
0.926938226426156
0.937231360305296
1.01173466603725
0.934685666582403
0.934830985103056
0.928876076552307
0.989523383173692
0.909306407622132
0.912772068781913
0.937093192528933
0.887999860510197
0.951318865832003
0.968776683829427
0.83667597712236
0.902685530959594
0.929873892000142
0.921425154174205
0.938981013289799
0.93673833203048
0.891058537521287
0.826425260984008
0.897394787843092
0.889140605870379
0.899806727914285
0.989913724119576
0.890158806061415
0.848884401612115
0.870979100163667
0.893902499888268
0.92461016108872
0.922686608809702
0.863699366348048
0.892716797262394
1.00953987090405
1.01745836176311
0.970817527955778
0.969211267875211
0.949569476385143
0.935280364166306
0.891018187096969
1.01762376255786
1.08483033426016
0.953698116466917
0.924513648869763
1.00316709833978
0.928858249252336
0.916729118296958
0.931257990233308
0.975758044940955
0.874620607131605
0.956320244793273
1.15071002479959
0.977555302925056
0.907923256942689
1.17119694722981
1.43905074226093
1.12325121846752
0.973792988976522
1.29488778185636
1.35888970458141
1.19107772598844
1.06409018106035
1.03587223249061
1.16724943873657
1.14375142497022
1.20804037763182
1.12631870786317
1.24408317330237
1.20611098021735
1.52157387924929
1.45340150757846
1.29175844680196
1.57315715636722
1.34670588365003
1.05612079656124
1.40881976539902
1.18963854033105
1.04919805112275
1.71846592602908
1.15519469691238
1.02408984173568
1.09977771559243
0.976037268624302
1.41354738999025
1.80201410883923
1.28070281323943
1.10566720995917
1.51906633358794
0.915473403474823
0.900722007706366
1.10999719989225
1.1360998233545
0.981529924932077
1.55815189028754
1.70950598514162
0.897236757615967
0.914908634667814
1.09465687672414
1.13877943514775
5
1.57150976683523
1.49018629201041
0.982239277275926
1.12472290932727
5
5
1.36203746478002
1.64072438390649
5
1.24392966144459
1.28407698000273
5
0.671418511162662
1.41872586995597
5
0.624712492220178
1.75278980425471
1.09192063626009
0.457756085430352
1.39832547261608
2.26169819242215
0.811257355662248
5
5
