3596
4000.36533379555
650.420452594757
1
2
2
0.0525677513747247
0.0497628836246678
0.0580458099490984
0.0447307164628744
0.058966692082388
0.0462305563568667
0.0668999712821313
0.0511548335230344
0.0545155514486896
0.0455578663729267
0.0667343145321667
0.0451214002715405
0.0559303101778234
0.0459953085826889
0.0670485448154149
0.0444078899435368
0.0591017140245456
0.0397067482434779
0.0581040965239147
0.044373290120342
0.057088855786345
0.0410215146813072
0.0610673746106841
0.0407235013959293
0.0612766109606803
0.0489586364880535
0.060389880648151
0.0383346558630158
0.0671797266107214
0.0504739392060506
0.0592927464357024
0.0364333337015511
0.0642692911243823
0.0432523471631972
0.0584402591103233
0.0528399064152294
0.0612844381209923
0.0469512743510811
0.0637457296505629
0.0482499113445283
0.0715536823824258
0.0425139035710983
0.060768709276723
0.045305034110643
0.0581418161538627
0.0494108131669244
0.0655128660500622
0.0472061971434027
0.0596291601996481
0.0521397257835402
0.0680512938524653
0.0354669861436534
0.0580008222624131
0.0542574277780988
0.0578637018495765
0.0508000286536738
0.0569546330502684
0.0474174723175811
0.0619992709822407
0.032541354239668
0.0598080566057988
0.0515695946508743
0.0586948240233615
0.0513454415106701
0.0537593542168508
0.035889451227278
0.0655288360345636
0.0402639284293741
0.0489773378852191
0.0490002269567213
0.0550681202214342
0.0528494029259053
0.0619951614077889
0.0466263991150288
0.0694231988460442
0.0435264764947761
0.0538356296236186
0.0405404333826067
0.0437339353741095
0.0474914570378897
0.0636708831534211
0.0403209358987827
0.0616090335728322
0.0397605373047161
0.0558666897394495
0.0580472878720438
0.0475715902096835
0.0408443910066729
0.0647943739430596
0.0506080181476976
0.0606913039667622
0.0383200135116613
0.0531862720494316
0.0363693293453962
0.0485051380118417
0.0295018918692469
0.0595182316302107
0.0493880852460584
0.0525882927929702
0.0403178239402798
0.0483654151975304
0.0403293680571786
0.0783831294006271
0.0168566929507634
0.0854384459717788
0.0398620873899621
0.0298149589426741
0.0691287266528757
0.0641191814438261
0.0444295748331626
0.0505614288767094
0.044969531696923
0.0522665969356802
0.0515309998665212
0.0288912697383006
0.0320042862797712
0.0812213155423833
0.0464784635044752
0.0551405953060602
0.0489711645029283
0.0362708541644993
0.0385722256189475
0.083530808397041
0.0374149673392042
0.0625774462958531
0.0395590065253823
0.0351398358532364
0.0522190349790234
0.07194709190332
0.046013326511097
0.0561770094257246
0.0352548109431291
0.0498383567667631
0.0267888375105513
0.084760468051411
0.0445262952385005
0.0471026149874086
0.0125666220451733
0.050839487463439
0.0628506464640608
0.0727174353027127
0.0424399022911215
0.0372433783605773
0.0170272264867855
0.0727887630930492
0.040334849568944
0.0478286989382945
0.0452722219110733
0.0607925397458255
0.0389865798246975
0.0526672832816217
0.0267170301622117
0.0654051840710763
0.0489512564959336
0.00128718435377322
0.0220036562237033
0.085060551594186
0.0373511202498441
0.106531384942979
0.0375747162877165
0.0547641361526438
0.0379224502347834
0.0623622283549338
0.0336609606534721
0.0567026034448446
0.0225584580153627
0.052181214918558
0.0533693064458942
0.0521597644778832
0.0374654044118278
0.0736464479178324
0.0308796835669396
0.0243164144842314
0.0820080441740768
0.0629847335969696
0.0209116479740396
0.0719216808511443
0.0513840105472544
0.0389626948945901
0.0391228353334491
0.0714408943954142
0.0330424530559728
0.059277814600723
0.0267685863151259
0.0453505512900406
0.0475718697491444
0.0554169203915456
0.0368029250541826
0.0493922085690174
0.0138752398610219
0.0394880577344611
0.0568137700859275
0.0781370735514394
0.0447823929477817
0.0562580222374581
-0.0135815626620349
0.0662045372405446
0.0696516210120794
0.0593151747767945
0.0441823828039962
0.0553418367879855
0.0317890291803675
0.0467346949927867
0.0362826975118017
0.0428489899233689
0.000821210531522107
0.0909584113513916
0.0575095309151156
0.0536565220050652
0.0400393357285127
0.044293807952853
0.005039752297269
0.0981646373598915
0.0633047596324991
0.0584192793451004
0.0347680902813032
0.0417182276168208
0.0400621653452824
0.0677657051177548
0.0388401281778423
0.0550443393052126
0.0352434683200209
0.0508471256886288
0.0457520558455374
0.0534742069320737
0.0367923003696879
0.0495419896418275
0.0426052828001975
0.0549660938139188
0.0331063584070681
0.0614337036991841
0.0352230461947929
0.0460882624634461
0.0355500983484381
0.0447098085284304
0.0359803119631047
0.0714657090718045
0.0463215773898375
0.0568548938395526
0.0333792298175205
0.0499397564919859
0.0349918907660552
0.0463273017308848
0.0382581864447478
0.0492756961525916
0.0160411957313548
0.07893144199979
0.0488252597240736
0.0592652938399685
0.0256970190352242
0.0701890759775348
0.0505187649833803
0.055053902771735
0.0372600013874845
0.0551601591672782
0.0326519228633296
0.0351789252869331
0.0503775212637886
0.0622262272755591
0.0254202197885756
0.0566146540211605
0.0410101158214469
0.0487898857350993
0.0211479688465995
0.0158412058227043
0.0889804034526183
0.0513824883810162
0.00980685431960128
0.103938393261591
0.0534937837006629
0.0602289183438281
0.0368899171327489
0.00107737939773424
0.113096365517127
0.112052632169457
0.0373487586313361
0.0434297391311112
0.0634578986395552
0.0500223088826357
0.0427752064859826
0.0487716206428207
0.0357276963772646
0.0628743951578986
0.0320344181922973
0.0846511745068274
0.0278031754075222
0.067536522793928
0.0632907925665521
0.0630804526935092
0.0459416613632161
0.0522342406625808
0.0344612099256374
0.0545951926243247
0.0485233380821569
0.065965209029721
0.046299174558182
0.0425378172082676
0.0641629220502188
0.0725342609643464
0.0394788795820859
0.0543845293726396
0.0482783393074659
0.0502427871894454
0.041837798604855
0.0520583132812733
0.0514152020846017
0.0483841141781843
0.0166796481514348
0.0958190783040197
0.0481196863692259
0.0505493187048314
0.0742914273519538
0.0684590725794683
0.0402567976036193
0.0562283627779014
0.0521735479567896
0.0626658937606799
0.0354912383678563
0.0422944522959272
0.0651414161839781
0.0657617885796474
0.0475102224790806
0.0560544379422829
0.0456894038347851
0.0582887737730195
0.0434775375564458
0.0624933458242597
0.0510409131478564
0.0643115199089747
0.0338958134365044
0.0591751584861231
0.0758306188347517
0.0345506478129841
0.0736218413591812
0.108784142765895
0.0528298454570251
0.0704010752763968
0.0548243475499607
0.0676462645350199
0.0512144380760299
0.0655166942240012
0.0532664302582153
0.0643184757396808
0.0544175708955682
0.0801169407105161
0.0574862710579864
0.0496007744714145
0.0664669468756919
0.125018470530121
0.084074330413057
0.0819922027835985
0.0310762049992498
0.103645607736283
0.0793146246173981
0.0941043629507401
0.0898412781666722
0.0751774361363232
0.0753008213652713
0.0815061941084754
0.0826876917282766
0.0862001044064525
0.0786785626726607
0.0782570382107691
0.082512356494159
0.0907564516477431
0.0841656877081172
0.0775023931803479
0.0691248458921442
0.133151006588973
0.0995933284999898
0.0963481968907034
0.091338733869256
0.0823536573505528
0.0979171650697518
0.110977774122135
0.116798387939229
0.132760032561178
0.0941247525868361
0.146433531237464
0.099048485727397
0.124166800830383
0.0922581351648695
0.123642542363297
0.110237295568353
0.128412495109314
0.111553846525156
0.122034489511433
0.114187440913599
0.140168318950604
0.126416217849343
0.134484549586374
0.111434646526231
0.157099581002179
0.133769361447555
0.152890824587347
0.114361926487988
0.149822479827405
0.140116787632084
0.184476934100347
0.136483607203744
0.159595484524355
0.147107087676648
0.168716734602045
0.145838223042844
0.164776794365893
0.150614304338557
0.169183551172808
0.173560475130225
0.187237422805347
0.167064821194152
0.202769738216988
0.163889099777506
0.194879418185829
0.182252553108987
0.200042846671644
0.192378633727496
0.20095235165842
0.176912076894732
0.220643234305787
0.197537919886954
0.216192487815411
0.209787006041153
0.2110274911779
0.199068017653334
0.217109299028238
0.214095016759613
0.218631786281289
0.219709865226232
0.237333795538175
0.220411440186592
0.245310592649148
0.232218015043005
0.243976963548596
0.239666470591438
0.264654632481317
0.228005008660773
0.269427396650115
0.231635019498418
0.265957550544095
0.232200116349821
0.282414051496361
0.2425800606665
0.279249337231723
0.278153494249031
0.276897816085194
0.257803640322149
0.277284797078196
0.255977192234847
0.299017160927915
0.285786384836302
0.314858280787515
0.281350732633715
0.294519100738339
0.293846014313382
0.329267724192882
0.316421960269924
0.323393351660625
0.31284633047066
0.329513251390319
0.300113521803895
0.327017397062783
0.315953337710796
0.368213468148608
0.339407019864292
0.374266711340507
0.364362282059933
0.368820873725895
0.338877280549937
0.3794938168548
0.348409814032354
0.380147119221599
0.365531753970417
0.396151266937846
0.379508281049017
0.394232622503464
0.373683802049639
0.408017837456546
0.366973048926886
0.407665499895222
0.377273980511514
0.426242392410972
0.391446728071499
0.436403198835835
0.396589791778822
0.43484734714545
0.425357707449861
0.472469685718841
0.436557929608899
0.443822432111996
0.433793845101413
0.467946953158197
0.439384762250958
0.491087543696758
0.439860607683084
0.494546890479652
0.456797571048203
0.488223728161215
0.505169659890309
0.516748985250942
0.478147736317944
0.526788822431174
0.484055496525878
0.523647775193756
0.51942455410969
0.551141872926171
0.508877249626331
0.562089573892321
0.512681603791856
0.551205505857998
0.552398709922726
0.562867622670391
0.547909264407071
0.610458164823051
0.55508456422908
0.599589141545204
0.58420252686918
0.605017919075633
0.545926274741494
0.612276799693383
0.554115335192546
0.611803957494374
0.593082728617939
0.645464752439912
0.582991772299485
0.645848852708094
0.599552909841662
0.688352762869286
0.582700020519344
0.629633245113836
0.592326708403017
0.646448248651582
0.604993202722455
0.696634781048856
0.659584183241065
0.688315061871049
0.669193058902832
0.675809144415792
0.653360932435134
0.708310326858373
0.692573810043934
0.753930713173243
0.669320955869766
0.737379689211861
0.677837333095204
0.738405157263243
0.634630346859566
0.7409477612584
0.716322472851781
0.749735632641896
0.71873166931098
0.769395441948739
0.76532343323709
0.785900870298646
0.775256512246549
0.846164633400343
0.764763007902007
0.819032201476629
0.738213737482894
0.843959843107942
0.769309045110478
0.813744018026999
0.756193881658856
0.881698259510333
0.780436092997609
0.827829807709759
0.798928957795206
0.862844670600266
0.789688701400147
0.85591474264883
0.799154544627918
0.865499815998492
0.824800872199527
0.859215662860994
0.840483568260532
0.931543932097542
0.886002234115545
0.876232791840967
0.870146548072347
0.888635836093407
0.825697641971386
0.853788967446812
0.907813906354985
0.909138409819502
0.869386803469273
0.91383440999384
0.850991591905486
0.994897517100706
0.936301382699656
1.01109374680106
0.920164939906008
1.06135854955655
0.896023721899316
1.03448296835488
0.951053247138525
0.994004156211504
0.97988840190936
0.980787423936765
0.937108207351219
0.992535773490888
0.98826043304934
1.05494947535659
0.941932866794943
1.03733651428586
0.966130036619378
1.03750635607442
0.922793001639641
1.06982069339297
1.08552061794495
1.11581039409063
0.970226606458813
1.0906339110213
0.97806956289736
1.07426900273488
0.966215766987793
1.21334391650283
1.02409988409545
1.15082731913247
1.04657460228511
1.1438568213178
1.04742979350639
1.07708316576661
1.0482754276269
1.17895506681861
1.0972586555033
1.09837211431288
1.0508751905174
1.11898799514378
1.03325642162072
1.17158148397726
1.06623167150465
1.24133292158321
1.04503851089657
1.19212308325319
1.15301347155323
1.22118524792043
1.00946312109982
1.21408676523248
1.14067370319981
1.14748737288495
1.05653339715869
1.27601219331294
1.09280179076301
1.22694766724522
1.07611115691678
1.21227265599017
1.20046471592067
1.24184265848266
1.16165013148398
1.23100804843593
1.19694708701303
1.27786586680689
1.1352334967404
1.23651283583421
1.18041285943012
1.37944280386836
1.06080501026176
1.40072194214732
1.16105173965366
1.25998366851728
1.30383429492673
1.4033698496323
1.21899205055956
1.24421411898917
1.19274139183135
1.32597920970709
1.27731590178544
1.32377098667889
1.21240543846897
1.33111276150387
1.20630581699239
1.21157285647929
1.20314347572901
1.25657560271738
1.24085739854144
1.26596453621222
1.17370289105321
1.34733422024586
1.32745479276595
1.28830095324009
1.22211208737043
1.30328243010222
1.23678720824391
1.29466124110413
1.26119578245288
1.34512325555184
1.33221310261799
1.26862001501012
1.19791735686698
1.40438225562383
1.20615927158961
1.39827614019611
1.23341751864327
1.46690260891212
1.28474464671021
1.43448406067216
1.15281944919608
1.30555939537837
1.27498384606639
1.54755157175346
1.27857138308475
1.40862052073148
1.30393033448837
1.28136412219781
1.20924441353305
1.34824235434619
1.36517390311801
1.33743992726195
1.20486925444942
1.34732527803662
1.29294394506045
1.40896174349243
1.24905613961738
1.45780495992506
1.25147754830847
1.39525734209154
1.30603498222326
1.35940810722517
1.37127301690119
1.46170433638205
1.30675146457917
1.36511554318869
1.26637214592669
1.36050605341841
1.25729930835669
1.36749723550259
1.36614861197079
1.35456430637747
1.26554860602836
1.4512054800415
1.31003174204651
1.39379848812257
1.38314273359126
1.54998457798903
1.36921582101362
1.47283134959437
1.32698246221133
1.35294375425338
1.22854514037926
1.35623806852786
1.30253751213865
1.32204682668887
1.42267221824941
1.31582990937695
1.30567814946786
1.36143746358509
1.31693396277514
1.4844634162037
1.36187550327046
1.44700131409281
1.28605218372343
1.40635170828483
1.27324297615663
1.43217739921606
1.32293518459024
1.36942054062283
1.27567867007432
1.42393894975787
1.37623391919162
1.31486319423883
1.31340374682825
1.53219192772394
1.28075182333406
1.5101120566856
1.36141186326879
1.35866849144037
1.24298282664045
1.35735760246063
1.23823029611521
1.41561548591579
1.29831222150816
1.34965464169021
1.36364533631586
1.46314544341943
1.30495922563961
1.34524754514276
1.3238612589452
1.51717484638266
1.23582050469093
1.3440364523481
1.30452840356022
1.37899123045356
1.29271443287331
1.37418616327319
1.29300684394039
1.49044550143855
1.32173738264307
1.55251996685454
1.35070230354311
1.34169447591717
1.23516769742168
1.36969042218937
1.37805046467542
1.29855209728809
1.29178858508664
1.30494886678179
1.22921375108592
1.41307524819785
1.21238145568009
1.31393776380617
1.27021486455056
1.3885563686069
1.23342990134866
1.37530769222823
1.25866086288344
1.36495904598896
1.21009807755502
1.27605171750363
1.27489792145177
1.33088340364851
1.28955315726219
1.31323252940081
1.21367962796922
1.31120990120638
1.25874831685464
1.27073197260181
1.23294782981332
1.30576767928929
1.29939573747922
1.27156286540988
1.22589709185984
1.34191769358153
1.2185127768838
1.33643197822254
1.18733500036753
1.29012111066441
1.22379470730093
1.29339345713219
1.21580022717337
1.25983448278178
1.15920104598715
1.31076019955686
1.2680949967646
1.2892793022868
1.16731731879866
1.29051014384927
1.21120539194123
1.18535930990224
1.20513165704119
1.25471080672201
1.19163148183583
1.21033164960608
1.13876522451124
1.21895480100122
1.13610484904335
1.15328062562119
1.12372679314565
1.16554507907593
1.16886587320218
1.20611013588623
1.11853306356072
1.14643764840466
1.20381313527883
1.13872112092213
1.14235393711045
1.21896111550009
1.15823848740963
1.14858831810093
1.1026042805321
1.14993001945917
1.10151696757295
1.10035787990664
1.08686389248728
1.12568453971319
1.06617244006398
1.17485091971933
1.09815382230372
1.12151704197954
1.10126503956379
1.11838012812209
1.05014899319454
1.11304489320255
1.05954982680201
1.12943134196087
1.05020492467105
1.08906116046873
1.05726379858584
1.07757658756734
1.05671988485365
1.1006598193708
1.02628057443705
1.01603182227702
1.00428004741393
1.06340417027076
1.01805760680863
1.06105854645183
1.03761752022477
1.04551929907262
0.984701683733301
0.979747398793958
0.992995098840578
1.01200385265807
0.956967076955446
0.993246814940956
0.960803534341931
1.01185812149591
0.963687115495826
1.01095810097405
0.961996595244465
0.980261337780683
0.971152669094709
0.979039195497711
0.956389330767459
0.963045313969659
0.933365969050129
0.937893888937344
0.93967923096693
0.9683482386918
0.92145496200477
0.920614539834918
0.891347163033017
0.920236026713842
0.921015981401527
0.924509827316591
0.882066867697226
0.887637535049564
0.876734515287888
0.889178146087865
0.852852166569794
0.910863196921832
0.899775185688836
0.88723750409262
0.838791249407073
0.849410842397251
0.850447509098044
0.87209946472739
0.827579449577469
0.830621801741141
0.834771252850063
0.848506086969171
0.839792800838739
0.862347190138204
0.8278616206902
0.840216356064057
0.821891100062495
0.818138910312677
0.793594133544848
0.78897297057669
0.774338338434068
0.80238158433423
0.781455752521569
0.802055716213596
0.788954117594631
0.792940623503094
0.765274189171681
0.802153382972023
0.771161394176465
0.759478460532244
0.739177593259872
0.76902651070695
0.76769612684132
0.773264252754277
0.727604389811294
0.757037606749672
0.730378414457185
0.739878033364932
0.749194177775212
0.751118252102327
0.735509785830523
0.727459076510301
0.714035811176112
0.716848167657333
0.728745317724609
0.720446487919418
0.700506881766752
0.715182754189785
0.694382607052593
0.688553165867778
0.680944445082807
0.683820100374666
0.689751512149632
0.69526349473469
0.674027053542298
0.688643635419922
0.666667364864842
0.667169795640524
0.662990986999813
0.657768694925608
0.635167441368796
0.660655651089359
0.642740292267599
0.660784303405423
0.655628969751212
0.650113436856622
0.649522472542599
0.642475187016924
0.612569626655179
0.63858335810896
0.628805262339588
0.639706557389022
0.619265099010689
0.626492700633737
0.622090918562851
0.620549692163384
0.599681632650155
0.615471964268697
0.608229757992772
0.595332907474763
0.59219155529481
0.608965198480322
0.582129490009538
0.582945339423718
0.586691443098832
0.5920172930955
0.585846331160075
0.588180527372985
0.575040765827029
0.576133336210798
0.563444806871263
0.579243426101856
0.566789456720367
0.566229197880954
0.549869545199188
0.578524012273399
0.560043563007809
0.54901215041791
0.545519809799561
0.550623256966814
0.543682912622215
0.555153745849048
0.53621270686042
0.542736992474396
0.527348783780772
0.534237400430547
0.514960270359554
0.522249980136174
0.528487972067081
0.53162900549787
0.51347368310589
0.520421147032774
0.504211847317205
0.511200426047548
0.500484480843991
0.499879465386927
0.502178742553117
0.501866483121737
0.489089202150899
0.490372605933877
0.488481167186429
0.502966310394408
0.483060080736469
0.488462586063771
0.484329322878656
0.491215649477037
0.475941959734774
0.473867259314431
0.467261938953148
0.480404818521467
0.46625578211682
0.472604721730198
0.459021126792357
0.452593996984448
0.452075286938229
0.4645801654891
0.454114186869647
0.464954709514747
0.45315396631519
0.447986588946433
0.451160133671582
0.463527979497506
0.441893484955333
0.442211713402971
0.435348125950229
0.450317827814152
0.436760484899561
0.445901920884344
0.433357908082596
0.437156656532734
0.427111490538223
0.434545281321575
0.42869917923273
0.436653328800469
0.434992356035519
0.431138176157163
0.427806704695363
0.431134893104683
0.422174323467558
0.430747222434178
0.410603074740124
0.426359369879963
0.421277838834144
0.426151164858517
0.425500811326723
0.42975496459815
0.427382641987566
0.430458877054071
0.423259397260483
0.432114002982195
0.41829756966994
0.428197168308437
0.429429359250404
0.428882186642081
0.431671241936684
0.434938885249802
0.431427643617182
0.431045852987032
0.433970290783353
0.449021445492903
0.436846275011925
0.444782519557716
0.45090067715421
0.448570148900398
0.442829305993403
0.451004489019248
0.448739850714784
0.464348675842645
0.452965092551002
0.462254970602469
0.452949432273974
0.468038589942518
0.459375167547988
0.465104112138476
0.461127281923519
0.474423145430813
0.468186651070191
0.476727125757864
0.474946157533884
0.479990100824092
0.480687261428573
0.482917145677371
0.47624077861706
0.490492769559239
0.48986091806367
0.507469956713282
0.497847390305835
0.508898968045972
0.5057837374431
0.509095261483103
0.504816009759027
0.510324614532956
0.511676437790051
0.522282078517749
0.512812413523182
0.51902847700422
0.524391329615156
0.536381526742
0.534236589280231
0.551734716074454
0.546038048982551
0.555439242894049
0.555911187487594
0.558877987105996
0.537221995488757
0.566513089244165
0.570146273510587
0.574853583270613
0.568618886719562
0.57548758676145
0.574117424519431
0.579859236493749
0.575143660242952
0.589315519688787
0.584885827978677
0.57555370780254
0.56899995119503
0.581070742047462
0.573921441524681
0.582006835543553
0.585447437924186
0.59282510777909
0.56954971901375
0.577375713414949
0.564672622750826
0.572586408437872
0.583022636349953
0.587176979484843
0.576665881543526
0.572121318425095
0.572004915708357
0.584970517327458
0.572110025703415
0.583772229793865
0.573090585031359
0.577731694755055
0.568331814489891
0.583523128849081
0.563638873720169
0.569222770934094
0.579014241018187
0.579035301809131
0.572165578109037
0.581379148040565
0.578572636007989
0.577152301078038
0.569583425604095
0.584369386253608
0.571552940937395
0.583975241249215
0.5854592401455
0.580969072701787
0.56375416907471
0.57566761996511
0.572830740155464
0.589409149935741
0.572796240797677
0.581858241171882
0.587598922878107
0.571480703277578
0.57442090908838
0.576445354144357
0.567088447582265
0.57776248604659
0.57218637050031
0.581276901562995
0.574136626219062
0.574026964158129
0.567807063754579
0.571196393513178
0.561246591896043
0.560838187538238
0.558168116522457
0.552721237530169
0.558394875334056
0.570294222051791
0.547876198400458
0.545396092922473
0.53801176150472
0.541720691145309
0.533419984774474
0.536605615985486
0.526233888137914
0.520707603835914
0.520835158035152
0.526066691655345
0.51940215850419
0.517477764110712
0.505785558738347
0.506557490205564
0.501414921066404
0.505398743007937
0.494024650268796
0.493614633587365
0.485680352801438
0.488668779151737
0.480806330985066
0.481871482794369
0.471108497188683
0.476981830208151
0.469157179495271
0.46608494534156
0.453831829055285
0.448578540125527
0.44512519294017
0.445663131715444
0.436849408059378
0.448252102838053
0.441566209060693
0.448526771703237
0.440968733713803
0.429256153363453
0.429430475402573
0.428533593544949
0.41655649826435
0.417406084708478
0.415500333306972
0.417313738127515
0.409197357415253
0.414056858943303
0.408924855108962
0.407190586216221
0.401014569171262
0.409121771474364
0.401970617635909
0.395494110158443
0.399980158733855
0.398850810399257
0.390399740475082
0.394448558253549
0.394138246413466
0.392501827197382
0.385142117390286
0.392113365297471
0.382599060014891
0.383811693977549
0.380294658663261
0.381636982828386
0.377599852337872
0.374601965060597
0.373610783892762
0.375636040985263
0.369176852555534
0.368170794981495
0.362470344002861
0.361738603667729
0.363683064925159
0.369718397242712
0.35814124819091
0.360751178743678
0.361551652761871
0.363301208888378
0.356940776593644
0.357269679364821
0.352140235112207
0.355693409780551
0.343231319350852
0.345318448470497
0.341425437866556
0.34835764035646
0.344856569860038
0.34606899681967
0.344443181898438
0.344814350859335
0.339179754262391
0.3389903942891
0.335909327002527
0.338265230291235
0.338910635303601
0.33494251173435
0.332795272996204
0.340783758142025
0.327115400374232
0.330512541114657
0.330386505853577
0.332262064114462
0.323984679150945
0.331209880364616
0.324838410888719
0.323276783849123
0.322347993737025
0.326605300858244
0.319297061706263
0.321614904662088
0.319100688876553
0.32340051672921
0.317677547384485
0.317660820664253
0.313699540909319
0.315448543338017
0.314972086918693
0.318948067910788
0.309171599193872
0.310351007307827
0.314640499462042
0.315757802644587
0.307393088122828
0.313651275451194
0.306231444186748
0.307940963305625
0.308772683451363
0.314198734128629
0.307443006538115
0.304768919956845
0.301221020716693
0.306484575672218
0.301170630662616
0.300706492099997
0.302235865390721
0.304954176470645
0.296341737487897
0.303716046861069
0.302734992681251
0.300430628109169
0.295096960660696
0.300010263742274
0.303169891257422
0.3007203884259
0.298641260717178
0.297407115933377
0.293360568446439
0.298061444552655
0.296821195785014
0.294243022153462
0.29162656207634
0.297483427604592
0.295224120758253
0.29724567045627
0.297315807901626
0.295122218445651
0.289220397355775
0.289790438383256
0.289360975432454
0.293245404305893
0.284725905239293
0.290576020868662
0.286221078636976
0.290756918533401
0.28178042358238
0.28258728663181
0.280624928664939
0.286677629265254
0.286061558123472
0.28520076908859
0.285629684591142
0.284386077319826
0.279857794726519
0.28327654682876
0.283074864763355
0.281200708084004
0.274967593298696
0.278957882629744
0.275897713329358
0.273326132692395
0.276264765369234
0.279448241342075
0.273234461521663
0.275237348917581
0.273162629977544
0.274725658809532
0.27132584912293
0.27026742689003
0.273710101175512
0.271360359632753
0.267572271291629
0.272222485668379
0.271458628743736
0.267544195133741
0.265953446186589
0.267852200653833
0.259650216229543
0.26287354558885
0.261869412233679
0.25977622001879
0.262703375853475
0.257100754182754
0.254944444330179
0.257770123259691
0.257135270123966
0.258496923301303
0.254776607649663
0.261102495759689
0.2517496138736
0.253613590274268
0.25826736223607
0.251851134034511
0.249120600014003
0.252597021373333
0.250143276594726
0.249277464391965
0.244575822345952
0.248598974093989
0.247429836207137
0.246740257498244
0.244383336686257
0.24740966874019
0.24228843200543
0.240962756150365
0.238358283864724
0.238369060161369
0.238109233547247
0.237657274009276
0.237530216965129
0.234946957523956
0.23891422974527
0.234886916805737
0.23331969616209
0.234597944343368
0.230251679497634
0.233813730767648
0.229542520271996
0.228586087786556
0.228526572589975
0.227562592340737
0.226226175147289
0.229921045182939
0.225563531668325
0.225303022754307
0.219383359143699
0.220240262828189
0.220084955812491
0.217443867726592
0.214446056335475
0.21555255570505
0.21804814556527
0.219773988041628
0.215808109821627
0.216735461128571
0.211664681390168
0.212395423801544
0.206892999411046
0.210806050067906
0.205200581795514
0.206015599210508
0.207090188306909
0.205318845749657
0.207096437473409
0.208162631588224
0.202701536522323
0.204605260584481
0.200567261096607
0.202309212414703
0.205018667416154
0.19919139433113
0.197126020028559
0.203265949119619
0.197565943468583
0.198797898652858
0.196951739976262
0.194792349146746
0.196457973216957
0.192286951947986
0.193732025408722
0.195490232939659
0.190710563506377
0.193755859000698
0.189851199509852
0.188665439522063
0.184197686417837
0.188210687315858
0.187149501113948
0.189108644676319
0.184109802606471
0.18564580567608
0.185974284947906
0.185170029452746
0.188566942702795
0.184722319958926
0.182712519830239
0.181031890148653
0.181131249118636
0.18296659595845
0.181994984610622
0.179920402923029
0.178712143229505
0.18215083824849
0.180192312226521
0.180351380745725
0.175380138278604
0.178354519081783
0.17636497266689
0.174934661386422
0.173463612600376
0.172090869732244
0.171573529390307
0.172484480202946
0.172347359242878
0.173123382731316
0.173674012784012
0.171886922112977
0.169804670224406
0.169649757004838
0.168632399256683
0.170166042824995
0.169544828382736
0.171517672354215
0.167324536709898
0.168943825523789
0.165779876543868
0.16622255296963
0.165627508446151
0.164781694887804
0.166739181479804
0.166084087268747
0.166829627254182
0.165581437132365
0.161399396616215
0.163079868879197
0.164007381907855
0.165283534237488
0.16204850628947
0.162911880399647
0.161972405976936
0.161448922447641
0.160262461412688
0.162978501416058
0.160479579510124
0.16256311583381
0.163427733442675
0.162262955933463
0.156340927960034
0.159716588665279
0.159694347759877
0.161019131562129
0.159155754699011
0.15750205769608
0.154887413721801
0.157972579532434
0.158670043141819
0.155054251450816
0.15458450065046
0.155393293321813
0.152852424011821
0.156473444931052
0.15623960109229
0.154649484494355
0.152959283872714
0.155847926470923
0.155471810147344
0.153033702913269
0.150317316526061
0.151478018028929
0.148954536811752
0.147783816252355
0.148835437333356
0.150687674335372
0.150389533768069
0.146966522528922
0.14749877645747
0.148981769792847
0.147994085296405
0.148090306468853
0.147055364703754
0.14595039525785
0.147369901936646
0.144224045860789
0.143053340456123
0.148126521438611
0.14505896219558
0.143330009945329
0.144205126452042
0.145270777700752
0.142631611797768
0.142637264135082
0.14282249277048
0.143821896266889
0.144925355123319
0.145177300137095
0.143864718507438
0.14166332210892
0.138402179591827
0.14002504148032
0.140255663014296
0.13741589665538
0.138642971099669
0.139519621119707
0.137793048517671
0.142328293991508
0.139926855022171
0.136901454777877
0.139538355240962
0.139639512003719
0.136366753324765
0.134495372434833
0.13594733784498
0.138177985226158
0.132555260650469
0.137106721720115
0.135795193946814
0.136344785063498
0.132038438643443
0.134647244493449
0.133250741182767
0.130862117738186
0.127698062600959
0.130984802895302
0.130370422449608
0.130710213866379
0.128116598835345
0.125999859558789
0.127891098724174
0.126037195447567
0.125498531663884
0.125307602157345
0.126807188243643
0.127461523315114
0.122740302429337
0.123492427743531
0.124410767059699
0.123819272838664
0.123855378356871
0.121207978800898
0.119570199331779
0.122196385962358
0.120711098719315
0.11902518136788
0.119868849267004
0.121705459970914
0.118435685082729
0.119629845979134
0.12031257954116
0.120981088598274
0.116725318053123
0.116549548539099
0.113852869745291
0.117663092373966
0.111969167531543
0.114498916346868
0.113336188985625
0.115748557570071
0.114592296519864
0.113058587194122
0.11369984540441
0.110331288071759
0.108880972194774
0.111509867256215
0.108159446041019
0.113611961349045
0.1120601486722
0.111357674021122
0.109898879898651
0.107766973182174
0.109626120560759
0.108064551577128
0.105208108192505
0.108614351227647
0.106982058376932
0.105456657821026
0.10430827196492
0.105842747769413
0.104850219757778
0.107625959329663
0.100606717978428
0.105414150329966
0.105166635568233
0.103801273250218
0.102855880825771
0.103069482195183
0.102908179505715
0.100661985803015
0.0984946103618697
0.103470145946301
0.101377989150179
0.098038515924397
0.0937015413150559
0.099004166234854
0.0968311904222621
0.0968639908238307
0.0991347296924601
0.0997209983475315
0.0969584331046792
0.0964797257426811
0.0926222187064285
0.0960094284461366
0.0960585856413167
0.0958749327475577
0.0957393165827149
0.096645943981203
0.0941193898374069
0.0959039132150222
0.092313555650416
0.0947958102006862
0.0945348985841002
0.0932011466467359
0.0934622048857909
0.0944590774242554
0.0901380431095024
0.0943155300286056
0.094211177078243
0.0946385889169519
0.0889870641281901
0.0946119347113201
0.0899224422183849
0.0894520164610267
0.0895265917927029
0.0925579039986915
0.0885488766865533
0.0907679272562868
0.0916055614813642
0.09327277374997
0.0880725485255537
0.0901093674110286
0.0911808007453442
0.0930685126467424
0.0910649993753874
0.0875080264600338
0.0840740567435477
0.0874721721336311
0.0825938094464798
0.0868466706043839
0.0861354745434776
0.0882819295041243
0.0882873017275393
0.0936992164084085
0.0910081314326555
0.0856178967176566
0.0724932642925978
0.0839857315463475
0.088196096244758
0.0848328146411167
0.0803896263894311
0.0906695238450311
0.0785005975141583
0.08544548446525
0.0861616102428435
0.0888282680475258
0.0858424980286544
0.0886571745103685
0.0856433080178508
0.0878748609941703
0.0810679741164411
0.0912580929601911
0.08139794938468
0.0901477302600196
0.0818001082603426
0.0845810002772306
0.0728854133015032
0.0857666550924455
0.0765825597009003
0.0888014768474497
0.0798226258931389
0.0872167186113181
0.0823785468363105
0.0922713338325396
0.076213085286462
0.0948373668110213
0.08180979653361
0.0883302829471705
0.0839637572376592
0.0933090342087609
0.0901177522376386
0.0901953928440317
0.0915495492701068
0.0834391404288438
0.0837141003743733
0.0782605269871573
0.0911149861769099
0.0807722741916058
0.0926694519076501
0.062254411592294
0.0905244366008071
0.0660765369823305
0.109344587465453
0.0600472793284055
0.0973993220054647
0.0618301891717268
0.108010504573217
0.0563351988596776
0.102355998287039
0.0647271601510296
0.102170475793596
0.0602215924225529
0.0923397162181862
0.0710540498667678
0.089414887224838
0.0787153323374874
0.0806192157980587
0.0770168397763384
0.0788237804586165
0.0783741026711388
0.0788455334034169
0.0768350001934482
0.0812270429546021
0.0730913473876701
0.0824518478211039
0.0742991182875663
0.0826730651515954
0.0740830545913779
0.081014627670045
0.0756939068937131
0.0786201443529756
0.0746874841348406
0.0764922529341094
0.0773327992676325
0.0781543967220182
0.0744326782804184
0.0785702045914681
0.0748947339794818
0.0792681127036132
0.074708929490461
0.0776363616006984
0.0761536014849983
0.0813143670588707
0.0765221504417301
0.0773743852166942
0.0754202355334071
0.0793378846821484
0.0752979092001972
0.0782279895441274
0.0744713799269782
0.077294091162719
0.0744811648321264
0.0781097965670162
0.077516404725746
0.0795325134579639
0.0740403540494721
0.0785530196834591
0.0774181874520999
0.0802233332519464
0.0748990080628442
0.0803138410288086
0.0786059643936185
0.0796531067889572
0.076497958483818
0.0793023789674694
0.0740396535764394
0.0820183609231148
0.0766321913003621
0.0814339859632392
0.0765771171865615
0.0789294653603034
0.0757187324074599
0.0769951016515017
0.0741438606306007
0.078734771803949
0.0729681274696717
0.0775486300962604
0.0753556542033938
0.0778190760916056
0.0762906269584014
0.0776137978576123
0.0778616504797835
0.0764895865777434
0.0756101470432918
0.0784643544837515
0.075598437126693
0.0787897801218378
0.0777395983823468
0.078488945037212
0.0799039121164637
0.0782152917449955
0.0764480489387339
0.0795888696464734
0.0759302201098569
0.0800324223797184
0.0759759563180868
0.0791043388424728
0.0736713051798235
0.0748369377305523
0.0786273795216482
0.0789308624484707
0.0764802925434227
0.0798924497337375
0.0753160327025503
0.0771242767213418
0.0772995852569938
0.0778566506561432
0.0790911365046198
0.0810588154107866
0.0800433928401869
0.0808130972487643
0.0772293083783506
0.0779338208552226
0.0780150481069823
0.0804021518234732
0.0763040106013679
0.0796240478751581
0.0767884678222211
0.0805691969092315
0.0803529001856994
0.0821070551049369
0.0772849549417809
0.0805311015521777
0.0792302583956503
0.0804002848131822
0.0788578283762366
0.0828735570525603
0.0794474358063492
0.0809901084784985
0.0807408790941387
0.0798297148899524
0.0797799491903924
0.0815892353912061
0.0781848058322817
0.0823197240419186
0.0794371736849484
0.0835172159245152
0.0798461228288823
0.0815774883889347
0.0812223768437936
0.0833528300584836
0.0788786025191536
0.0827210777499948
0.0776201416190415
0.079800947137332
0.0813860932608377
0.0811032856946902
0.0804957622978543
0.0798921852335089
0.0805935898724666
0.0817329940660588
0.0792288211166254
0.081926434412248
0.0819970098679705
0.0828357327984361
0.0814068778000627
0.0816196989607989
0.0833306190552969
0.0840192980387694
0.0821070173802193
0.0856386651351153
0.0803100692834716
0.0839576410874397
0.0842912531410107
0.081465579032484
0.0815882875836706
0.0838811356010546
0.0848430363523687
0.0851008326102347
0.0816592513285477
0.0848932191922066
0.082422985868085
0.0857008049444628
0.0821440924967296
0.0856882570352431
0.0838777094862167
0.0848824182593261
0.0858427932870736
0.0877718991384164
0.0859025742710111
0.0846696207428418
0.0844059724304202
0.0867512540294051
0.0840154224879353
0.088666186957169
0.0836767367715053
0.0878223846259897
0.0862937013231958
0.0870689519963632
0.0827894178673983
0.0845113942185327
0.0856120909743454
0.0856581186412548
0.0836018471357934
0.0863392480463198
0.084252892489406
0.0860863776859374
0.0859168968574059
0.0879667978482763
0.0848209117795528
0.0845715308584384
0.0831464409397362
0.0864020348755562
0.0838333290667382
0.0858999568677376
0.0847274093121671
0.0842669612311165
0.0807442823141072
0.0809578296596431
0.0823077212987388
0.0848371573501659
0.0800280586111324
0.083157024579157
0.0797656576956862
0.0804631589920245
0.0818929809089267
0.0826159918343086
0.0778824209606691
0.0814054310043648
0.0828552848711604
0.0816128646973232
0.0815511127769675
0.081344597948985
0.0768702311203352
0.0808555013769085
0.082453901420411
0.0815963444190128
0.0798778845558162
0.0821310978997992
0.0805841315034474
0.0794180545231081
0.0798616834569868
0.0813357930860643
0.0796449386939198
0.0826402326464984
0.0813505376648618
0.08232167925952
0.0822804847937468
0.0822871910836627
0.0787023966624222
0.0808335928187047
0.0785180386300221
0.0816457860374705
0.0799942727508671
0.0809223171888519
0.0802917801342605
0.0812049977621527
0.0777506796891174
0.0794693209684094
0.0766663179926856
0.0793968834755394
0.0789882613220762
0.0791914453995514
0.0777143704581636
0.079931552351888
0.0774695093087363
0.0803947019755111
0.0798019957182209
0.0803470805569104
0.0758587000058365
0.0790642565247694
0.0771313612277707
0.0792634017535563
0.0776219336379083
0.079161201030206
0.0772453274863542
0.0804931148562699
0.0811115137101891
0.0817370839475852
0.0786574737955189
0.0805754482982055
0.0781793315686116
0.0796266936433697
0.0738552415825923
0.0758894525475935
0.0759079676377433
0.0771448592146781
0.0748055804173926
0.0772906036017926
0.0786721368365676
0.0821078166773958
0.0767085233093525
0.0793802904256094
0.0765630492019021
0.0763896164497018
0.0741863722245563
0.0798650501670879
0.0764820867312455
0.078018164212497
0.0761107320279699
0.0791565384602669
0.0768360257868836
0.0753245340052898
0.0764642723202416
0.0769821662591766
0.0739428007526748
0.0751344696117222
0.0742614163124639
0.0768800772779215
0.0764458632286918
0.0757474359711034
0.0760437850724348
0.0740818588589674
0.074980656132487
0.075508057884228
0.0756446817300921
0.0752981256566011
0.0746069303709197
0.0764368234711969
0.0752002982615899
0.0756799524411649
0.073140272366292
0.0776480033020172
0.0734699919439441
0.0762814339877368
0.0722587051439167
0.0719394135952794
0.0719014969670635
0.0740680441545879
0.0702670216279205
0.0751702952968666
0.0744790361683037
0.0738585245197224
0.0708844009513574
0.0719969951341482
0.0693784219318993
0.072657673272441
0.0701034116414779
0.0728962330008634
0.0689352965409067
0.0686563449948545
0.0713759358729729
0.0717683994443698
0.0689604289837585
0.0672607203362134
0.0678321095850693
0.0689478103797431
0.0676025938403458
0.0663329233579918
0.0650352227316516
0.0665372644070301
0.0680375318491052
0.0667440254880965
0.067932887260193
0.0657490850657366
0.0670558535164557
0.0683214450805109
0.0651930576670792
0.0682411577336997
0.0643883313200652
0.0658269119203515
0.0679097185043849
0.0628944645222455
0.0663780427452215
0.0673272051205212
0.0670294177216365
0.0635543508315679
0.0641895008950993
0.0676657976624723
0.0642862409091775
0.0661698127421715
0.0645398087801787
0.0681019501738792
0.062613565370878
0.064895745374234
0.0611400758882229
0.0672277625862024
0.0652057640876481
0.0659761990534023
0.0631631444376197
0.0656459998143994
0.0629587837097555
0.0661388797417497
0.0625810007178529
0.0627546386055646
0.0621537761411835
0.0644600307810442
0.0621647662829903
0.0641039908929757
0.0609509706824079
0.0627589317925396
0.0626755977099121
0.0639099361666163
0.0583932932289294
0.0667647017824367
0.0599710752749165
0.0655541300551382
0.0594494638057861
0.0621460497000208
0.0615802027705381
0.0645444905060357
0.0603231590504645
0.0632897807600791
0.0626118189327223
0.0630632448026188
0.0591579382234984
0.0603227542013328
0.06268949375548
0.0605916868242731
0.0578994435124031
0.0662828661243611
0.0572261868234442
0.0611671875084963
0.0571599766351421
0.0626450160607351
0.056974567324223
0.0618164073783986
0.0533940685033939
0.0654839082450554
0.0523873272268768
0.0607963474658322
0.0675161317960765
0.0591865194705565
0.0606565410862422
0.0552997308207264
0.060762445258221
0.0577514396091044
0.0572110502455541
0.0595801236300122
0.0584093319099817
0.058371737754522
0.0603708594539739
0.0581435692589472
0.0594108467125775
0.0576640331135377
0.0597054833524765
0.058025416886027
0.0561926434290968
0.0562036306040584
0.0576418016297093
0.055802961791414
0.0595784096219477
0.0666438916394712
0.055767074783903
0.0599872317316383
0.061051274054778
0.0475082631145037
0.0686645940372972
0.0571250044432015
0.0634231029090022
0.0552616954201155
0.0570498476798945
0.0588099004359568
0.0610466228770981
0.0555887715056332
0.0581246980143839
0.0588060298091738
0.0568732147516743
0.0613355576244886
0.0542243677109981
0.0597426945465611
0.0585101368135305
0.0567074143651773
0.0563617864003938
0.0615698223614573
0.0565995823918864
0.0565114114657079
0.0553915393799268
0.0582882370524885
0.0596124252934989
0.0533316676227657
0.0557318384477594
0.0597055219529105
0.0562792858785562
0.0561462888250999
0.0620673126331102
0.0533827137299018
0.0524181400345965
0.072202684184311
0.0563019395102971
0.0624645215693289
0.0516157750557723
0.0598774261801932
0.0569023163613646
0.0598370408423633
0.0542674559896728
0.0601499185739681
0.0568387033059224
0.0593023788685196
0.0527151799215683
0.05839487359918
0.0533430386238018
0.0575918775285902
0.0547508866581381
0.0579207325538877
0.0573100537454746
0.054216864504456
0.0603468164877899
0.0499998448848364
0.0537849993412218
0.0646216394060217
0.0614605093692743
0.0632729755546988
0.0594903287131059
0.0579685518288216
0.0547816457617713
0.059704022702705
0.0562134834973056
0.0589422225337069
0.0554049031065265
0.0598091236885548
0.0554693624899565
0.0597295723429478
0.0540216056280899
0.0598940611204567
0.0525290935375234
0.0606915054118906
0.0497046666267858
0.0613228724715068
0.0510438290683475
0.062698018820343
0.0485423716927791
0.0645773037684741
0.0513523372482338
0.0703464375852505
0.0341227214118642
0.0826025756950723
0.0607532417632793
0.0601904165726205
0.0607467136996957
0.0568141566147952
0.0607853620153034
0.0576833834244405
0.0567818033804775
0.0605354677967459
0.0570128892740535
0.0579148228340436
0.0573449150691864
0.0599939348382947
0.063358783105869
0.0521798310346804
0.0504871830493367
0.0735819270756688
0.0569300085670661
0.0675515287095756
0.0518198695597453
0.0562281731296587
0.0702216218088465
0.0583545448556396
0.0678470422080466
0.0608341716397209
0.0588477129496742
0.0615624839083468
0.0598468763562417
0.0554873131634281
0.0587443056726075
0.0620306991476629
0.0595693956617116
0.0611217255200063
0.0565165650620814
0.0658712135102093
0.0583052565266989
0.0669009767712401
0.0677312125158882
0.0599286493423979
0.0647772408594331
0.0601425123080974
0.0596429307051913
0.0629962686419779
0.0630850585349252
0.0599125091200199
0.0645954083401043
0.0727645017149275
0.0593719720519054
0.0712101299327734
0.0696176225879399
0.0615337907493396
0.0665764860411976
0.0605999662416925
0.0766098860802258
0.052996819287359
0.0626196501948065
0.0808210182131299
0.064126719845761
0.0831382860748969
0.0588296188676047
0.0781689695491934
0.0559295461488667
0.073060539335088
0.0527332578673374
0.0889200083264291
0.0549669637701331
0.0799394512411601
0.0528388993908317
0.0799283845207544
0.0704206670272942
0.0733696259031952
0.0701992117403859
0.0731673011039159
0.0619155617041444
0.0817171713336883
0.0677077069072577
0.0580235602394625
0.0753307131180318
0.0779168088680884
0.0879435411627587
0.0742571469268336
0.0555136146936996
0.104983606064708
0.0669661683910538
0.0835682001303444
0.0627857179157233
0.0841650337848356
0.0683442199532754
0.0673874589634599
0.0872610233618781
0.0787400889335369
0.075323975417576
0.0846008965848283
0.060548670236287
0.0900825873585712
0.07736644473542
0.0834457826988135
0.0713785751126273
0.0911320508476644
0.051110947704081
0.12604799792123
0.0794662473109392
0.0892197038568135
0.09574662287449
0.0913320074785773
0.0907344565090218
0.087522419659757
0.0891993112161295
0.0906123189381814
0.0979930111207182
0.0958239731684145
0.0786515049728296
0.100441179210941
0.111562869667119
0.0863113678870618
0.106794202414735
0.0911724645885307
0.0838056070560329
0.101376496305412
0.12285854631787
0.121781200847016
0.106926118214165
0.0998759761847448
0.12528926119043
0.10687619577026
0.10822588009928
0.108515056150091
0.108364331677289
0.116353769925104
0.106274534916307
0.125558046920816
0.112023348287179
0.121039130019347
0.112239336939308
0.112889995462525
0.112858942337833
0.135712653899336
0.155387707902536
0.1124612748591
0.160383143125134
0.13307114709603
0.141422615553361
0.130638950897491
0.130026596645939
0.142696532514123
0.135654271038525
0.144256053982544
0.127308716195966
0.155469878183937
0.144798150117919
0.144705645295005
0.169937769895789
0.148516163768938
0.164153461443543
0.0964832332856867
0.304200188932516
0.158502051061837
0.19900829377023
0.164878841673174
0.173002867948532
0.243085381067951
0.201710478960796
0.20670436252944
0.211454457159878
0.209282714578469
0.220402113691627
0.230666321673352
0.234112697108653
0.243929277881702
0.256773234000409
0.235597609452081
0.255052723109683
0.286622571014696
0.298381307348754
0.299265125478916
0.283289169341906
0.305471133373231
0.313852841525824
0.308850712946374
0.330469160864945
0.319921725125669
0.323415899299373
0.388456158593289
0.3439519040314
0.367675168421705
0.345757248694624
0.418072292370159
0.350509630953345
0.461143982246062
0.399937342162075
0.420481040104851
0.41595195112346
0.426838568728101
0.443413311873104
0.41915770140786
0.471917199285783
0.465950632783832
0.456205491248936
0.474415683592706
0.470197481756031
0.488180023333657
0.481794142479869
0.49603760715176
0.4685238446944
0.526202745713458
0.466453929378646
0.65802206193829
0.5259186046807
0.518944469316692
0.508239659729833
0.503196978456081
0.543154069220931
0.515683882458372
0.545099409313745
0.53725095072145
0.519826678426553
0.532336666865226
0.519400878330574
0.52641264011006
0.511834680370715
0.538357823889854
0.493613900139421
0.552019086535634
0.500450934777243
0.559227434491396
0.561089217433576
0.522338208905975
0.525382908749608
0.518496399023013
0.514680025302283
0.513340503662496
0.500731822837006
0.508567260032145
0.523798144516531
0.497410577927616
0.508063229031067
0.486948724396614
0.511409807424125
0.516614698087845
0.478160749475039
0.487741127666066
0.4703166691622
0.49282841324675
0.463878942150917
0.465588481507181
0.519389076826398
0.459152985649796
0.461348431460035
0.4495495132764
0.451041259796031
0.457666413048287
0.436902550309777
0.438943694187825
0.450279119047362
0.432536994613792
0.443963445516377
0.427876872095251
0.431040733968188
0.420593331297979
0.42900184753341
0.427485250092422
0.426742835914968
0.417467590877062
0.420712133318291
0.426823960460926
0.425139858631646
0.427813221804087
0.4182115141599
0.42293775175696
0.428068759601212
0.426045167763764
0.429850922187734
0.426108481630599
0.423107199109984
0.421478481492178
0.411429270149458
0.421327487119343
0.423485077826499
0.420194491157241
0.423253259321785
0.42925854350949
0.419447958393039
0.417845331302199
0.410048017505216
0.418941111735486
0.406817640979323
0.424857628965515
0.378491792625688
0.47038829426933
0.432072392458849
0.40449120352091
0.413842072503316
0.401566165913253
0.421541072544266
0.376702193414635
0.429118602195373
0.412155404843807
0.397922970550066
0.395720717248879
0.386416441381855
0.388400751986263
0.399747424020531
0.375051818428078
0.403948342645506
0.350329286605816
0.406216577783498
0.38654678511115
0.387445192468603
0.430893395795066
0.384904874921281
0.369012235199628
0.360923813312915
0.418787114033792
0.355916024987633
0.391829404907049
0.349578176366543
0.402871245002164
0.376707018874313
0.363160617580815
0.367311953708184
0.356570664055241
0.360025918843802
0.389069864301303
0.351664281690748
0.355967242648174
0.378163038918725
0.341581510692934
0.363572255785036
0.392582877035914
0.367593121734736
0.340010632674797
0.342982482027399
0.336285162636344
0.311814163988606
0.378632475303149
0.329402930296521
0.340765130473156
0.324814888899808
0.32231716168406
0.316318974882899
0.31990757711804
0.329434367418251
0.295644960271556
0.352068090183735
0.286126657190725
0.320579606753968
0.296124909656084
0.325550400536266
0.333780737838663
0.308210957042229
0.283045369433537
0.298759213892262
0.321401821056351
0.283493708389596
0.309801339147999
0.278048398741402
0.271052259276722
0.297582673112113
0.271967671555324
0.27479254878994
0.280155184571041
0.255385148248062
0.298608268877817
0.279280117428821
0.29843860859507
0.272079188402499
0.255244852730617
0.262895388819163
0.25172130436764
0.273118891834507
0.2422698840239
0.282793342799162
0.274992401834522
0.230162889814288
0.30822148138697
0.265667056918917
0.261952530959947
0.265837221292875
0.264504956288764
0.260553154129886
0.271904999780144
0.291828498133256
0.287695578935934
0.279046449278386
0.307740019756103
0.276902074946516
0.298609388442327
0.288563674447843
0.30543923551489
0.29595922481908
0.318284066988501
0.311198343672785
0.321257626512699
0.324500359408695
0.328179874198829
0.332185710178815
0.379886569670054
0.321713492001348
0.394104335191523
0.34936304237176
0.419564911105777
0.384249885671147
0.385266566852068
0.397950609906514
0.397181666741582
0.412137706769745
0.403623565296776
0.3972110768614
0.466316560000408
0.412610905983952
0.446591410670604
0.426267657491002
0.453234759898172
0.427488480537678
0.483006611345588
0.43268715669913
0.496096079656038
0.494801678933897
0.483789476743402
0.484381298414794
0.458891289193662
0.486057579701829
0.482222998245775
0.481870387913844
0.484053411115167
0.475914858133637
0.510858715073972
0.490118710867843
0.504412585841874
0.494719247175794
0.497459672127748
0.503209688478006
0.510432533154071
0.508478118155835
0.512286502930414
0.515905926630011
0.529668667957902
0.496325689853905
0.602431981063458
0.529453509426765
0.541068887183494
0.540733696309558
0.548404375479418
0.547603138935109
0.538684539764447
0.563483809948284
0.569264116268705
0.565933383885171
0.584051779176719
0.56321461349945
0.575787666132744
0.565990195482973
0.604166803448236
0.565918798046666
0.606026358821628
0.575965926602525
0.59441267399022
0.645222927912982
0.597040073209812
0.62248667781849
0.597920241998423
0.612697884932517
0.606177925422937
0.620869791563602
0.614473843157261
0.623422370312671
0.615247568194884
0.628965512490463
0.620977980556703
0.624946635449452
0.620806053215821
0.616563282001213
0.645686987086155
0.614953045185202
0.621388885111488
0.621708974756578
0.626042769841062
0.611719958367004
0.632200730274867
0.629683783672133
0.614798519243004
0.623724312557596
0.614660855628966
0.620152881298258
0.637487099234071
0.610391743439582
0.61355946456168
0.615353253158246
0.62307957744582
0.616437514309861
0.617576649125543
0.649142540799345
0.627883343603597
0.632545449027507
0.628051306854959
0.64041356599542
0.63680386400993
0.642313505506842
0.636836995297861
0.636435960528898
0.648954531862834
0.659137133011439
0.648127687674251
0.642896371791224
0.652298415437989
0.655119327103141
0.662351202216414
0.644444345869736
0.652116716500931
0.639413304722013
0.636433591875406
0.638873087276339
0.62808922311056
0.630763378543385
0.62351847003055
0.623946176590032
0.60598367292652
0.626694216331753
0.59700676700022
0.60975906598343
0.595001845884574
0.585169455290769
0.586819140447664
0.588724895801982
0.585860553643744
0.575648515524323
0.581561353753134
0.568488732139237
0.570325938692215
0.563751646108803
0.563402536453705
0.567251837702458
0.565040541745908
0.560392402058367
0.557504993248146
0.559236257463245
0.553657076859453
0.558285480831971
0.554217115610208
0.560481585721513
0.551475346383042
0.559300980209902
0.560748682654612
0.561589303376879
0.559181354402851
0.549689249805843
0.559762156804115
0.557226405994691
0.558216685099957
0.546181565353128
0.544621561709015
0.550983043790145
0.557268775423319
0.551164196773411
0.561500127123135
0.543994566713448
0.549044591977839
0.551537490779826
0.547940748643616
0.547542811224296
0.552854533622142
0.549290033717142
0.554366388734769
0.542703733004993
0.551764495227456
0.550410583763092
0.542473860220583
0.550494921317374
0.54442028045921
0.551376382359549
0.549421812501251
0.551137231986309
0.553151894740235
0.545228389160403
0.544297335149389
0.546291394475494
0.549971271209316
0.546678234229962
0.541994916309833
0.543721332550874
0.544408361370485
0.537994675313966
0.53707274460268
0.535050332205899
0.52691736732255
0.522948758366498
0.527231092503812
0.521479979827045
0.515265598129005
0.512219516303505
0.505671408091101
0.50317937451726
0.497373161359423
0.491267632972783
0.494924803138351
0.492466558351678
0.487068889869933
0.48313230876798
0.479915400774585
0.474049937471673
0.480276410933323
0.476486812683257
0.473957670606543
0.47268793102825
0.470243787307155
0.475007185845261
0.473404234148131
0.470620650794298
0.475200142088094
0.477857068811031
0.474701084651398
0.472166624439195
0.478922310653647
0.479479989313111
0.479505061110413
0.483819858048402
0.482785507254207
0.484764006199605
0.488552683253195
0.490521663333228
0.497914799078177
0.498639247946336
0.497135273068639
0.494058798148219
0.496301757380325
0.50053029506182
0.50245548283259
0.50174813810988
0.503216476999502
0.506489147488971
0.506688836529217
0.503062439544646
0.499483961424918
0.504937705448683
0.509340523796353
0.500885343032866
0.502122150335712
0.500124798697631
0.499247183385724
0.496856218275863
0.496128106383857
0.497428553427975
0.496049863980583
0.497912794484128
0.489033282001456
0.487778583432966
0.48572605328708
0.481281416010646
0.482400677789352
0.480238851645319
0.484533260479271
0.480322470422902
0.480548999020263
0.479794443076651
0.473795934696828
0.472126654751281
0.47243806744005
0.468633534837029
0.469615519948192
0.471305617281381
0.467384318464717
0.461001785082436
0.463470458456351
0.461922430512472
0.460683280770902
0.457595561281436
0.456272162035676
0.454378984975733
0.452759099173645
0.451906817566339
0.451935834546847
0.444450049992799
0.445156066327233
0.441995832302673
0.438885611004127
0.436975575483328
0.429726146547159
0.429415639389404
0.424416494569096
0.423524404159271
0.41971998458504
0.414749929987141
0.41312593804846
0.408881079458716
0.408910051876708
0.406624313341267
0.406747736099865
0.404084827527607
0.402088994993484
0.402886215552239
0.400746752516738
0.401129726085817
0.401522398717756
0.397149677110995
0.396476186141009
0.392892873248317
0.390138349448744
0.387832204545462
0.381973921392901
0.375888715394727
0.375659807892789
0.37139558224595
0.363509916538087
0.363087126513785
0.360190914124256
0.353890678158152
0.354511075530858
0.352942863093857
0.354490571990558
0.357825476120186
0.358654100386265
0.365595189536328
0.373671629837462
0.382576751876496
0.392477825848468
0.405582532957641
0.420132008051655
0.43419913290598
0.450857231376925
0.46722967796778
0.48383079602522
0.502737035941697
0.516255387965474
0.53599624566176
0.555057248231634
0.571869582030818
0.586149185415735
0.602526938723269
0.621066340537223
0.635056911561948
0.654001278282689
0.671450771922147
0.684082900853359
0.701008354340721
0.708341763720992
0.715961736847657
0.732456764887568
0.748781893520275
0.757035432171289
0.761491170581567
0.777072627760835
0.786906322649806
0.795706958957607
0.79902195277509
0.801842085896844
0.802885755758711
0.806038425176896
0.816805508159218
0.811219611958155
0.81216564372531
0.817119511689459
0.822197141346526
0.817369390809465
0.82719183348698
0.827591413003372
0.820088788988937
0.825335118874172
0.830944098437634
0.828606271924484
0.829255618065197
0.833490649567722
0.847267671142095
0.847455031806313
0.850369444532522
0.864647773644022
0.871191695607489
0.867050120868793
0.877623416512207
0.895198349165586
0.909124849103746
0.918388680384802
0.931473474207347
0.939808315066636
0.946150707972505
0.966220362118069
0.97597417970823
0.993795119293031
1.0047244263221
1.01420277541684
1.02077467997233
1.02651167360907
1.04880060712218
1.05318734850083
1.04768590622568
1.04151256533082
1.06033485853963
1.04962623634971
1.02916766723224
1.05089855090015
1.03581971030228
1.02527038668685
1.03534089345773
1.03440817819715
1.03033418155189
1.03424175090383
1.04754067120887
1.05570475709594
1.07160522333987
1.0820180583699
1.11331572496139
1.11265344193344
1.10982237729511
1.14770305420298
1.16176723865969
1.17449845167002
1.19395538771018
1.22041212160682
1.24143272493602
1.25297364399011
1.25609406085655
1.28324637298332
1.28469747863698
1.29091462555084
1.31213181152894
1.32777423181771
1.38316540759489
1.38515590095799
1.42637549047574
1.44239800455515
1.43290238495315
1.46864733873617
1.55378154270298
1.55804338306994
1.5778015497085
1.66394989873802
1.66615856508897
1.63997410063536
1.65610966714181
1.65991884718227
1.6636116694009
1.70501671775881
1.76862697988785
1.76112320643562
1.72732936539342
1.82544667015423
1.82014205004938
1.6960641785914
1.71980023667857
1.75651887629347
1.6712977908662
1.65910812182227
1.75693876009831
1.72232095048814
1.7059785462232
1.70293569678974
1.73099035588778
1.72323821515782
1.71442252537123
1.78249945977299
1.9044466055201
1.84842386018631
1.83599030864657
1.80301263102241
1.82717782617425
1.83880478861786
1.90614426573451
1.82351031652819
1.88442137715439
1.99838663595536
1.98786643157403
1.88683370597036
2.03578330273448
1.98812812582138
2.05737051855976
2.30084771738059
2.11061093429095
2.0742442984696
2.04504363866977
2.1284895612291
2.42488073894231
2.16335547519307
2.02431371558115
2.08131601905272
2.18040264575853
2.06278744586179
2.36543420610506
2.23703188871793
1.97526521991353
2.11725715663805
2.15012160718518
2.13699597651813
2.01972710786934
2.3868383443322
2.47119109037516
2.05333208258983
2.29390583632919
2.26485824787373
2.00454217865612
2.06172576220316
2.10605763015352
2.04393264522817
2.08185595003481
2.15619722020613
2.10884968858855
1.98961710068742
1.97618132218044
1.84187529661678
1.7831756577871
1.74940423818925
1.67157817870038
1.6469078510069
1.62440425625461
1.61281602996018
1.49744901996799
1.44836117180415
1.41163307584539
1.40499603002289
1.43150704964207
1.39182875932316
1.39049127612065
1.37881645430817
1.33929007282326
1.313656506765
1.30741683982521
1.290033159151
1.30887167846815
1.28071697033728
1.26409637372035
1.25515209829761
1.2442775072946
1.21992904364486
1.19719270964509
1.16976794352736
1.134186248114
1.10510909568625
1.08114675615442
1.05290418105297
1.00733161186498
0.966311613806277
0.918885220463807
0.892627541140999
0.851397350457213
0.798147867353278
0.759319524239535
0.7237159808809
0.701109632380309
0.6709610833571
0.636646024562162
0.604917861909003
0.574786533350382
0.557492473775817
0.536376253521769
0.512583335319962
0.5012299503598
0.488347838466219
0.47121137580452
0.459789232826827
0.446937046884288
0.436096276896609
0.430316537571744
0.424172514749428
0.426013483270961
0.416581495368136
0.416292918729056
0.418729370392224
0.40995355075563
0.412315223237319
0.417290953785141
0.414987654670922
0.418557888620549
0.420643005606477
0.420239283687964
0.423052253209484
0.424288180144811
0.425330859323818
0.42591067833635
0.424718901600909
0.420062801214249
0.413170299244341
0.418487545398726
0.410951712708032
0.403770459577366
0.403214015614935
0.397574131540631
0.392687532446351
0.385201456918279
0.3886364646997
0.391455581906337
0.388172935226253
0.390573317513229
0.38864332826618
0.393160245430573
0.392874822589975
0.394043797352598
0.395787845991673
0.399937259172713
0.403625159264363
0.403138929956427
0.413200712594673
0.41585061560615
0.417255381460844
0.421687256509712
0.420050751998463
0.433171353865854
0.434143706735622
0.430122896492608
0.430919571762929
0.437074033905855
0.439237595017488
0.444867888245914
0.440167924296555
0.435759066065705
0.443364708974365
0.442097458204902
0.443971829248685
0.449867375764725
0.453440587786882
0.455129092488023
0.461813893843529
0.473838747349513
0.479423205964351
0.485331076313377
0.498017154969415
0.513333603145828
0.532734919844119
0.546026085925959
0.565240030393557
0.574022963847053
0.579601617628563
0.603297056292803
0.597864414978673
0.600887495616134
0.610567993694905
0.616215106016804
0.598630534140377
0.596307094246224
0.596201122487115
0.576691258444575
0.566681811779435
0.553262102877018
0.540277067005206
0.538921785373904
0.530508124249497
0.52796019429052
0.523164045924039
0.530084537050604
0.52875723930691
0.534929204750074
0.530561860692452
0.525904238561838
0.542633061043883
0.546012927143498
0.527447634698812
0.517632794929203
0.51951630730111
0.525477898761491
0.510962753610671
0.501614297755846
0.493557662259164
0.49666821438766
0.487976615983873
0.491638387518555
0.482204234187179
0.480225783888599
0.475230436869185
0.464729205192671
0.463435896732214
0.462486212852828
0.460747436201259
0.454799146934454
0.455121125410732
0.444277767066263
0.442066483622734
0.451179500830264
0.441736859696827
0.435887138324846
0.433476926391947
0.441808423958618
0.430705099142417
0.427626339749045
0.428938735774561
0.43106545716751
0.432798957019347
0.423696839996932
0.41191894960884
0.41712247345506
0.417479940324307
0.408930416355487
0.405776673402972
0.404803595489005
0.403673871581284
0.408195987493736
0.401070718738693
0.393470872430666
0.401603351060544
0.399222224305786
0.388968637579273
0.390610369911413
0.397368596746428
0.389518951059704
0.385092585522978
0.400578770536451
0.390517230630096
0.396514562014797
0.396943828648176
0.404205496840463
0.404336335659126
0.399240462143057
0.39585547432615
0.404967952994788
0.401895641874787
0.401959194812422
0.398116749041853
0.405058292886971
0.411728907528213
0.412148613678486
0.415091962489252
0.419102807518505
0.414270743244445
0.422554520093718
0.416705900523174
0.418847109811295
0.434147628561152
0.440384324964278
0.458436871355499
0.445575027525834
0.447492774143098
0.459038384946576
0.460702759132425
0.469110732260062
0.479044281763135
0.494446635824715
0.506288871174951
0.510113562352114
0.540438746677988
0.536228801958715
0.539794220672092
0.573616176246786
0.590076909325593
0.651898384704329
0.650297579069456
0.619298592390755
0.651271102661855
0.686555209497331
0.697579956436064
0.711414536392564
0.730583264635774
0.729016669832917
0.702419037162216
0.701210829611644
0.704457916822442
0.721304758698455
0.709513478172472
0.718063289180726
0.735103807416872
0.717890888493028
0.727492278904464
0.709019117248237
0.716377187717461
0.700927616892486
0.696661560136742
0.678637844072648
0.708119474437639
0.736239250693921
0.712830973793957
0.696510134286305
0.693949281865523
0.690091656676495
0.689553231225977
0.686233227021065
0.647489756773897
0.648239993872447
0.624485877046957
0.639815723766469
0.673043829839877
0.644435006259963
0.662259521207735
0.655698892704716
0.660674109949642
0.649999832577353
0.637575503240027
0.610050003860159
0.595415564377709
0.602859322393652
0.589770861317759
0.637913079361128
0.582522693290105
0.5870714248005
0.629829488204546
0.632787228072388
0.646367985432279
0.618618734624871
0.642622702704237
0.650879530072885
0.640816342046155
0.645198082871886
0.63565598517696
0.644471444396844
0.632506108456672
0.623352610554897
0.598215051759449
0.627448183704799
0.707348946747466
0.634821285605943
0.592112128854826
0.666023177765921
0.68366064747318
0.669984120460125
0.69344103218356
0.658822781087382
0.6711779612724
0.666735295172426
0.691368427811323
0.702445811471897
0.784345980770864
0.726709334092321
0.655092510366309
0.701713654116219
0.631345816357579
0.676075031437395
0.753471406663085
0.74959021086702
0.740943756440232
0.706559493932444
0.767753742033525
0.861388717305917
0.857158239057378
0.802662808466507
0.865611927947902
1.08527005334722
1.0949834647481
0.961634010770647
1.01331609198983
0.898752988540624
0.947401262343968
0.876891261860462
1.01402467284254
0.808650089550681
0.950174758251688
1.1406181312762
0.886654628409693
0.824881083131899
0.907717308770251
0.704608227485703
0.853269576271748
0.862957979288112
0.829326482590032
0.698930352394607
0.784720464926155
1.08051970906009
0.947090815214652
0.701726585875121
0.707152621375784
0.928065874393952
0.821292468648519
0.900385892372408
1.24169126231993
0.71860872818921
0.905523388586251
0.747066238850707
0.849494074685313
1.01373429343617
0.899862896082231
0.859368116528016
0.993733062294287
0.941271784497127
0.991738513828811
0.861684189890861
0.974216048850763
0.789001374613902
0.906289236379984
0.958851157385777
0.817530928864121
0.702067371600329
1.02799272680427
0.824711488486973
0.868796071163171
1.04677533938457
5
1.12764217416318
0.85939308167378
0.693107137589602
0.804863153725796
0.565018849910616
0.656077924159061
1.23538888355122
5
0.477863498145567
1.14784676696544
2.14450488360904
1.05171925594305
5
1.82976494189318
