3596
4000.36533379555
650.420452594757
1
2
2
0.0687131419458606
0.0666790236682881
0.0651208111450525
0.0636811816705619
0.0713327915304882
0.0739726916827242
0.07233930943544
0.0678246868982486
0.0662752122678714
0.0773572318465385
0.0787553501122762
0.0806731076863107
0.0701411527515253
0.0701861563771059
0.0758172997662766
0.0709283777904623
0.0657468820962185
0.0728069121229263
0.0725793076991921
0.0679302301425284
0.0735656395127192
0.0649194102806502
0.0652725966738558
0.0672390631750116
0.0654698326257012
0.0721875883394906
0.0660781924449848
0.0677291909485822
0.0709719188931828
0.0760119573538688
0.0770218833674027
0.0675412310166268
0.0715806429996752
0.0679645449958827
0.0661323672576156
0.0744443786451433
0.0703115383275812
0.0762282726269844
0.0710080846299604
0.0646638314284546
0.0829359955356334
0.0720703214763788
0.0645734508659473
0.0803776563687121
0.0638465221922765
0.0633535574408978
0.0764164595904634
0.0743094111394233
0.0674580841406507
0.0674794260984867
0.0831349336515941
0.0591430084490381
0.0743240336468458
0.0756392179411295
0.0666190892682883
0.0767104571344133
0.0625542977514516
0.069464268158962
0.0690834245320061
0.0648558429398786
0.0897387495645624
0.0873103005574885
0.0608198069902393
0.0743757855212008
0.0663302163005579
0.0717764753769569
0.0707390716175116
0.0636289523230907
0.063283741970789
0.0737539374886198
0.0564613604264784
0.0757228370273113
0.0790486581188538
0.0608905539859993
0.0714767933059151
0.0647954361023807
0.0746361925444178
0.070895855698571
0.0570079766432522
0.0791530775176117
0.0736373589191931
0.0662515408848266
0.0730063515555727
0.0620030011211783
0.0615209797664051
0.0843254594031698
0.0545110569825082
0.0569102696914555
0.0831223143596706
0.0772777496069529
0.0722195234155078
0.0622498144696614
0.0711088992059762
0.0665551926394885
0.0601056565680965
0.0515325356152838
0.0666009954475895
0.0596885767360782
0.0636979772147672
0.0721642603615158
0.0740723678687673
0.0428206894039385
0.0956305319554534
0.0448398410127319
0.0990490133103703
0.0763046667716541
0.039727727252576
0.10528029381433
0.0741798384607294
0.0709087232532428
0.0600236126430323
0.0668463191319709
0.0589739947514345
0.080468007857373
0.0424586850945569
0.0709818130606543
0.0876150910597322
0.0631975306489206
0.0668120304494238
0.0610155688774218
0.0424704723671822
0.0757781745506444
0.114705568202154
0.0516894702191601
0.0732540920774792
0.0569346717215426
0.051470980042741
0.0754855176328816
0.0971679344442507
0.0657449908882451
0.0671801669630775
0.0484316715160695
0.0606766589603812
0.0387582251904829
0.0972172538191059
0.0637692047627797
0.064283048151208
0.0505655751380515
0.0590172549125201
0.107240740454275
0.0807384460032133
0.0635121192571692
0.0494066609824616
0.0402243574709601
0.0884288573398807
0.0631381831158093
0.0536184950321791
0.0642979472135805
0.0813511996782312
0.0530388149457529
0.06090490527172
0.0444434197453093
0.0792448019265625
0.06919006508177
0.0176997957986682
0.0749651841254553
0.128087641684976
0.0323187525395715
0.133164540809442
0.0520238072144002
0.0717586207311469
0.0602333708950923
0.0700803121028217
0.0528552668225076
0.0621306955323087
0.0486276795362082
0.0536293807238299
0.0815569536094352
0.0580448080868039
0.0512289072547247
0.0837553528169732
0.0633448222502333
0.0294876267175829
0.108638343313425
0.0837646169150156
0.0399268836010728
0.0939729157958811
0.0692994372223476
0.0578271171370265
0.0586103570783068
0.0945634760028499
0.0521422473241169
0.0682402003215415
0.0543539091097996
0.0634117222881223
0.06312909997263
0.0677884474100205
0.0529305973319658
0.0602966170794
0.0312477227184031
0.057860079275446
0.0856683001776022
0.0904016428133485
0.0552118069330781
0.0730303354564216
0.0134133815149851
0.0815400025889431
0.104541864285897
0.0589908300799783
0.0590563367411012
0.0605307487693286
0.0467003236058861
0.0639504216187705
0.0459896796065295
0.0542375840563825
0.0207508009469809
0.0941347803446856
0.0783254673046162
0.0670543905660284
0.0639859082702981
0.0609382215748672
0.0406700799009273
0.0917270447275969
0.0926110280537767
0.0598826008251289
0.0648584511724241
0.042620446475759
0.0632867543603255
0.0834490056840577
0.0547978811276768
0.0661644868832343
0.0581447870268002
0.058071965510844
0.0615907331717575
0.06465586318088
0.0573766278425859
0.0619239205291511
0.0570425710921725
0.0621945962956002
0.058588597997079
0.0713438189659463
0.0610505257375406
0.0613625398521506
0.051732067056082
0.0567121139319012
0.0536761255053545
0.0876541538049815
0.0544015618846865
0.0649651213213021
0.0496718992406533
0.0607515557061608
0.0520612994113746
0.0628966640862473
0.0519355842117823
0.0618217989502628
0.0415936313799849
0.0943628172363351
0.0703095687597294
0.0645673106954295
0.0491498169986797
0.0722842702000117
0.0770306323537436
0.0594356249092068
0.0586229870551851
0.055874965543277
0.049526974943742
0.0378088157947581
0.0796633296873499
0.0683391945582429
0.0562789080668876
0.0744736570745819
0.0756011476203086
0.0560040096196029
0.0536944683260465
0.0264743959041887
0.118054551009325
0.0706945252243204
0.0255218711192862
0.116643458327362
0.0754209421392208
0.0582865236192934
0.0651334591739372
0.00527202591605473
0.162139326963088
0.119776391251058
0.0598262319231217
0.0561360384388782
0.0821880276093556
0.0614859608682047
0.048669828549383
0.0676748614102029
0.052945221760204
0.093087763255196
0.0687786450017535
0.123326687492494
0.0437252656581723
0.0760093398595204
0.101827954612438
0.0617254135857827
0.0685173726634743
0.0601189153920123
0.059823356830211
0.0644172120295323
0.0792482620929281
0.0693892077045909
0.0762614950022319
0.046418286899887
0.086156420364501
0.0758237565056851
0.0624768504796236
0.0599275295013901
0.070023368960871
0.0623590390366288
0.063631689258505
0.0598677331948055
0.0691500629727391
0.0626700019458017
0.0399069592381396
0.0958118496114482
0.0728179396434544
0.0634633913485554
0.096221979701225
0.0746162312531897
0.0657383539609623
0.0604452937904339
0.0621491056800316
0.0680581891708581
0.062491879809104
0.053469118445801
0.0920494362294378
0.0787303549337078
0.0620506466288707
0.0736176387641958
0.0592991516345349
0.0721551964415118
0.066201232018571
0.0699887584703785
0.0670235682117697
0.070267235693977
0.0570979131522805
0.0725603506699219
0.0969479938121445
0.0541949903075035
0.0844070410500518
0.126035456449602
0.0662557547609446
0.0802799181339977
0.0694878717075245
0.0755147830909455
0.0695391936625028
0.0839949581498226
0.0764861632546421
0.0752108934832457
0.086217137938947
0.0928997813911673
0.0688346171346303
0.0707350923619905
0.107788170743628
0.148570525536858
0.0955501756011065
0.0878899697989173
0.0618340164099816
0.0877675640154169
0.129724483714018
0.0949015623275141
0.116968610784153
0.0862132998927135
0.091343401627234
0.0918630570338175
0.0929858792480887
0.0902174038141345
0.0952517460379911
0.0958243078725233
0.0956885315535058
0.102455602981383
0.0930437714985787
0.0953476415429289
0.0859405740527057
0.141823768677446
0.117527119988303
0.101829093883226
0.0988520636709417
0.0963370472478414
0.115899771702454
0.133772863959342
0.114626565305609
0.156863139116268
0.114583357762284
0.164638087417037
0.115257457997058
0.128859982612895
0.115473764775325
0.128151354927849
0.128330475134722
0.14307370357349
0.130326207212893
0.134616208651486
0.125336772957125
0.147908390442306
0.137228095392616
0.143602203593117
0.126848406067709
0.16332955209664
0.158828331877534
0.150855367152792
0.141013582864624
0.14641261421554
0.193909289884704
0.198499408187395
0.169975467168024
0.165839083727358
0.17591458777183
0.163504390103892
0.178566160327486
0.169677287754658
0.176091251838879
0.186642673185595
0.193301637704676
0.205517079337853
0.184160686326091
0.204126488367956
0.189782147186972
0.207799558327656
0.205470994298887
0.199121425181075
0.231838846465171
0.224278413237533
0.198208878687618
0.219025208406
0.231849432398036
0.205380493696095
0.240451040568504
0.216303046551582
0.215196741026674
0.214984205610844
0.224200215054046
0.235469229088293
0.23161464491931
0.246155630929475
0.23585624968661
0.238304937657054
0.244121504021205
0.254081580868274
0.259943039702699
0.270221988999376
0.24753563713165
0.273201571731196
0.262664698122924
0.273104169792277
0.269335531661951
0.280858644797132
0.298823948031709
0.277851033831793
0.286193149942992
0.293348164849168
0.285674642964756
0.285291975038532
0.289056890206939
0.30441666091903
0.305924230530557
0.320846486476564
0.307881953874241
0.321171803819422
0.321029498058481
0.334327684348535
0.315001244444484
0.335131883604525
0.344065224314103
0.328957093595128
0.326479266320385
0.3373014613426
0.334474235991444
0.37040617119626
0.384141393418306
0.386841864569035
0.396217783040737
0.36542261414418
0.375878599527728
0.373917996427295
0.366495178071911
0.381587558477178
0.400385474077508
0.406909383803926
0.392573462210048
0.403974728536787
0.384058265332736
0.410706678341729
0.398866194544789
0.428688887316044
0.434230330294865
0.430622538231568
0.427967065551315
0.432538304313781
0.422334707201293
0.450736256957855
0.432928933287546
0.447200925165193
0.461114237343512
0.47049155072027
0.463711222180781
0.478092520830517
0.467001285222935
0.483702140781924
0.479673151296525
0.495149252119635
0.476508853361763
0.504965724053977
0.507977555761986
0.499106179207591
0.489290323804905
0.508739838000089
0.523353037224253
0.528267265988801
0.513727319858047
0.517459790634311
0.541931164232865
0.563928679173215
0.52637642225749
0.547972181441079
0.559228721788005
0.567424587067078
0.558443684465612
0.558462192217034
0.572606330953688
0.583362754686043
0.555355608798546
0.584085566837167
0.589717141158223
0.60042424012288
0.580152632124737
0.602012891884466
0.608542824854198
0.622835616806501
0.620685007420478
0.626266800850489
0.605604892337691
0.595683417551365
0.622179205961432
0.654769844866154
0.636593107502713
0.654390913734514
0.653451290499456
0.661664179771957
0.692644788536928
0.696813855151525
0.662673767154018
0.709769352712961
0.702713158343234
0.693625141884925
0.682305544929387
0.710663188423726
0.699401031161312
0.707133028134123
0.681002436435718
0.71957356107936
0.725851442192792
0.754395158790191
0.742280063048749
0.737566412056691
0.804401397039769
0.801503968469092
0.751714754817707
0.753019300025532
0.735669552710743
0.767784478532744
0.753152783594634
0.764854644850372
0.771343994231118
0.816167138632805
0.792400168793294
0.817607963692612
0.798065079078318
0.799752792882794
0.789259540965815
0.794590579803447
0.844378106808357
0.879248875835145
0.805344798032208
0.817204529553154
0.846269168538133
0.84754091067983
0.828549450366269
0.876784514767871
0.849314764663451
0.878252706331994
0.89879893484268
0.886959225626528
0.872782287060841
0.875932502543134
0.879608067799418
0.952738111780971
0.904155920454727
0.916597161842797
0.939870519264603
0.931488095386759
0.960633268129708
0.93374210768085
0.886254691268348
0.946000681674822
0.925482299782366
0.975950136936311
0.941958066250938
0.947274534103867
0.996373986641803
0.951723097327978
0.911051377271141
0.966945743933558
0.996890316953828
1.0061381459018
1.04734305328948
1.04448758220097
0.968884441242069
0.994213859566535
0.982384473145503
1.0161173622849
0.965669213700507
1.03210662822826
1.03178693194477
1.02059971559686
1.0458197311894
1.10701151032403
1.08776346013626
1.08939576571035
1.08567881381964
1.12151967733657
1.09760621498144
0.997973253158689
0.987172354659086
1.0553377341174
1.06258976567154
1.09633845181423
1.08476561282546
1.16557290394077
1.12624289573755
1.1153499822641
1.0859052245484
1.12138404627771
1.13009695222546
1.11791046923221
1.12354216347681
1.16405086228548
1.11192819296826
1.08614732555476
1.12362910164353
1.22213686938054
1.09592889155036
1.10565987788387
1.1544541813256
1.17175115669094
1.11133554321845
1.13817520544279
1.13943180566628
1.18224169128808
1.12743816976632
1.19380945942023
1.15475168602063
1.19989716302076
1.15399895228951
1.20129340634641
1.19687451201093
1.10678623005713
1.17396747592645
1.30316353521134
1.23053304791865
1.25991799923428
1.27280526278604
1.4135329172587
1.23138569677375
1.17293070576614
1.32132343115584
1.40248257376393
1.1875789346932
1.27600602567019
1.29008565975478
1.28297034147203
1.14937333490422
1.18677286585456
1.28880202096181
1.19842147156115
1.14261031347654
1.30561585794763
1.25935953356271
1.18852096368957
1.27538240102558
1.28859242439816
1.20051745871097
1.31735784657841
1.25401574194818
1.36762702736657
1.32405435604057
1.25982327900306
1.29350907670697
1.35269916766655
1.31234006541737
1.26959518114105
1.26578000406171
1.38734697081225
1.28402384581843
1.304794591819
1.38827602742652
1.47804535930794
1.30280155626816
1.4543941267855
1.25805013802462
1.190131165684
1.24786659483954
1.32667790002025
1.30834812421331
1.36403646179898
1.32764689063632
1.31794502003383
1.35662432454951
1.40377266358334
1.29879616050018
1.34924276082788
1.31936008294488
1.31502791149766
1.34654956280922
1.3501959483348
1.25533348492684
1.36112632363279
1.41375243075044
1.42757712626132
1.31717758849998
1.30340839952178
1.35187458585408
1.41600752799685
1.31217279920747
1.44145782794554
1.47530712031165
1.41035877758421
1.24607777942057
1.36992470831375
1.41667338483158
1.36657354062625
1.39376712767949
1.37176711977264
1.23397040665949
1.35939565753383
1.30607565158155
1.37193430386255
1.31911618226057
1.34098042782224
1.35606723458118
1.37626948008652
1.3060557982555
1.45215056917272
1.36767157469916
1.35907559943699
1.41139857450019
1.47132905909446
1.52550958847434
1.59800440918727
1.30677127872954
1.26232375684005
1.37774424056784
1.40220083456988
1.33987459133867
1.38671040889679
1.32038162328297
1.32520665230512
1.32069393787602
1.3982665548
1.27864057621472
1.35833800907121
1.3529622694118
1.37678647559094
1.3564683037102
1.39433594258144
1.34977598011505
1.44422663651916
1.31645432784518
1.31116924860938
1.37044965592957
1.47701125726344
1.33023561550027
1.36765447000012
1.2859526641798
1.36051490749299
1.35990106403903
1.33733351185998
1.25284631075666
1.35459098728884
1.24391099055016
1.28335517920501
1.30856838847479
1.36231997782716
1.3809663873034
1.39523796626069
1.28301183458297
1.31725116009976
1.2754714519272
1.39021859113038
1.40115263118035
1.34215325588923
1.29472590205837
1.31649891110809
1.27944608713972
1.41492843008798
1.36688847858553
1.40649805556108
1.37940098981059
1.37757178047116
1.31599735241006
1.38715966662306
1.36602908520274
1.3486223796644
1.2353440652359
1.25136876057886
1.37890605011812
1.3264263506713
1.35317060422498
1.34381846732414
1.31527841205144
1.28532483970298
1.27879936229862
1.28156933785425
1.29560398429489
1.29913621319277
1.24961160087821
1.3028635006336
1.32151401611335
1.31911757200993
1.22471994006815
1.25399013775505
1.19057390375548
1.23157455656157
1.29189808274485
1.31366662222896
1.23248395165865
1.24452765486557
1.17757737619576
1.26088775130668
1.29668075977015
1.3028345986474
1.15602019853522
1.29110660684253
1.19374982713314
1.24832537501675
1.17323217086125
1.25749648389649
1.23426240299773
1.25891552960813
1.22197898900123
1.29025327819981
1.27222071690643
1.20413166566603
1.15948615182445
1.19760746742834
1.17909355062602
1.218061887732
1.15170206184874
1.20328793922339
1.18287326141215
1.22827149853395
1.15017898965176
1.15862421435537
1.12591869883392
1.18060232119021
1.12043183968653
1.21817530009758
1.17725136720543
1.17245538579794
1.11566104716811
1.11745432364547
1.15606812394662
1.17097706098678
1.13784827303559
1.15356009773886
1.11411795429125
1.17603140698071
1.09495437165553
1.15593227515358
1.15556046595327
1.14592490459582
1.08843000767279
1.10120415195495
1.08453910511222
1.11252284040465
1.06676648818748
1.08092902677951
1.08072201988551
1.12213567540293
1.08651001956791
1.11941497171661
1.10147173201055
1.07581744128614
1.05822464910527
1.07192590463817
1.0303502247106
1.0593507351253
1.00872645143965
1.07765657123162
1.01524563244995
1.01002635032954
1.03417049192914
1.07651166724386
1.00755718492968
1.00148015504571
0.990718321472293
0.999562391027477
1.00372515517294
1.04510799085487
1.00182733228814
0.9722316323959
0.97483821535441
0.991842088827717
0.944382063917933
0.985477338368374
0.963308968797711
0.963919048112353
0.943042034068109
0.957324519746649
0.938339252504465
0.956764587846146
0.951642998224105
0.949278856548569
0.943858586008843
0.938153799658917
0.894509628752035
0.93259087679905
0.897465444983253
0.941275716012886
0.9390827400878
0.92594983992802
0.885603640444891
0.900448906307113
0.897427098932353
0.921362542587308
0.850960689870921
0.911694653302551
0.854813910422043
0.885470604228296
0.847991835710247
0.851633351362174
0.856117531633649
0.859658663491942
0.840787342602347
0.869826919683131
0.848269296814918
0.848221951662574
0.832979777916015
0.838774951241041
0.804795877210422
0.846168862583155
0.814069173566133
0.815844486395517
0.794257312751335
0.79962005014472
0.802799128102006
0.822605144883494
0.790997352904887
0.790902893267077
0.757067771267832
0.788302332375864
0.762852907538418
0.760663262958258
0.752336731490796
0.759408575956725
0.768564421315324
0.778455067967241
0.73869674619261
0.770905992515425
0.730446515244138
0.743940875999886
0.731424565118712
0.759411379936821
0.709481253217567
0.72867305180059
0.723294151214006
0.720896094640939
0.704274615129473
0.719015087620761
0.719084815954748
0.71721463111054
0.70851388654542
0.719186517355359
0.688476223361696
0.692503032371806
0.668513329192686
0.692755212199777
0.685134860061749
0.682957655640918
0.663272759080355
0.680535646079074
0.663187188863402
0.680038609418739
0.660285606472935
0.673249298888719
0.641120246814024
0.659329165222169
0.633610917462366
0.657789858492987
0.637859097302671
0.654502008929627
0.626811379674905
0.643751008399261
0.62304664200857
0.620693405418734
0.606239859029638
0.63756387377248
0.616477087232117
0.621513478117752
0.613257762436911
0.627329824011621
0.604025267214736
0.608107320696675
0.605231261401938
0.608815615051277
0.588855816987787
0.604321948193752
0.576878269853505
0.587698905489081
0.592877440851292
0.592374681456739
0.580938198644485
0.586137578792835
0.577473585911508
0.58234622642505
0.566623930135537
0.557603520272889
0.56731643154042
0.569677060145291
0.559467795738136
0.54561322700566
0.54872336952595
0.561809211217172
0.546009323750291
0.547208994544869
0.532629697235331
0.555281612647776
0.529317215584429
0.547003408064619
0.518449201182543
0.536145187153189
0.519134542862762
0.531900688586178
0.520989724073633
0.527413266892769
0.512667076206656
0.524431183773095
0.511976998255396
0.511238013052186
0.485950386938742
0.503344353492744
0.49911021814464
0.512431015476444
0.498577479570281
0.506358317524348
0.489227782362584
0.497209767002074
0.499684900383941
0.509661359323743
0.48731095287324
0.487375707217982
0.481530280473213
0.483852861878956
0.466784885863458
0.470308639116092
0.469816046573771
0.480863483198988
0.463387947789152
0.464366016223967
0.453429213154207
0.481820093306419
0.457553348517475
0.45616242063164
0.449390105458903
0.466390874499401
0.457448710357974
0.454928487151207
0.451091551805803
0.457490151032602
0.447360357784778
0.460776341422867
0.439412035825695
0.453967135084623
0.437273851535706
0.461075091438601
0.439248569596623
0.441657477254502
0.429019403442896
0.444571731407622
0.433255086169911
0.435192683248983
0.432694849159761
0.446514443261525
0.430920816846513
0.44346504271668
0.425766497197249
0.435622888195853
0.42296299764324
0.440178915142689
0.427351479715049
0.443619565327155
0.431689680843533
0.442748455416944
0.428731062023847
0.434523648003192
0.429258791848208
0.446990168281056
0.434022923500787
0.445172547627742
0.444452461981241
0.451856611845488
0.435921073799067
0.45065088324852
0.439460094450817
0.444361106953484
0.447308896845637
0.466604523237809
0.451564470271287
0.474423017177959
0.450664811508322
0.461061013701373
0.454518028149341
0.471211163705579
0.458987851600203
0.471929803748682
0.462582778348421
0.467812522812431
0.465575477815611
0.476017046111692
0.471135486377678
0.47961322655867
0.472520745152281
0.490947385852151
0.463091282645693
0.494910958579209
0.4890612515422
0.49004063878415
0.486341730733572
0.506638268984127
0.496174068872354
0.5126598760601
0.505078450697113
0.518810308800148
0.5060352289058
0.515655533584099
0.514860734632704
0.521849477754881
0.511718674531446
0.529472016119601
0.520211302935132
0.554881794597531
0.536312561526566
0.550492583762972
0.537544301686922
0.563161144331629
0.544460301568126
0.562933767553485
0.555272287718014
0.569162274230333
0.555421167964216
0.570797662936722
0.577424052861867
0.567244519226104
0.561782056482224
0.595244794485379
0.573144693038849
0.582097717353207
0.573571033779194
0.576901913650501
0.571142697089744
0.584251061761454
0.587960393806227
0.605970992118097
0.576952288178399
0.584400325323727
0.566296587944035
0.577607467395355
0.566660612431169
0.587525876985116
0.57452379097175
0.5853868916977
0.565256842182246
0.584861857572142
0.566893533779561
0.597775950186591
0.567683065498416
0.571481022282792
0.57453624845341
0.58530121645523
0.56474122639584
0.572862084598516
0.570466779782047
0.56928964032041
0.565441903366155
0.583809925629957
0.557302164592073
0.579775707414654
0.567130890617756
0.591417727649137
0.569828703864951
0.584353897206593
0.576189546000848
0.58770338155769
0.574452212937043
0.582431915135128
0.573523156717013
0.584361642717342
0.565333578676114
0.592282734325773
0.573845555724365
0.591033860092237
0.571722782834642
0.581249009412367
0.573005739388058
0.584456777204848
0.579069938055206
0.577857757301975
0.57344013407833
0.582732464455545
0.561669568677587
0.58058494763204
0.561813409963646
0.570358620970005
0.564471011682829
0.56673476147364
0.547943848518192
0.562634995628214
0.56307647856718
0.574438332186079
0.555790047041428
0.557497481152789
0.534361519449505
0.54848606049478
0.536696633161491
0.540181006456755
0.53950207624314
0.526085900821002
0.524646131700207
0.524644936667956
0.509866418088275
0.527612726700206
0.509519149557617
0.513695469271945
0.50392777199293
0.510084415945156
0.499347618982933
0.509379696697404
0.48679189436029
0.488125565128328
0.476920965732425
0.484618397062236
0.473301216848748
0.483247033075894
0.46167926789839
0.475419971287534
0.461201480008015
0.462196421141534
0.45663524265608
0.454704428775211
0.448828247768219
0.453056177999042
0.44360020934114
0.451954192661222
0.440858546022228
0.447725324564428
0.436186857310138
0.441206854205982
0.432528584713108
0.442158510077563
0.430111823896745
0.433498956870334
0.427566862057408
0.4320728436877
0.4170409220301
0.418966137663704
0.413751023465014
0.42650066421058
0.412052692552032
0.41719711011169
0.410656933172982
0.41264059947764
0.413288532886243
0.413037922719929
0.40708015228625
0.400918868000578
0.398453814984839
0.409517168490804
0.388744515871836
0.398661888183998
0.389330538360711
0.399930998171449
0.386453749774586
0.394614795034568
0.377231847139499
0.391964205530307
0.389865131400365
0.386869359569316
0.381112342510941
0.387151587315934
0.37840756257185
0.391257984418989
0.375696902155712
0.38029598118577
0.369397113362861
0.377195271292748
0.372772307575491
0.374424616864009
0.362662855994152
0.373023630577621
0.36383253281886
0.369862701621748
0.363376918250027
0.359051103098325
0.364608022407327
0.361852169155568
0.357543483213848
0.367033351197196
0.359835296310211
0.35800069694911
0.351591098295277
0.356702525283449
0.354422838181406
0.359163854937447
0.344039954319779
0.357453127530761
0.345572596003145
0.355157347298554
0.348128156957595
0.352334655210335
0.342986899815958
0.349851871672448
0.341721282382708
0.346840222973945
0.335972250232635
0.352227574152062
0.336882481713558
0.338842865788868
0.33698494710267
0.343454021358042
0.337556864294071
0.338658504274901
0.332345403749464
0.341465049914761
0.331499336033969
0.335742868998689
0.331759845167409
0.333815678360889
0.324554187704831
0.335133988255026
0.325145343421683
0.334318181841052
0.320427351065792
0.332253428329336
0.319450943754137
0.332758105580179
0.322365988071444
0.32725696408916
0.3209715712286
0.323951149565326
0.311826118911605
0.320544563646126
0.315978789983823
0.329682768991904
0.318276481115276
0.325228888719039
0.318874930009581
0.322128526635727
0.318492437895817
0.321069118845763
0.318797993488646
0.3269325006567
0.310900396252688
0.318411512368827
0.313280932105482
0.317373074454235
0.312109992683167
0.324478397181575
0.309723876791362
0.318300881806521
0.312676076846731
0.315730635312238
0.316089058178149
0.318785920256546
0.308634436272745
0.314865182206848
0.310791211620889
0.315802134203424
0.309128133529905
0.311276505603054
0.312407992868986
0.315565697709903
0.302935399896725
0.311560869081493
0.309231452197336
0.312830936504749
0.303430451469376
0.305997510537178
0.304670047782109
0.303627103156364
0.302484413868676
0.302504059421179
0.303191108652914
0.306428987189551
0.296053866377675
0.300983537446283
0.301135632139117
0.303335664567291
0.293907318255989
0.301056034651413
0.293672571004092
0.301951025255274
0.297722404985707
0.298006756175641
0.292983148175335
0.292793259566854
0.290526160719721
0.293874314762976
0.294408004926984
0.291829649784347
0.289704083678064
0.292406337841722
0.279056130884479
0.29548681551549
0.282753778172194
0.287411004384017
0.283776798971722
0.285245847323853
0.283744517249323
0.283069470197671
0.281574530982368
0.285096420076213
0.277256840816261
0.283943766028843
0.280016142556844
0.283181386959121
0.277407178478549
0.281409648107489
0.277981000405895
0.284086440694928
0.273789315096528
0.280570035201381
0.273410299858225
0.272236144637699
0.27070535358346
0.272528084474354
0.271220012066223
0.270351278250308
0.269197932678444
0.27383419531433
0.26118197666465
0.271975802353245
0.262322362743936
0.262998288297683
0.265888527355723
0.266169424032791
0.259928296661773
0.263365398185384
0.257508219539057
0.265040165165744
0.2565959972616
0.259477559960409
0.259253918827726
0.259532935837689
0.251853695824383
0.258262649457072
0.250435506858798
0.249414804284216
0.248860497356376
0.255306813313616
0.246982999911521
0.249711893704242
0.244397195663597
0.25117453935492
0.247673315887345
0.24775458198751
0.243466498571893
0.240061085907901
0.236714068868164
0.243659186064738
0.24163165790449
0.239821341979631
0.232847371418938
0.240610623483959
0.234066866913281
0.237131937469029
0.233267673688854
0.228328959541166
0.226456306140299
0.233305414200859
0.232068988002296
0.232006481618536
0.229829042117988
0.233867911365584
0.223284680910587
0.228964371812214
0.224766450645643
0.225477900288056
0.220348492296985
0.229846038589492
0.222848579624513
0.222723740063989
0.221141203666157
0.225080835294691
0.221963408923488
0.21985254974506
0.213276265448539
0.218066761029593
0.213966985345283
0.217320707553333
0.216120694903511
0.21684159657667
0.209748245036133
0.215372798343104
0.211344978027183
0.21540203082021
0.206487128298242
0.208473174489167
0.207950695706063
0.210017495962164
0.21119603656011
0.20813367520353
0.204078694547061
0.208025881395007
0.205383082902435
0.208969819708477
0.201970414817208
0.202795919826055
0.201379932246403
0.207124343418586
0.200474868486021
0.206167272348889
0.198128920246082
0.20202938204979
0.196874424783218
0.201728738921639
0.192203026912253
0.199361792275499
0.194375217908184
0.196388252990552
0.194543200743989
0.200477679340389
0.192421640830273
0.195340017042394
0.192053290122142
0.194135062686736
0.18930408391666
0.193040385201339
0.189344320013836
0.19646243254106
0.192704277078261
0.19359982455474
0.191893221995106
0.192329468295258
0.185566653938941
0.189166638052299
0.186782835812641
0.191897093637734
0.186940794726684
0.187507543127032
0.183427355497626
0.187489540632872
0.18599071037461
0.188000645777635
0.181376473108037
0.186342213565773
0.181212687857772
0.187356186100025
0.186915454752362
0.186046691344952
0.182208907474402
0.185115136823696
0.181336882034906
0.187182355469052
0.182466825293455
0.184523634374762
0.176409726412201
0.181982255349994
0.178843937661491
0.181616625833058
0.176752129668282
0.182243418191383
0.178396361652905
0.17955521058392
0.17542222568422
0.177609615931795
0.173779735791476
0.177692495257859
0.16884460676584
0.177145760285994
0.175087713763276
0.176147199033901
0.174398062714928
0.172672981907062
0.171936326943164
0.174952082826219
0.16882005049244
0.170173780663971
0.169712292366191
0.169775341111343
0.171148783375963
0.172823363168013
0.165616632276035
0.16735421713604
0.167364680477958
0.169921497773002
0.164709616305765
0.170705589164259
0.161910327875022
0.163009168044381
0.165469767929668
0.168145674906275
0.163802061046475
0.164189622812212
0.164353938408306
0.166643492466074
0.159953169961744
0.166432935037137
0.161071205718521
0.16547540543275
0.162328388724283
0.165395691317899
0.161607805626708
0.163105805834222
0.160966679292422
0.159515983622223
0.160925157694324
0.161361186004842
0.156570395932901
0.163222395391083
0.15760864897436
0.162588474153198
0.158172807828792
0.160471715548694
0.154856907558542
0.160024344084815
0.154504866786409
0.157182502989295
0.158111529231678
0.157178874604546
0.150771268611769
0.156443823282586
0.154063491330157
0.154731378192494
0.152157498486393
0.152599141094061
0.153447166717537
0.150956646230352
0.147260234893188
0.154170885123086
0.148240642650551
0.14947289431139
0.144614504430918
0.143629742585714
0.143837560197689
0.146996307491074
0.144430497500555
0.148249160430256
0.145210984268847
0.148192074275883
0.138751449416323
0.143654228625302
0.144023792787078
0.142896214588404
0.138399577255221
0.141075136063229
0.140387414749596
0.139407795692053
0.13491441090185
0.136332604248345
0.138024371855843
0.138965348595288
0.135238817878719
0.139814261228596
0.137882621722958
0.136523567871987
0.133805690323827
0.135968738831895
0.132392902427263
0.135500255668894
0.127499589723008
0.133881521768902
0.127508977861427
0.13112694218156
0.133320848405942
0.131016611929483
0.127369909472165
0.128999526007824
0.127583358911847
0.130145601167063
0.12485155100084
0.129387961337582
0.126682322121562
0.127712125015663
0.124608188698024
0.126152983318676
0.124603083586791
0.124256644821223
0.122950743187006
0.125292676215022
0.123956260547116
0.123267835275113
0.119442184137203
0.123645524689183
0.119993029816733
0.121545281140907
0.119356820236674
0.12402662187888
0.119580891985192
0.118411754623683
0.119506224355521
0.120126129827609
0.117108818947582
0.115089698610165
0.114474669803746
0.115324208971657
0.113039971805715
0.114596091969435
0.110303020365373
0.116102643930537
0.111106922166173
0.115667416680065
0.113315169141533
0.115544690449665
0.112977545826161
0.112456336629077
0.108755087664141
0.108956878452754
0.10752760496303
0.110241725979015
0.109353708791891
0.110047324431317
0.108829897558654
0.109950283563564
0.104682715450385
0.10707372349607
0.109319989008959
0.11002058348666
0.107373643316696
0.104951904415354
0.106220481491019
0.107587816160027
0.10515821676902
0.107243750687737
0.103902274118878
0.105351913206746
0.104009953240112
0.104929170827794
0.103071810354144
0.105244171111345
0.104424549487248
0.104908378664539
0.105068215241942
0.106422279255237
0.10447427177545
0.107821599630347
0.106804512343933
0.104953524402629
0.103094636776948
0.103889969624611
0.103041985865651
0.103991262362814
0.100178071174738
0.107375352547475
0.0992640824544314
0.099471487412975
0.0984071539088155
0.100077966403745
0.104752724698217
0.100812935723334
0.094692515778594
0.0970973634555315
0.100323107098927
0.0980185867464728
0.0957428744506584
0.101437506074567
0.103254494116503
0.0952042612078063
0.0980884386116302
0.0992576861734124
0.0973012007317254
0.104030617045879
0.0920711146960487
0.098754468456034
0.0982716628257986
0.0983638191399647
0.103274376336148
0.0988841186397597
0.0955843427163543
0.0938391332307926
0.0990293689929035
0.0970950208673268
0.102173068720587
0.100022126524085
0.0965315842698834
0.0981981146357849
0.101740395570559
0.105229116433913
0.0991652042902784
0.10073267604696
0.102754969084871
0.0958659382298047
0.0964382252493592
0.0978969678458064
0.0960202051837999
0.0970195496566683
0.105317856012491
0.0999972251450654
0.0958818231180033
0.0905240353566248
0.0926394177349891
0.0987241168448623
0.100030308264588
0.0950682559706407
0.085059334105349
0.0942815221550511
0.0972087886943418
0.100351684025215
0.0869165586812836
0.0998410337102403
0.0906010540240622
0.101220012676748
0.082646284677003
0.105724460557365
0.0866182572323132
0.0980179087642045
0.0820599603184511
0.100499486201075
0.0887280180689762
0.0965975741978378
0.0896220297887612
0.0912890456306428
0.0918771044820507
0.0927879702585535
0.0914177286143578
0.0865501289361472
0.0909704666111538
0.0868238548345153
0.0890021576025939
0.0925700856405755
0.086343442854765
0.0915212991362534
0.086621484479241
0.0899944380751748
0.0866102945679268
0.0886161460411045
0.086492854482536
0.0898581917991058
0.0878815276531693
0.0886184894225278
0.0869262542941942
0.0860429192418189
0.0875198690326389
0.0896316106371575
0.0840093799932511
0.0883075863576998
0.0874266673665746
0.0861189283306008
0.0863526071906709
0.0885453173707444
0.0876126873443344
0.088007522804624
0.0848809898109794
0.0882461492367057
0.0859258033530858
0.0876304237968856
0.0888916301871262
0.088967759111631
0.0865265354307539
0.089781616950436
0.0866373381032838
0.0896337680805559
0.0877167298050525
0.0906252282169362
0.0886039943043973
0.0869431374827767
0.0861564280698102
0.0886150875676976
0.0856546898749606
0.0876000440300408
0.0881009586913727
0.089487666408811
0.0897027846695166
0.0890303130156972
0.0868461097146059
0.0864347831748756
0.0839333165031067
0.0891551345095469
0.0866025415991475
0.0878330102172684
0.0865141101121741
0.089741765364108
0.08636478815039
0.0862062782411742
0.0869672177414406
0.0871376560602609
0.0880821993822954
0.0876995491477514
0.0884685131326976
0.0897764677213702
0.0894071769012285
0.0894794322009751
0.0881248142274593
0.0888242285532695
0.0845864456428915
0.0868958834712284
0.0860273338960747
0.0875276777531368
0.0845219099811703
0.0869496548463444
0.0877496348684496
0.0861941880201855
0.0858437870612712
0.0891263130560071
0.0894593172243581
0.0878211283101173
0.0865951692483716
0.0883897086577279
0.0872242476889171
0.0896248191419008
0.0888273589511654
0.0899380444229632
0.0896060908453665
0.0896765920621927
0.086011350873397
0.0888432032435538
0.0891456974694354
0.0903401112411253
0.0894875523298485
0.0894868450063081
0.0907094396400428
0.0904404198239059
0.0883379410952001
0.0923851098964638
0.0905952457294844
0.090287037815348
0.0908350494764171
0.0912838944739566
0.0896735558865914
0.0915852874037639
0.0929590664365039
0.0901585976194555
0.0905874512561159
0.0924728592914845
0.0879650978825275
0.089207944664332
0.0903144591954176
0.0929882692274982
0.0900890940630788
0.0925639822274119
0.093663721545802
0.0940089320685351
0.0920392604886463
0.0940831189919819
0.093014103325361
0.0899974776279636
0.091921858434077
0.0914415862179059
0.0899358550382262
0.0930468068555631
0.091694021431472
0.0937344934311744
0.0903272318561906
0.0904979300516768
0.0917263595049966
0.091764647422384
0.0920453557794505
0.0920104342912966
0.0909612809148687
0.0920439937834629
0.0904094799089974
0.0943182610024815
0.0917713132757138
0.0935020168179044
0.0956687315218345
0.0959606704289928
0.0938295941774519
0.0955204809270359
0.0910371023908111
0.0918769325284556
0.094342369048972
0.0962829749361283
0.0942961501170516
0.0956292947491577
0.0951491849855447
0.0936754396206439
0.0962691121108788
0.0954820245617091
0.0955109560451932
0.0982131568039738
0.0976024361888378
0.0976570569824723
0.0963888442682527
0.0975033211139204
0.0977157783845087
0.0965660977922884
0.097153341551082
0.0988893736077504
0.0971708099292332
0.0980383301089152
0.0980222575480877
0.0991181626896542
0.0980718966564429
0.0960960096910997
0.0959404801596421
0.098327650872598
0.0959282684578156
0.0954476883935642
0.0957001821200661
0.0974261531567473
0.0964117496654368
0.0964671790884681
0.095959622655136
0.0944121442091606
0.0950837525138025
0.0959446695144225
0.0945662472159209
0.0945160435305126
0.0947523048630518
0.0936273910630669
0.0934204663687233
0.0952515022894131
0.0936320543576261
0.093661230975483
0.0938312317666912
0.0952109428864008
0.0933416073255673
0.0937117049777817
0.092421932177563
0.0935243032269055
0.0930651228579501
0.0919536289312857
0.0928128477846241
0.0929430054266955
0.0904699669285709
0.0919085611656646
0.09230315404416
0.0917722132365147
0.0940121155233486
0.0947012855442071
0.0923309533673069
0.0900605779606674
0.0903736347934492
0.0926259445853233
0.0920558624912406
0.090703111440252
0.0890327295764553
0.0911228340346396
0.0903128104028732
0.0913030489495536
0.0920886235827896
0.091534148168934
0.0901910475282956
0.0902877176233396
0.0889563062342112
0.0884738851144533
0.092699537606786
0.0929543047441362
0.0907534205091932
0.0890365365598494
0.0902528957713299
0.0886451953901375
0.0860028249287192
0.0895572036589801
0.0908679765597701
0.0904487074407612
0.0893522925887115
0.0889413878911645
0.0882703492330329
0.0877030847850087
0.088916167302398
0.0897686837507107
0.0893393928133293
0.0889690526757688
0.089240031452514
0.0888775901480649
0.0880802413025098
0.0894119105026608
0.0885657818357324
0.0876085755148149
0.0902622696438408
0.0899854353377734
0.0894041558960784
0.0887541866732787
0.08703209284134
0.0893659842681078
0.0883751255104905
0.086681972086995
0.0869046116042994
0.0857851058897576
0.0852976392969652
0.0864857223210427
0.0872413851170957
0.0898352837149063
0.0904450543871057
0.087649869387339
0.0873750565380951
0.0878687457747869
0.0859946932481067
0.0864061369268597
0.0876255880031303
0.0867943648605723
0.086765261442899
0.0877255748772714
0.0889134941956675
0.0864133998767791
0.085933278949063
0.0851795437889293
0.0861000237920521
0.0856302262226687
0.0847242654850818
0.0860499333895001
0.0876613548842538
0.0860544068726705
0.0867748058907422
0.0861134090175895
0.0870659752541899
0.0861782847941979
0.0847998817599424
0.0859000389691301
0.085636512369518
0.086915931212425
0.0854288799520321
0.0842869967984692
0.0832214322677309
0.0834912741114502
0.0861781536610038
0.0839953065546209
0.0837305817075205
0.0841267396550434
0.0833501459263137
0.0818103932401966
0.0826549020376625
0.0815910209790977
0.0824555048945911
0.084091517137134
0.082720947518
0.081517491140738
0.08137043170085
0.081419920302352
0.0822281589125783
0.0802121692474902
0.0847787792996299
0.0822464595239423
0.0814255188762464
0.0811412417132049
0.0797770112175416
0.079255195764047
0.0769445320432336
0.0772944322827051
0.0787633517785076
0.0788719242124132
0.0777750735912035
0.076971562025741
0.0773826760985578
0.0789361608126382
0.075486962019423
0.0763241410232001
0.0791548592996819
0.0772951072305102
0.0765533632317489
0.07611313627061
0.0750190317934002
0.0746763081274572
0.0758602751272642
0.0770815448435757
0.07467864391903
0.0739940964215276
0.0759005029043181
0.075111384166641
0.0721541473778233
0.0794126029086917
0.0800001960466234
0.0746910899201259
0.0744234437977921
0.0743723451113897
0.0751540001083205
0.0765396540108726
0.0763443853278969
0.0739465752242217
0.0715369859135222
0.0739864113026676
0.0741850537691553
0.0729988732151835
0.0713051201450835
0.0730905054959934
0.0766511325164359
0.074010672862752
0.0724296929449585
0.0727275078229642
0.0726729938633988
0.0714272445426678
0.0734768836822244
0.0731446355217817
0.0719344647919068
0.07277627613679
0.070563684444359
0.0707169763592887
0.0756476978822138
0.0756404084198222
0.0733851104936267
0.0703244278075378
0.0720283352097543
0.0696854023443208
0.0717849945635456
0.0705039249623985
0.07143902619436
0.0728536205226953
0.0733563285578022
0.0707173545759403
0.0694993325057958
0.0724692074950982
0.0701865666400422
0.0670428827214558
0.0730848518677032
0.0684699135143618
0.0697718458042244
0.0692483720119488
0.0702077956705186
0.0701765822866521
0.0701593448132665
0.0675389580181791
0.072235907609754
0.0643453426781144
0.0707622860923524
0.0745375981282085
0.0726761484092256
0.0675819372689168
0.0676817573798357
0.0692531229474512
0.0694767068255817
0.0670449159164534
0.06848153464111
0.0704226881299663
0.072602353772737
0.0706707450444087
0.0688486834284165
0.0654422396128121
0.0668025351004635
0.0670835448186165
0.0693128711216393
0.065347082105915
0.0679498989507979
0.0681884628434592
0.0657685851930701
0.0688112566859483
0.0786656522403413
0.0713802819645432
0.0706815478034742
0.068158552216871
0.0649708526351413
0.0754767855326152
0.0726873038400022
0.0710746340653173
0.0673217217909949
0.0684249392826556
0.066913970872314
0.0698141089091519
0.065331621964931
0.0694503031296863
0.0674938796207896
0.0713339791570062
0.0713161389745816
0.0689551238834666
0.0680778953636714
0.0675514623032207
0.0676139069587458
0.0673873137082452
0.0706930037042391
0.0689589121758241
0.0657309990501567
0.0671701380486841
0.0679873587083861
0.0690514929732165
0.0645707097668401
0.0691975274707306
0.0681566830082413
0.0668522429768788
0.0677465687786085
0.0713650928488698
0.0639205141397286
0.0681560336337904
0.0749388326520516
0.0736960771316654
0.0687166909698101
0.06713951831815
0.0684684373045944
0.069008196335228
0.0688515212876207
0.0680433991690556
0.067402559260992
0.0679050932137045
0.0692710697253178
0.066052363469398
0.0676977653534881
0.0670103240786363
0.0676491515872083
0.0657352672163343
0.0684642296690649
0.0665570572917927
0.067838559845985
0.0676166573040392
0.0650449076442651
0.0695741037214798
0.0779291171354721
0.0817664905780407
0.0716525780737716
0.073549834878677
0.0692551862714858
0.0686202333258555
0.0642635114674328
0.0686079148288276
0.0694060580762658
0.0700728613321761
0.0687986536006923
0.0693867504734727
0.0686198843170783
0.0699100573480032
0.0670713670840712
0.068386307558155
0.0678140460935833
0.0661534119487223
0.0668093514287346
0.0672917973138294
0.0668666067961551
0.0660048607678537
0.0747604781948737
0.07158978193617
0.0721419048596783
0.0571934870206674
0.0891532089545487
0.077243894638506
0.075790454658688
0.0691696024443845
0.0743854033820811
0.0688751566655454
0.0687703230443669
0.0694402599073519
0.0713757961099055
0.0683520904187245
0.0704603629178434
0.0680032973098146
0.0720100269601902
0.0716819558197124
0.0682385033230473
0.0718314887603494
0.0874055000176776
0.0735249904931788
0.0769379748636827
0.0647539651320064
0.0830957523502639
0.0821924167153444
0.0746474243838514
0.0754559599534493
0.0723133327524524
0.0706335561978846
0.0702781396661244
0.0723369838409665
0.070014480672387
0.0725106388792918
0.0729804341425
0.0749396555296777
0.0728996435871039
0.0720621648048849
0.0762688885039347
0.0725246798777721
0.0785571709133777
0.0776575337802107
0.0719472304879006
0.0767108277204048
0.0737233758096647
0.0724900849650592
0.0724267450600405
0.075863187169634
0.0735799658095131
0.0810917008385371
0.0843012445993826
0.0787191865633991
0.0836216837061039
0.083287041719397
0.0775360889551178
0.0781201309289657
0.0782174837380843
0.0892385876374077
0.0651353207172935
0.088882067942633
0.0881888980403478
0.0984578073318698
0.0895978681528219
0.0805648249267042
0.0788933638389609
0.0769046666303098
0.0781424176067711
0.0774575891505361
0.0973309695360771
0.0767554897364826
0.0867571605809444
0.0699995140577681
0.0912245547750251
0.0848055440906248
0.0880790867212415
0.0833257385314193
0.0846053926372472
0.0783480590596679
0.101878789694302
0.0766715598695213
0.0793730703314505
0.0890268921932953
0.101930525012553
0.109429925913257
0.0831731015060835
0.0801794565896432
0.101059465635003
0.0876918950088283
0.0904678932810247
0.0802888340393098
0.0960927697218953
0.0790337015877695
0.0930101942352835
0.106117715794561
0.0906509327868457
0.0927417182214697
0.0899327565753262
0.0846964195158067
0.102014940186401
0.0929536664262109
0.0949984524593253
0.090479759990417
0.0960425247486346
0.0778100924677174
0.138082999071614
0.0937718808299514
0.1153396166249
0.100665065649715
0.114200918415596
0.101583394160864
0.10506249292266
0.0957643675473806
0.112997077013015
0.111093804568729
0.112473782202607
0.0889669673328284
0.123744616046025
0.118285490782616
0.109729971168462
0.111981011849458
0.105318844695318
0.0972027507187004
0.13189392822218
0.137197738188673
0.139933548479549
0.117331613382403
0.119376581643042
0.131826360742154
0.124192493305342
0.119541343027128
0.12169085033227
0.121678955348851
0.124567726928051
0.118762037034133
0.133791850827712
0.124164843107513
0.135660503093134
0.119659621261588
0.134865616585186
0.126951276333971
0.168734869835496
0.156579078266074
0.139170682631237
0.161398187842152
0.156383760506225
0.151557491626626
0.141434441429747
0.139183563643246
0.153003974434661
0.154750755948293
0.154727971041417
0.140421829696009
0.173237349272024
0.152492774011711
0.174082213159519
0.167321388876213
0.170271470421394
0.158025713571757
0.146854799803022
0.278620009914441
0.180758317820003
0.20341000081117
0.168223432536323
0.200230693549509
0.226338941334296
0.21135716856468
0.20089372676088
0.209895614228899
0.207326352674229
0.217377093237027
0.22027808329484
0.232451871634978
0.240471329926746
0.244957273805979
0.231051157629502
0.259318837617865
0.292415770485485
0.307292691561475
0.28308324413546
0.274623030326339
0.285975979277426
0.301908761580804
0.286404667456098
0.306364314723084
0.293824737118334
0.323116061836828
0.350291236095939
0.332860106415349
0.337767946329613
0.339608757300819
0.373657452070563
0.327432741003404
0.414602687934609
0.373881182921548
0.39435016129851
0.372080679699038
0.397195445565155
0.390447038762472
0.391969323740208
0.42411162904139
0.431867574844649
0.419287397640185
0.427115624984949
0.435860681976944
0.435087226563185
0.441859415237617
0.456030879290964
0.437164042049676
0.492416329008142
0.44759186940821
0.637295884789779
0.480052594222865
0.481125632089393
0.452857979491087
0.484280570036294
0.491399316888083
0.480259147596349
0.505306859007326
0.492948259981443
0.479450656547448
0.485821415309989
0.480318786638646
0.487458398571214
0.477267657036825
0.489518001942197
0.463994768382778
0.522278643828114
0.451551967056042
0.558464239579668
0.516646407311869
0.503868542541497
0.480746178971218
0.493335406463019
0.470717946733159
0.48095797673088
0.459346449973262
0.485687372421269
0.481889376002803
0.481758553330443
0.481690912017271
0.446701556647652
0.477170166678112
0.480898856595573
0.448870976024619
0.453338659442479
0.438733558061774
0.460188728195326
0.422912412456235
0.46297966802053
0.471517889409857
0.449367623228328
0.439167950411368
0.42852632302993
0.432567394812307
0.436983525019899
0.427818410070153
0.437591899676846
0.419850111776347
0.421068381074032
0.433312215123322
0.429008555421063
0.42197785470055
0.404474473161402
0.423839837798327
0.413826250016584
0.418407404204921
0.418832579129515
0.417284013978766
0.410435200250223
0.410238960370841
0.414726016143703
0.408673616838722
0.416892231163295
0.421737894513743
0.415452791378845
0.412318519569818
0.41110517905314
0.412314154325964
0.411295898032692
0.406622757263464
0.406056062247389
0.40807632598176
0.405532704024658
0.402610918741959
0.4129464324087
0.408270456756439
0.405616786059534
0.404541965572232
0.404097759391717
0.398735088719161
0.405949782386688
0.364991607984853
0.488253641185837
0.405535751936727
0.402527806964445
0.381020977459008
0.39440939735457
0.38910563703817
0.365618731352322
0.431412442507385
0.39627432057056
0.378397606142785
0.371917008999966
0.358754297024696
0.379869532707772
0.372511525642109
0.359792957712543
0.37328818309691
0.329319426392604
0.407821572780464
0.354032993437906
0.419387474088723
0.389030020240094
0.375016828953086
0.339012300563853
0.364831633624579
0.380468651147078
0.340788254139799
0.351143433988455
0.318987584364773
0.383188955806688
0.340049587180462
0.342837965600916
0.335599234708196
0.326447734042571
0.346637860519952
0.360860564483993
0.317820401842935
0.338897296617764
0.345246023608075
0.324795087274755
0.361512619539014
0.376797107581988
0.337998121229405
0.308173545561199
0.314648167046413
0.299143542686383
0.301331870753328
0.359247512052815
0.302789811040011
0.32571543966967
0.289549568113871
0.297338803182242
0.28402234152817
0.308802240635666
0.284900916874092
0.290221576069424
0.32505645232946
0.270276831801267
0.307538179292935
0.271263225302856
0.320919170439353
0.308239984885331
0.295184101879177
0.257680794435346
0.304385804647395
0.298424949628908
0.278151868036897
0.290631149352655
0.258259742722177
0.263209815140599
0.282884166117946
0.255236491672966
0.281685255405318
0.266366824540846
0.262592602203217
0.297919076850072
0.29476625920551
0.310240273582384
0.263112813764127
0.252010430694442
0.254498420998356
0.24949976321852
0.264327414027319
0.233505231985281
0.299117645669881
0.25488060014408
0.242448006874066
0.295261782245898
0.267403861931137
0.261021441560099
0.267904920196657
0.25817814859789
0.26617971052701
0.274394579303094
0.302378191645969
0.275998767713998
0.291987236188035
0.306261473325241
0.289737348943203
0.291942749589841
0.290559118631574
0.299359863847173
0.295025606415878
0.322762721458233
0.308875627608687
0.314497692854127
0.325539027889931
0.318848156560008
0.346543593909164
0.369712697385566
0.323984034039513
0.394337622020071
0.337849289386993
0.42899433354598
0.375835070024089
0.387166854017009
0.383707918545882
0.388153392135794
0.405198781649408
0.396386655251638
0.412685365750856
0.452559897724675
0.410124660519274
0.435995953949797
0.41382256195944
0.444050965699025
0.413229273018897
0.484620650760611
0.411477352805084
0.530861467936098
0.479620879631256
0.479345033111798
0.474503149207136
0.453557783809807
0.472191415005298
0.470642253630786
0.472747013455299
0.476143159661588
0.462564494921185
0.506928008665645
0.472616408810438
0.489799795514795
0.478368964329892
0.485148771141138
0.484452227964383
0.488193544702665
0.494136835546531
0.505013022629946
0.507643091539772
0.512864537890067
0.483575081007952
0.616106472972224
0.524300783219431
0.528787018174179
0.51669708762377
0.541792805740354
0.530028986113716
0.53492613033759
0.568507900591095
0.550773007236915
0.543651722089429
0.559786535418458
0.54435512338397
0.562936734568397
0.54965722666277
0.604215796177004
0.545564584333043
0.609265145510231
0.548780648194446
0.628895894738658
0.611176399444215
0.599132712731746
0.615302252688272
0.596204933339265
0.589789080282919
0.601126811864758
0.596052371861238
0.611227700319179
0.605993630925789
0.602982150244699
0.610960231076717
0.603532703700879
0.600344448548863
0.610481406101393
0.596482144680983
0.638334091807771
0.600990942195446
0.608228634978486
0.601215507417072
0.6122380444762
0.584670066453746
0.630446299252694
0.611878628686266
0.609139923286057
0.599404374529311
0.617808797929812
0.610539456954533
0.623625620659186
0.597806169679728
0.610261520424999
0.591156080965048
0.615326892215935
0.589797086069295
0.621057739520182
0.635735053645286
0.620083815478729
0.61819425261841
0.612901098802387
0.627444137179355
0.621939583502803
0.628038665605446
0.631698384608138
0.642043157668625
0.640683316576048
0.639628431983965
0.642458056253446
0.642017966159485
0.642563288409593
0.657177271876697
0.659850337722552
0.634437814296108
0.645851491039063
0.627521332342752
0.630578301852678
0.630684698712468
0.63139607023968
0.621982646624308
0.627896110873042
0.618633955399987
0.613319260943171
0.639536813999097
0.599022131377323
0.612940559014921
0.593386732317548
0.588156886320788
0.593356051250005
0.584765848758456
0.583351772868963
0.571641634991533
0.578499465479209
0.567252752737306
0.571078701025341
0.567493217401149
0.565884884224974
0.560979708335964
0.568061545331297
0.557736519190164
0.563471936956042
0.56219308829569
0.554802035411118
0.556270826236468
0.558049860137293
0.557661911929001
0.544325005419947
0.560798839570982
0.561832296974597
0.568113826746758
0.558197609270732
0.559344768915848
0.560929523382788
0.549851699803451
0.559030913353957
0.547670325107112
0.560992799553018
0.550861429502257
0.555163821813949
0.549094284574765
0.553054056486472
0.543838900870522
0.552515511728337
0.543923446296763
0.549447723750707
0.541501993934338
0.550861499020009
0.539492472850497
0.551668946761899
0.540892037857949
0.561224073886733
0.545371368278649
0.549192442925156
0.552415926758623
0.547145154877507
0.549339388877322
0.549119301938029
0.550550753851567
0.552332821979163
0.544978223771652
0.548175010819659
0.547234438665481
0.548814280819179
0.547026578262593
0.552551468353906
0.544763979936125
0.5480959238583
0.535221181275596
0.534306340448472
0.535271912405706
0.528956370891386
0.531801943989434
0.525138795631982
0.522622922489649
0.520557163235688
0.513246322099042
0.511160940406217
0.505726228471288
0.502023725098486
0.491258599919732
0.499753504608454
0.493442344605268
0.489364813446813
0.484242205606003
0.481355228299286
0.482767479031558
0.480979870591628
0.477441655338296
0.480470863337043
0.476825588032783
0.476780099243179
0.470041762404563
0.478902966314631
0.479191817477272
0.477705995648
0.474489570867482
0.477349118779587
0.475067949965398
0.480489647781429
0.479392753916197
0.48204102192001
0.480952557854329
0.482430336487694
0.48363214540838
0.488640212035662
0.489628789552915
0.494369376784956
0.496665629153808
0.4992887446695
0.494113329840239
0.495741229778393
0.504028228853544
0.504302004180161
0.50642405626908
0.505903446081357
0.50542959642342
0.508924992701582
0.506824101402124
0.50706037716072
0.50337170200656
0.508250518318273
0.50424598795653
0.501739674349715
0.499524077020575
0.501357834563612
0.493617568703277
0.497947250660221
0.495204816121993
0.49467944889414
0.495384773609865
0.491036665027829
0.490413347762835
0.491009795646274
0.482352340757757
0.484917218891807
0.481554444165518
0.4820842788638
0.478912698942205
0.479300505057178
0.476291504471499
0.480387492068397
0.475551338225676
0.474236447709808
0.471903017878712
0.466115559874946
0.472130246938852
0.468591274575394
0.464190441939722
0.463462580969962
0.463721135398762
0.463710863450866
0.463217260966617
0.461843503675876
0.455210723407311
0.455380817782862
0.453279376916164
0.452831192351076
0.450991609859838
0.448354199902049
0.443242441812084
0.446307380239448
0.440845226165526
0.439480958304208
0.432655776442082
0.43434047665727
0.428293299127457
0.425783564499248
0.421025972785487
0.41580872957423
0.414261851163583
0.414511947881113
0.413360163534984
0.411818069212132
0.408969394139245
0.409647545595098
0.405829800247948
0.406695441747004
0.404299322342562
0.403131570685607
0.403026522375
0.404128659702832
0.396919199606112
0.395170604386277
0.391985561505228
0.386558351324658
0.384959755283181
0.381102730570485
0.37470708881439
0.369977920864048
0.364432965654649
0.362319356882624
0.35664771918423
0.358817194684474
0.349957473137738
0.354592933126993
0.354885671486078
0.359227609239899
0.365692794768176
0.37218297392521
0.381121159829807
0.393239379019175
0.401838976636175
0.413417327549865
0.42845519533582
0.440960925707049
0.459429793285244
0.473722018088105
0.489439203708712
0.510159417065015
0.523853118166581
0.542504351466045
0.55615074834998
0.575821820002521
0.588292078649472
0.608735392734433
0.623637623842525
0.639656295405976
0.648478812242598
0.666704903144148
0.677152455163276
0.692544627109173
0.702787855117973
0.713701724735444
0.722656414762037
0.736632104580088
0.746992330391112
0.754112042209524
0.765152397971263
0.771713989132748
0.77545974628636
0.782366882554499
0.785936644095093
0.787444829812583
0.794485491378627
0.799268003188582
0.78679268519024
0.788304588526827
0.798419980082181
0.80421370332865
0.800766200522412
0.799228235310049
0.800192517094977
0.803544336359784
0.803950060326294
0.804301979450229
0.809627650026437
0.815120204464288
0.820236434479305
0.827075045257218
0.829462434657513
0.83921499086015
0.852814143733943
0.851967116070956
0.857068774579621
0.878039989662384
0.870720320210307
0.886733983301202
0.898019436630204
0.909064916733659
0.906812947578587
0.93796627235507
0.934971754639942
0.95297751087567
0.970964094223246
0.978373636530911
0.988055792011451
1.00032357895161
1.00785688574716
0.990728856898983
0.995592236183709
1.0139397448097
1.01998215389964
1.01511181975879
1.01321776723625
0.999216863854864
1.00033301074123
1.00383541506266
0.998961029145942
0.984940528510657
0.981326117298717
1.01501866342527
0.999727252019608
1.01848791285048
1.03743183205589
1.03561177961434
1.04597527857687
1.05537748258254
1.0665977158857
1.09463648038709
1.09277268673185
1.11780106732604
1.14377897182258
1.15987522144601
1.17787386323302
1.18384058767719
1.18517829065143
1.22597112768145
1.24030589955748
1.25329191095675
1.27166095578016
1.26377212378971
1.29550052611645
1.28400824667869
1.31809583772437
1.36495001273646
1.39648527429726
1.38906888355369
1.44417844346197
1.4782359982181
1.48815827685993
1.52868554346706
1.55518157993244
1.52097931965463
1.56766259991569
1.58067599792287
1.58393337398647
1.62811758356304
1.62142446859864
1.61174284680468
1.64899414069661
1.6370987875206
1.64956594096032
1.66366259342037
1.69396368438917
1.63269791753426
1.73837212673569
1.66224023634284
1.70556114460084
1.66063680219764
1.75311612019417
1.68180655637898
1.6921376885071
1.63768068770776
1.62068230090126
1.6628421060878
1.6814499861001
1.65276536272255
1.69828849477591
1.69359816780632
1.73964385595243
1.76667489831089
1.74411598658995
1.7504397470765
1.89269969425605
1.84332296757378
1.81072188999714
1.86551212738126
1.97254780856964
1.8607750008587
2.05618506514237
1.8367392740714
1.86845788661972
1.8712311305119
1.88755186004947
1.85609066829127
1.8804396050506
1.98798017460465
1.98759072933408
1.97941748288534
2.08380571563158
1.99561352047623
1.99610410829464
2.07316443512695
2.28934537759253
1.99667288164281
2.04735850485382
2.08969105835545
1.96576058540223
1.89513445983519
2.14249813722922
2.25595875923877
1.98777823466004
1.95153876536771
2.19080750484304
1.98829363564785
2.02798020492826
2.10855479854008
2.13920494978672
2.03146536636369
2.05241787424044
1.91529848370712
1.99907616682403
1.84283722993615
2.03678088461055
1.7924088347256
1.8461162328521
1.73625017820412
1.7147800778764
1.63331802256079
1.60223701926682
1.52777515394972
1.50739864048427
1.52686940952034
1.52626715200253
1.45142041605963
1.46149921702723
1.46104016450695
1.45142941800078
1.39708911074135
1.47492035478519
1.39807950905061
1.41315678731592
1.40055490305009
1.38206437220538
1.38426189159457
1.32163971755067
1.32959234110486
1.30473512907437
1.2610150220784
1.27976174813981
1.2361957221997
1.1932283768395
1.16549040151936
1.13586555312964
1.11331071726137
1.06024991361668
1.01824450655306
0.963462612152752
0.950785171774493
0.906325261535107
0.852468784383167
0.836175557343772
0.79229700250235
0.75632899107566
0.721250588191933
0.687251773064562
0.663910814077162
0.642814518083776
0.614923552097162
0.596955831272517
0.572394428013335
0.555916458172064
0.542918492567165
0.533354511556092
0.521561168017649
0.514938351907542
0.502394554370498
0.493356782895867
0.49191474186143
0.49222539890899
0.486422279860644
0.478110468485308
0.487323355157501
0.485698299520909
0.482138393063456
0.481448799335879
0.486896304442337
0.489700608559821
0.491048934460146
0.492191168023673
0.493314771040696
0.492239928740551
0.490721330955442
0.487156963437306
0.479904637869783
0.479095126200507
0.474101819836065
0.466063283381713
0.469054972226718
0.458916438869778
0.459711611527495
0.460541365979742
0.451349167815037
0.456315961916019
0.452144793781399
0.447190947293174
0.446490242039248
0.449966388955881
0.453761357981284
0.450646513405141
0.453524652254969
0.462744038142273
0.462357112273572
0.464715121243706
0.472281098348246
0.479222291566906
0.479116859573031
0.477505427417585
0.477270427578918
0.482642361853227
0.489128927004084
0.487131180786999
0.476012342071822
0.488955778662835
0.485701613668743
0.495009786013976
0.500535007535744
0.483914154245364
0.487230862502401
0.509341444362817
0.501172085451174
0.502311647190815
0.512767296002961
0.510474712693917
0.520509602288396
0.528830804498176
0.528903615400734
0.542939630650806
0.555403527281266
0.5684988539057
0.57178367104993
0.59523017276879
0.613537213265664
0.616376194165502
0.632382692274217
0.649758984561701
0.662476442547239
0.660561915848594
0.658273341287294
0.670154190263182
0.661945202999435
0.645359122393489
0.644959023469559
0.640824671415685
0.620566215459715
0.621604297824396
0.613687355112132
0.601795552844809
0.597155120699464
0.588845324832777
0.589120167932486
0.598885756244147
0.590463303223325
0.590938811445366
0.600757567706169
0.599662060647044
0.584747674840814
0.59390620052786
0.584068626889458
0.600214395535992
0.574367917736057
0.568491583079047
0.575211877980324
0.565096063257096
0.555370176039264
0.554109904932213
0.533290851085608
0.536413089104279
0.533193681103966
0.544917321693958
0.543044476489221
0.525676377502977
0.517643458708102
0.525140818590235
0.532045936714334
0.517955446196006
0.5012269992013
0.509332448318003
0.503970516313278
0.511576430687723
0.489430632504211
0.492047514197668
0.483997208440208
0.483584163215927
0.491981084026294
0.490152498172282
0.483080821095238
0.489874095770994
0.480450355270453
0.472986950142651
0.472581826130505
0.481804314015974
0.469249001151236
0.466917682943014
0.458648787769621
0.45438415084678
0.459350616210715
0.460658323615401
0.464972208145081
0.452070815502214
0.445085208091314
0.448744655743532
0.443082523775913
0.453872085586323
0.439164500848957
0.436888862244966
0.433196431638319
0.435060437311724
0.448268040825849
0.451446805420105
0.433602059726779
0.452570178146763
0.445289246168891
0.459088301140468
0.447928650950959
0.455173889158288
0.45512515128094
0.46019469787686
0.446510140283255
0.465759823103591
0.45945599127882
0.463214361623355
0.466755570248704
0.480038000187244
0.467170959010323
0.467392623828692
0.479898029365178
0.474450170548566
0.489858761384853
0.496200345116368
0.491992955173807
0.513766069132489
0.504635847986409
0.495677741518279
0.517555033008798
0.537926881733104
0.521237745187883
0.530392281397925
0.534797965070037
0.545648107404347
0.547312306168238
0.593629160652643
0.609419429513178
0.650213577286302
0.660032497769321
0.662020740552998
0.684018852853076
0.69815749764758
0.706335683607035
0.709976032385892
0.728754490382281
0.724736429753101
0.720737888465896
0.805073197438796
0.823287760605471
0.808989760011551
0.751751543491385
0.778281220272838
0.777687596133712
0.76887985208974
0.780375611271244
0.773935548469238
0.76540391341436
0.810619744911463
0.775790688043664
0.763967555315634
0.794038738198897
0.800418418581351
0.792921073366559
0.765154215575501
0.736217690236024
0.73660476949628
0.723777300623497
0.752191444250981
0.709267954432375
0.731901513955106
0.710256539170246
0.742991386128821
0.680627096974573
0.693286179122476
0.748102788482784
0.734326001997688
0.71313494415901
0.700568721897775
0.700684484671205
0.698062926024324
0.688401805515868
0.705052525368082
0.680342312769506
0.745809595658932
0.692579014752261
0.684027860442907
0.619633999859348
0.61809089345335
0.683780225957871
0.697223939841133
0.68281129919081
0.68022451878311
0.619035325716588
0.703275508679701
0.704145807534353
0.69133166904041
0.673583035184363
0.685079501818147
0.698192395636531
0.751059111000641
0.71292389217472
0.712349928646233
0.766590476521303
0.752865175377283
0.681103237177922
0.723846752327553
0.741062705909416
0.672222756156791
0.657364169200019
0.742165133236211
0.723918350588367
0.749693065150977
0.702204334322213
0.761533530855814
0.782964013108978
0.761683175156995
0.783890875377611
0.754530513558951
0.753021441364236
0.854341744037497
0.69656960184232
0.787260095621951
0.881472982639235
0.837120090287991
0.862929579991751
0.858708012590449
0.927682422103978
0.955925518282781
0.888043024582071
0.876628928226219
0.994495741084944
1.01878705932678
0.986739697328766
0.950772639156285
0.94240933232777
1.02676671392493
0.908207809609907
0.950346152285783
0.925763341368597
0.83833821758504
1.0564921824162
1.11475488465625
0.953456962569271
0.986164759901091
0.868533104334783
1.0834029570579
0.989553138847322
0.928380141621969
0.924686907656279
0.787180854456419
0.841598905670986
0.842624145099293
1.23790544221449
0.984511954236786
0.759817660275968
0.97695100708681
0.880407385071648
0.962138277287435
0.920582753248946
0.874823237364659
0.871574573932543
0.90614419186094
1.07383186788318
0.886849834656978
0.77481179736681
0.973838618777439
1.12427690324055
0.842070437842313
0.697495494551893
0.803344729489746
0.708849065743254
0.819389849711893
0.883881921391497
1.29485203314657
1.20084238448903
0.893207933424793
1.19334985213423
1.35152321264119
0.830434902613413
1.00140931993279
1.05830653774935
1.27409198570696
1.4134028032499
1.0168195985236
0.865724437396
1.11806723486478
5
1.58626015665398
0.784078646523295
5
5
0.559257234478158
1.69342931179324
