3596
4000.36533379555
650.420452594757
1
2
2
0.0526026816839828
0.06581925119802
0.0560604690633433
0.0659231478819186
0.0660339513986759
0.0594042637302458
0.0624555519288221
0.0673096827738394
0.0611183401265024
0.059940162829837
0.0663841326437886
0.0559276435901903
0.0614094257074338
0.0646105476866831
0.0685364262126422
0.0625098991014733
0.0600647236262264
0.0667252381821201
0.063503406775648
0.0612996243987815
0.0639393290331325
0.0615798229017391
0.0580649630511824
0.0575632496168286
0.0649985895172701
0.0684763465606586
0.0535825444206736
0.0551975813775373
0.0636896198894347
0.0643255203099238
0.0633372455372808
0.0562704237815552
0.062472989184645
0.0598626985685213
0.056345756775743
0.0684201931559466
0.0662513557069418
0.0596496530387994
0.0631830465437152
0.0665071108728612
0.0694634896431084
0.0621658166729055
0.062483166100373
0.0638463367270318
0.0592470899205794
0.0626767089765656
0.063485130509894
0.0633107822006635
0.0585272554689543
0.0656879549048737
0.0676988788783722
0.0501306352757124
0.068690762204684
0.0710232602225848
0.0609221658193518
0.0730530493567512
0.0682831688000876
0.0701928978033154
0.068545538908692
0.0513267095611661
0.0661474302788174
0.079732300191251
0.0500809360969896
0.0636360361553536
0.0586429612637814
0.0575842088734181
0.0633987446981877
0.060191847141926
0.0498734803878943
0.0661206390848243
0.0510716714097354
0.0674590734783012
0.0770806302266332
0.0688953065909595
0.0720237313343141
0.0615249802569846
0.0595843352981599
0.0569400520562451
0.0468344845782749
0.0764969027882023
0.0705307567460233
0.0634240555916934
0.0654502370798674
0.0581474061248636
0.0552425673269104
0.0720305952658867
0.0535110218568876
0.054930042431962
0.0730328780731162
0.0689727739575288
0.0633213395370302
0.0645551821522618
0.0596577825693671
0.0588943137116477
0.0589416581688258
0.0497498584640455
0.0543670930984375
0.0642542143537077
0.049982201479788
0.0704400495698908
0.0739259018951635
0.0537843456160764
0.100702518639457
0.0358086969560743
0.102139692410655
0.0714043358393127
0.036910061028557
0.0981180826916994
0.0605226857133639
0.0592301201328434
0.0599684381211932
0.0645565706190207
0.0517534224311524
0.0713717564826343
0.0385914684338955
0.0696596123127899
0.0855957415230518
0.0624099955461715
0.0593814677945808
0.0654936419298883
0.0380389012593882
0.0746574906737382
0.0940539825265336
0.052992559241604
0.0701823696421956
0.0549321920485922
0.0533367533405976
0.0799613163850489
0.0924495577088402
0.0596673868752228
0.0658701728814467
0.0477102478902233
0.0557414852393674
0.0329049486834006
0.0896380881209648
0.0645825262068888
0.0610530310282947
0.0330154606232237
0.0557586532243226
0.0966605333920999
0.074223683877374
0.0549908543082679
0.049196184406795
0.0451897532708333
0.0828968634846035
0.0630162901557606
0.0446488188478738
0.0621816669180983
0.0692260231785386
0.0551923643124927
0.0568325338945728
0.0440053995697058
0.0709195638384054
0.0649781617345079
0.0141428066418397
0.062726154487612
0.120329146676977
0.0345669682168586
0.118979140060674
0.0517127494906862
0.0731366984569375
0.0539087269272827
0.0668891313236731
0.043966754740216
0.0608420931248141
0.0416264968348624
0.0589510579184933
0.0833718848487164
0.053175027687343
0.0538006573157324
0.0815508946004816
0.0570914912804708
0.0283233821980234
0.106666640788461
0.0768675467155228
0.0323334425991251
0.0726999788415005
0.0644354696349812
0.0528066212451352
0.0507879624550546
0.0878309314887793
0.0476972249304573
0.0608237014665472
0.0527510013730773
0.0626722901953014
0.0637477586423372
0.0608100031566223
0.0497585876084647
0.0628758603845443
0.034971851750963
0.0614410851188501
0.0829088918537532
0.0852906380926451
0.0490474187484896
0.0652504784032592
0.0114266577423803
0.0803845934552229
0.0942501139701275
0.0509269882336348
0.0507284415684435
0.0553667750795064
0.0464412657991788
0.0576300644060686
0.0464701825620123
0.0550917802172834
0.0161750623660649
0.0925171598531119
0.0720775731150444
0.0599241110276442
0.0527276560493523
0.0591364254060942
0.0440255959239282
0.102451330087269
0.0884343496880598
0.0574509932597893
0.0555998659580125
0.0443928515406813
0.0530044286068539
0.0756707543943064
0.0572810292007115
0.0595223613702993
0.053257068116274
0.0622235437972737
0.0566405562659411
0.0585689035931072
0.0519618339178087
0.0568282435358667
0.0564273136054389
0.0606779095900857
0.0524464839088963
0.0672231993803444
0.0567132571543245
0.0550669148126263
0.0510478019398841
0.050734417439071
0.0534586561252382
0.0853173736411301
0.0515053407291717
0.0672759944983352
0.0517574290169088
0.0574164876414238
0.045307494448792
0.0631405796954443
0.0523631516104643
0.0606328939032599
0.0375499148902897
0.0905868158590226
0.060740277608565
0.0594238625976909
0.0438902991497934
0.0707060495660355
0.0788003196611822
0.0599073642368195
0.055053497587358
0.0542930070584999
0.0476465228239012
0.0405654883690074
0.0750451703454746
0.0564008715632663
0.046973325572752
0.063056110595775
0.0622836109319511
0.0531570131197044
0.0553488348937198
0.0251269346636611
0.116809338123881
0.0706638283080951
0.0297069314673464
0.117642839228406
0.076635305445561
0.0624833924270908
0.0667857053568324
0.0148317621815592
0.151431680179099
0.115669880969392
0.061634687844106
0.053679741843634
0.0745901425063528
0.0631648847980321
0.0524907999940478
0.06311507171606
0.0502909823302983
0.087726229360037
0.074461186879768
0.11521401520022
0.0429216743455942
0.0747606428838262
0.0891665880997381
0.0664504467481767
0.0636517905537448
0.0572286173088978
0.054706323228819
0.0660210565710291
0.0722379894300188
0.0726478881664845
0.0751601456485085
0.0456182470709483
0.0832106842603097
0.074086276248367
0.0600518961365126
0.0593410251347667
0.0697952445748876
0.0529269339891855
0.0576224372591597
0.0603406348814701
0.0692356922885285
0.05967727127684
0.0384291478988064
0.106870497558057
0.0718754149856571
0.0564591008106357
0.0954167200784067
0.0697338474313607
0.0587128377241326
0.0614786966177818
0.0607366517524299
0.0639694016995808
0.0580222443165312
0.0559694173949671
0.0808154018451624
0.0769234169446357
0.0606384957495536
0.0633463901616503
0.0570267671987493
0.0696916383990341
0.0626567243676842
0.0651629255879526
0.0652478831411323
0.0710665372850342
0.0629807251529535
0.0806567236827354
0.0870300001110782
0.0504767670928589
0.0877624936484212
0.112336152926088
0.0573556794173088
0.0770852411395752
0.0632619493686605
0.0674673059015125
0.0662262716436191
0.0780672605224562
0.0727621272309761
0.0761891643418347
0.0787904521155982
0.0854339139121955
0.0656488521314285
0.065853317269791
0.0946184001524055
0.138546685610014
0.0916364270586937
0.0888734302311072
0.0578263184090517
0.0863869755577121
0.11519313496193
0.0864855771263755
0.109101211676935
0.0773818545444061
0.0914199322600074
0.0854583362514654
0.0908917772490709
0.0856742811879169
0.0908011582601394
0.0892402528891204
0.0878330334725549
0.0956563081820998
0.0860697643808444
0.0867578341817557
0.0820853127580089
0.136030789468861
0.112512674881997
0.095770494604784
0.0986157697944966
0.0891750506538402
0.103627108594281
0.129605305302028
0.114283028494796
0.149600014710357
0.107132513344302
0.155888654484067
0.11660076826819
0.125472844096011
0.10589544400702
0.120866476041514
0.121792828392893
0.135848630613969
0.118439364242012
0.123475811940956
0.116298650386136
0.142320850362278
0.126942440030347
0.134224276524485
0.1229789571233
0.150467748795373
0.141030064620845
0.138501928275005
0.129046706661117
0.147882086152157
0.173632320868874
0.181713398115195
0.158902060828361
0.149347952764224
0.155249250073758
0.154233077817317
0.163866863863996
0.145382007189151
0.157396717628688
0.163716223561375
0.179964705854399
0.198438024070924
0.181253572162161
0.193239752833486
0.174311469873673
0.190879758067451
0.187189577737132
0.188936121613608
0.210364360261056
0.19605726754429
0.183535694915952
0.219707672717039
0.213420782043698
0.195068257257357
0.224421054062896
0.20073888686738
0.210802333569176
0.216222274066936
0.212969710605199
0.211205630656469
0.227105243210713
0.23378135207158
0.220194077438741
0.224176015541443
0.229412580117125
0.236903580185205
0.234042031708472
0.243575345504859
0.23600613970217
0.255878816083938
0.235763395883746
0.243833239552076
0.24920525783173
0.27431769124397
0.28309000225632
0.255313123715941
0.278330112539401
0.271257641916811
0.263944421246491
0.272501280738443
0.261597762232168
0.281325379074742
0.283081122303657
0.287700461514987
0.266011941502789
0.284935187355718
0.303719704151394
0.30866816179162
0.303645430641785
0.31933724669141
0.312935924501383
0.317787282015087
0.304030802130614
0.328634532603193
0.323404729408578
0.336538833546735
0.365857312829776
0.356881473722285
0.357482640667778
0.337291249280611
0.34830003765146
0.34991135890778
0.349818741459985
0.359074118602729
0.351438375175703
0.370722011179712
0.36264951731307
0.370793413677775
0.378721378982566
0.386543806979678
0.38293850746186
0.38896119354409
0.387267174372858
0.422238387968029
0.395741047774152
0.41739712746359
0.40721992814395
0.408595164909976
0.408757942574783
0.434252749444754
0.44957770367489
0.435589708559823
0.418857450449458
0.437601266691376
0.452775933850398
0.463033319650169
0.445496381544918
0.464938248627403
0.452670754579369
0.483661752220262
0.491158119850846
0.484557556499649
0.470479260621295
0.482311537209175
0.49068195331863
0.487788009436434
0.488882483047851
0.509196247064797
0.530762288618335
0.532630755454269
0.51230058664291
0.526079031183751
0.545281781067836
0.546664499235856
0.556184023331008
0.550638933534516
0.546783093862159
0.549071252821941
0.5242249920524
0.573558354079616
0.577357206766015
0.56553307458839
0.563109022221468
0.578192357475426
0.583779566495053
0.617328094228455
0.584033953176167
0.602615239554899
0.611663264131516
0.605276084986556
0.602720414610781
0.642610430775509
0.628270129855847
0.619915573731924
0.602978078148924
0.639289268694855
0.653417509727109
0.639433334569676
0.657798446961576
0.673900215277487
0.657594123342527
0.652750330554485
0.680272908041469
0.735050820019667
0.707116296475258
0.708070757798629
0.708356375721552
0.71082414259515
0.684075117631859
0.70438306052476
0.715928283621775
0.723882209248769
0.737418076982538
0.729918681494887
0.717143038085006
0.741163808515602
0.705906535924611
0.745872151393557
0.753985249347474
0.757353661081916
0.769491091749831
0.760928830292623
0.745714926977171
0.774070655489507
0.792974174267404
0.798495993022004
0.834059879932819
0.812998530637967
0.797833300209727
0.839794662811996
0.774544437640148
0.756106697505768
0.784867168137094
0.82770926033625
0.819092944173915
0.831656004599352
0.838429411676803
0.870152136437687
0.870191103412564
0.905003316828379
0.858859659407735
0.902564520776039
0.910038013602569
0.885194922529691
0.872732332285242
0.859328123612399
0.879637538493831
0.938773097643024
0.936925135696132
0.941717835456669
0.929108836726199
0.936720264925568
0.908484886450958
0.932633110246142
0.927216279602221
0.959213504411823
0.944605649900684
0.956382850879811
0.930798481879461
0.970642301045511
1.01984092034393
0.965060411794408
0.974394527889289
0.990255071340483
0.930959082884505
0.941026584139175
0.969317346737784
0.975237937661177
0.986163961886041
1.09475409628935
1.05624931542709
0.976383721546226
0.974979275370608
1.03981167578704
1.05298620447571
1.06826975297786
1.00352392875377
1.0339826294704
1.09140378468891
1.04148557332075
1.0465262496426
1.10755010901667
1.09383477962971
1.1015023794425
1.10469848329611
1.07523945766127
1.07429889304572
1.13732221414549
1.01833202584101
1.07526962156742
1.05020273636861
1.11793528937326
1.11006908702335
1.08054661274665
1.03679837653558
1.11263513804243
1.13414911520759
1.10180375089991
1.17446436963756
1.15473594391329
1.10129852313641
1.09962485248916
1.07854876537726
1.12891463089887
1.10327809168178
1.15470622130804
1.07843228445632
1.16429878561139
1.15016095495901
1.1429015084545
1.21122011022025
1.2306414305678
1.18859188175206
1.18825494046834
1.1147011276701
1.14166192666386
1.23353416297811
1.18448166048258
1.19243990707681
1.28695509839066
1.23645020914609
1.2479621186117
1.21132787632907
1.18389063991598
1.16511662200315
1.2761038837072
1.27630328923773
1.23767946139831
1.12104137756191
1.20201387832153
1.33388076171525
1.27880260499344
1.19817286906835
1.20770877367734
1.21922410216191
1.22273099848726
1.17126724299221
1.219946952123
1.21000358709669
1.26003802119657
1.24874291590581
1.28060409119999
1.32689519433846
1.37776416548008
1.33565020045551
1.36597654155479
1.28675173282498
1.32178328387188
1.32033768489317
1.27823838433337
1.17112271056471
1.32258956618813
1.2556837499929
1.17958496950719
1.32841906052968
1.26191751462774
1.22673609479086
1.33558105998774
1.30715558282142
1.34859566758227
1.24440727072282
1.30259541227118
1.30866867663189
1.22715280476986
1.34928395083275
1.49035581869777
1.32766774482198
1.3114839267293
1.27779749715058
1.24989311740578
1.29549063025107
1.33795597435335
1.32374910363035
1.35690848301164
1.31049632339578
1.43104604615227
1.27339375915115
1.26803478490085
1.26149478652395
1.30861108998098
1.2436080554581
1.3792580385879
1.31374719333611
1.37123309711134
1.27385651770175
1.25214623782772
1.2714024852517
1.36158053919073
1.29463126198415
1.37967455217144
1.38695657063312
1.3750123616289
1.35368580783212
1.35528249560726
1.25563178891318
1.33012027048374
1.30838806532575
1.34340234354443
1.29623509253518
1.28932384631637
1.26481438238124
1.29981212729913
1.21172103231122
1.23877592788808
1.27646550951104
1.26783659077548
1.22377756398839
1.34469478179442
1.28779622486423
1.27411320085901
1.2400874215032
1.32576645614787
1.29498630064294
1.24512106900078
1.24315335605002
1.36014593687712
1.31420362799126
1.43938768734553
1.41968662504986
1.45268549332944
1.36022116450773
1.27633538417969
1.26538033911772
1.340878474592
1.24650524356378
1.30389474118556
1.31339830517293
1.30288441697366
1.21059381938047
1.36463020326058
1.36142368373949
1.27866879601575
1.26143043653712
1.30548863344513
1.22588370242434
1.34956914707576
1.24602705227674
1.24384434844749
1.27336783306934
1.34962143055011
1.40310718886634
1.39779559352508
1.29436328265238
1.42345186871336
1.2803057502728
1.34162852550048
1.30731624872447
1.29905204720324
1.30567932796438
1.23391885831694
1.22369014802987
1.33867490337248
1.23615141714758
1.22055518062631
1.23787288706589
1.20665397658126
1.21586020475516
1.29813857643893
1.21577385092126
1.27163720244579
1.26239567603469
1.22643714408072
1.20077370576286
1.24139526650911
1.21954598283556
1.24520758030963
1.21613763728639
1.23241096615668
1.22513841488893
1.26246719240556
1.29573514293374
1.22817761043434
1.21763635687511
1.22517518430678
1.20628286541068
1.19913978789356
1.12227747509509
1.18763210448905
1.23397097750323
1.27943134776579
1.18510604854154
1.22066055854653
1.1531025441488
1.18223322020588
1.1626777458664
1.16822137952491
1.16571945285102
1.16952148628195
1.16065750941376
1.17023156791715
1.16111606556775
1.23801166559248
1.16783457575471
1.18754692963772
1.16888153986153
1.15477682137448
1.12733548944023
1.17604865083539
1.14049311125618
1.20135924127124
1.12432779355465
1.18783076119103
1.16812361363919
1.16464154666997
1.10642703889591
1.16708825449777
1.14907776549542
1.1325453067598
1.17346476945991
1.11395469503494
1.04765294156016
1.10783439345847
1.07099560809688
1.15410059261287
1.10046867234177
1.09228954966633
1.07646577800455
1.08021572904073
1.09962648491894
1.12291836234934
1.05761862644401
1.06494295531482
1.03893862102286
1.12322804240047
1.09062922010327
1.07877182009469
1.03803418156923
1.01232612726929
1.05828606119726
1.03617025644571
1.01209562395405
1.04528680335024
1.01972129500402
1.04293291951372
1.01420277153913
1.02933864254157
1.01472410789563
1.02454326620944
1.01377123099447
1.01843656595624
0.989100084931898
0.996962958997455
0.954001969540769
0.981015628825962
0.973811995523806
0.99935230389125
0.949092366534968
0.973221119751712
0.950217060532314
0.99473027777783
0.956670289987375
0.962287089383609
0.968446620571384
0.958740632387856
0.925674156291927
0.953675473911791
0.890722116429165
0.963584308975774
0.909619468818326
0.926663309010247
0.910011569803462
0.910369700251642
0.907450717403358
0.901942269325019
0.902849576783102
0.892485271116256
0.851297812746671
0.888139420861213
0.877358423822866
0.898293969775292
0.877798799251888
0.878892621092055
0.856748968791043
0.881049775272947
0.862172767385399
0.874504832071077
0.837986079809956
0.851576690607369
0.828952295530101
0.838356748428018
0.818799949629885
0.843523236678551
0.805806034649379
0.816765390921579
0.795775154806649
0.831093226809522
0.801024672205406
0.796979201244523
0.786414499311204
0.810511396664985
0.769766944503774
0.80703985207697
0.796686668756368
0.788236403173686
0.750995815032114
0.768101149051146
0.7397518356088
0.759851596901156
0.757782751275945
0.762157611322046
0.726465556772176
0.751191841922297
0.72763587669673
0.744939468168879
0.736213757522893
0.730515875708286
0.727398701558843
0.733992978139847
0.706841049649599
0.718687899265936
0.688099419965803
0.729300090334961
0.70747550150625
0.722131599969906
0.7109052021659
0.700189165542825
0.691186632711822
0.679846485502165
0.669301291947126
0.687927274423499
0.671537667661753
0.694659110850901
0.667467044909765
0.670863812707422
0.671117581827922
0.66769631809197
0.657101209239613
0.659562507765496
0.661799057397165
0.661319029738869
0.633877346677627
0.648396809113657
0.635961020617272
0.636453758091883
0.623848050309861
0.62732346774409
0.608359872467589
0.632433077935027
0.622180455697073
0.627878399170471
0.603886936327662
0.608643419122985
0.592450800863692
0.609482773679511
0.610946170273725
0.606490883584582
0.579043968140112
0.59422555655963
0.58913993887524
0.592256268040028
0.582672854676593
0.596852456875019
0.557672252431549
0.57834558756649
0.565745975882181
0.584986872397939
0.564051086954212
0.588353295186586
0.569163172821546
0.572182180975131
0.548346195815005
0.55650949159488
0.556594948151271
0.549840885579416
0.537924635574037
0.54484578539486
0.548421199661799
0.546135402539018
0.524674176774936
0.541699392214783
0.517962822954334
0.533851377415659
0.521880740638755
0.516242428174309
0.515643149135092
0.519835658039292
0.503233739708708
0.515089512102755
0.507432778206381
0.509311755118445
0.486923362725871
0.509692902620076
0.488459587558475
0.514807629584542
0.490848806426691
0.49210984768788
0.483604466948242
0.490303282282634
0.478497327755293
0.487638302003748
0.467048656878295
0.48875909865867
0.461466234059732
0.476196796648434
0.463790103042909
0.467520921017378
0.464240089108754
0.463116342545273
0.456427260016831
0.45970166734386
0.446498855027162
0.456644212405696
0.447578639487537
0.448862526875982
0.444789588222326
0.458450178485685
0.437212092420176
0.437781339241616
0.433220519151401
0.443512115683058
0.431991661138946
0.44191145044416
0.416354761910469
0.422785248989198
0.416023819477344
0.42324387864364
0.418341412561457
0.426109184593019
0.412381568745779
0.423711297024833
0.40419948444946
0.413640176495884
0.408877116648423
0.410094761156431
0.404534825064453
0.414405594062859
0.399022020077841
0.402856635942857
0.395277292253287
0.404146193259444
0.400401876704695
0.402856047884812
0.394641724042934
0.401267328879201
0.387008664922338
0.39432037508203
0.385098126616487
0.396224612714761
0.387309011417161
0.405760448281123
0.388532339886598
0.39133808305337
0.389345828401651
0.397477084637959
0.384884098945244
0.409671592485738
0.382300277881965
0.400257888602331
0.383821912823244
0.40207096045676
0.384188333458767
0.39675993051651
0.398868764135458
0.396611697250839
0.388689440563454
0.395628155403098
0.394876397922184
0.403876682856545
0.395671059008464
0.410108944404304
0.396610224942856
0.413732515524264
0.401394177718931
0.425540181111534
0.40861170942373
0.42886528949479
0.404600559266583
0.42677725994587
0.416081093760184
0.429562881734293
0.420727211404232
0.430392537208754
0.4182885768575
0.436982573819197
0.431947329183342
0.444489054148114
0.432496136425457
0.441712312599245
0.44008638477558
0.445666801352525
0.442646866287938
0.458987933600672
0.44314616204216
0.461621570743431
0.467287030197827
0.4653417278415
0.458138558713328
0.47022058558262
0.469332291371407
0.483488274252603
0.472925326771349
0.489588056991958
0.47702468071241
0.485474087435684
0.488450222919773
0.500672357664509
0.496078484605716
0.51461500813108
0.494367455671165
0.513408774917876
0.517267123530227
0.520698068474657
0.520291316773738
0.525966215813016
0.518117040200528
0.546575989124088
0.53220205924389
0.527594230031418
0.527804145231208
0.55560938372466
0.528837845629428
0.556937885883785
0.537752632580521
0.547553901063314
0.544987214972949
0.554186758704402
0.55253574854223
0.550385074680152
0.548014660005572
0.540715128810292
0.539580528543234
0.552432373096746
0.527595153057536
0.550503779624148
0.525874917274736
0.54763891809359
0.540992353688921
0.542690912555658
0.534585427622975
0.547091898421041
0.547632061713114
0.536503709659383
0.536281742981597
0.541343182706357
0.540914860171249
0.546910078258124
0.536782652483834
0.539429906322731
0.52883274903452
0.544420688810788
0.531819966724568
0.552806982127185
0.537349995774952
0.555703422592245
0.529801461205545
0.542797775879348
0.534750133334128
0.549616532361603
0.551122654836127
0.554580305458177
0.530891997339322
0.549024535488486
0.54267968476127
0.546215741564709
0.534281692995953
0.547307653749426
0.551964489548275
0.540467323533942
0.53596016983516
0.547281276334906
0.535536614909548
0.555538602519348
0.539491122168122
0.546273014511717
0.527839349356721
0.542344705952199
0.521707509356586
0.550827709456032
0.527794141395507
0.538168732731842
0.51981334368434
0.521108904054779
0.520988145287348
0.536740297816033
0.505648170760715
0.524044435875233
0.514178898150805
0.517906118789245
0.51205913118599
0.506594095819701
0.48276956812172
0.496052532675049
0.481590794055022
0.495699070668369
0.484382378456113
0.491807151785238
0.47778677401547
0.482618802675217
0.463169738058701
0.470622714747259
0.46109200481185
0.468053500463056
0.455225229401158
0.46622566223309
0.441698545334875
0.451233322567224
0.439176434996956
0.449895311686722
0.428916666421333
0.429167382338129
0.433158888901276
0.433026632655622
0.414327916837549
0.419998787921479
0.417058424777522
0.424336902658725
0.410529909205796
0.408846561597931
0.402961932670435
0.411952175187727
0.397008512477337
0.404486648837989
0.388871082107584
0.399322881648665
0.382914228911476
0.388362897199745
0.391298801920514
0.388223757951577
0.374959575898419
0.379012145222825
0.378453079806231
0.376472398757316
0.365544306927358
0.372734463560919
0.369224767614069
0.380505769710797
0.36237091658072
0.368106098671417
0.355955715733738
0.358982071227463
0.357243171234254
0.355460764071231
0.34584777790751
0.360395562596269
0.354687445096909
0.35176796969286
0.342911240382319
0.354724368557613
0.343414262700133
0.349572563964975
0.339593851783693
0.345230278359591
0.33943433175443
0.339630324590709
0.330833580977863
0.340170743431147
0.32618032574311
0.337802256828265
0.327546690412932
0.33103482392473
0.32207651756163
0.328128688832542
0.322946000731774
0.332638691455383
0.320700818372322
0.330030505803153
0.313746001313483
0.324187707681673
0.310180904386051
0.314524338536036
0.313517685437287
0.322608530558609
0.306240017631208
0.308527877506259
0.303059325254648
0.307416619245125
0.302167370165791
0.306485605558716
0.306096054831881
0.308804323483568
0.300478258851786
0.310819017560324
0.300438642309944
0.308600617014236
0.296532612103397
0.303453433888172
0.297008928256128
0.305345440400408
0.295108112624888
0.297790386924463
0.292878572445338
0.305043670406414
0.285752418026137
0.292639393305791
0.288683145025809
0.298741239086647
0.287392950311938
0.288849417690328
0.285379613097302
0.297164493163916
0.282915548084186
0.285853999448538
0.275765434985685
0.285743637180364
0.282113620979034
0.288602056867175
0.278281816060351
0.287829763650184
0.28096330856835
0.277977940072455
0.278151085933685
0.282647331712262
0.278510003796835
0.285216577113013
0.273667740171018
0.282526936696531
0.271576451253867
0.275733983032593
0.269151713052173
0.277374941534435
0.268599011948463
0.278056040201343
0.267240149482658
0.274310127892879
0.261807990749906
0.272585280810536
0.269176821563401
0.274480503447836
0.267259024051055
0.274537753856677
0.261272559188688
0.276819647477871
0.262726175742264
0.267176586547454
0.266469169960612
0.274643570291061
0.268731531462353
0.270327743903144
0.266062066908587
0.272965384588907
0.259547369487126
0.263572689511753
0.259632500847794
0.267049489456817
0.252422482855595
0.262296591103096
0.260658005269403
0.264382745069049
0.2525865644777
0.262802733662722
0.260252694069836
0.262066295413152
0.257774478968419
0.264000410170095
0.255211109112934
0.260190023627154
0.256128309399267
0.254437407554166
0.25348187594608
0.256102302238082
0.246184722521557
0.25267521373789
0.246696384044383
0.257430981142977
0.249562681504718
0.256034769191851
0.248794359296022
0.254840399715092
0.238381442260456
0.248788725799716
0.241775491504158
0.24757962241002
0.2412056964648
0.24652343503286
0.243747889005316
0.242512962306732
0.237821299840145
0.244619594562228
0.233611180635766
0.245168682109412
0.239180661719326
0.239542600149663
0.239448168487513
0.237942087565282
0.233829249786779
0.235125822572662
0.238006393809305
0.237468003978838
0.23426814306257
0.233563299010198
0.232323612661208
0.233433568996694
0.227421626985361
0.233621304329392
0.226217646764648
0.226945569435333
0.225178415343644
0.227079786751582
0.21837529608297
0.227491785189287
0.225162898966378
0.226510274004841
0.222709824928823
0.221703658103874
0.222337239452328
0.228913838834552
0.218008532564748
0.224609171638218
0.215782167146981
0.218050345406397
0.217395715679614
0.222876753501582
0.212400982272977
0.214102364813707
0.210513856591178
0.21451252754506
0.214765210922923
0.217787126978597
0.207140282169007
0.214879641273213
0.202550838938836
0.213917147495582
0.204747574132928
0.211553069825273
0.203119307246674
0.204471905103389
0.200609314637574
0.206756659548716
0.199533732795609
0.202353267708681
0.198174648188503
0.196955820001547
0.19538900275098
0.198168128265398
0.188744859976711
0.200639320827141
0.195520097980751
0.194569230941883
0.186148840285533
0.192944148604482
0.190222071033275
0.190366257449635
0.185001211444153
0.190375282842439
0.187469407561342
0.187084220998846
0.183916889543807
0.190215160467518
0.179946523619198
0.188836428755424
0.181688737009198
0.184155312955987
0.179774837787106
0.18331932437903
0.181770785858883
0.186040444544065
0.175720569903492
0.18020429665241
0.179395602296755
0.177448939237116
0.175171881245506
0.177842902028428
0.171445856437007
0.175675922642511
0.1730385761043
0.174023431910345
0.170634934324987
0.170701558385614
0.169723575446576
0.171079570064033
0.165392221895332
0.171072996661925
0.165495962003089
0.173138014721646
0.164928002522009
0.169374464605343
0.164309277115118
0.169663200233978
0.164928141619884
0.168667907311061
0.163364930762337
0.162887664841942
0.161903382026363
0.163372551198052
0.16024587309838
0.163194359499666
0.162006609138526
0.162971333766112
0.154979543306319
0.159329165706605
0.155728726577799
0.16076655979058
0.155931266353308
0.15662645010839
0.15640921654257
0.15778514027839
0.157057820002215
0.15726136962962
0.153841517171078
0.155526500784081
0.151621012528062
0.1586373613522
0.150798054732789
0.153621144052098
0.151036239031972
0.154408779160961
0.149411410171199
0.155427412450818
0.150342795166825
0.151494372529238
0.149391729193282
0.150064863931999
0.149111978278469
0.153701861275166
0.14674692877184
0.147467756689606
0.14649516365053
0.147671939347967
0.145717862500211
0.151388276193488
0.150857932257994
0.146743223856119
0.143883120106936
0.149288062527758
0.14611867054691
0.147535458383464
0.141131287080932
0.146251782127266
0.146053675635099
0.148204884048582
0.142941506552634
0.144981693077707
0.145549413226702
0.144052312406296
0.144166489641773
0.143509140987172
0.140635729109713
0.145196372317172
0.138851119619821
0.145169929713992
0.139568941326715
0.140677839339427
0.140444219181897
0.143422195352844
0.136990740594691
0.140255858684875
0.136876480819907
0.143434906355725
0.13709187240783
0.140714028892209
0.136628351078146
0.141895607816671
0.135754293155832
0.136522391619465
0.134136158223886
0.137413673359061
0.135830457416428
0.137293273365284
0.126085358365909
0.133630725574564
0.13320937594227
0.137573773631487
0.131201224692454
0.134164980505041
0.132000614128473
0.130626272347981
0.129421456648875
0.134793588989167
0.130860732298452
0.131365747342933
0.129162297040425
0.134226080993656
0.128761014671205
0.129385635213606
0.129047044207529
0.132029695387002
0.130116458761273
0.131625883118953
0.132637283956049
0.131436887323505
0.127123545839069
0.130381561639045
0.127606824719127
0.126915718732853
0.124851559130172
0.129886641037078
0.126284020494434
0.130721826896586
0.124466192376367
0.130182628396275
0.128073915814366
0.128097969394882
0.121510632638869
0.124170051509465
0.125278344165762
0.122226003535339
0.121258277429459
0.12485550359472
0.123155448676285
0.125265058207162
0.122094885908627
0.124269671509365
0.120881463623802
0.121661977590965
0.117067089211167
0.121989970065546
0.115137315921912
0.116738632253373
0.1169114928453
0.115656450872692
0.117270991109094
0.119802594548695
0.112099504106372
0.117916054308235
0.117863578620996
0.117055180281397
0.109325156606104
0.11227677093713
0.111934932855583
0.114141837776936
0.110105351186397
0.111170076572859
0.111454265456948
0.11549275095877
0.106751938528497
0.109485025838209
0.10883546720908
0.109768733690257
0.107455127083776
0.111766149594078
0.106422531732309
0.106796032526898
0.107091105740631
0.110208717939515
0.10483939508031
0.107481555411744
0.100026386309431
0.106131378808805
0.104564056394733
0.104248703433983
0.103603398285765
0.106110400892296
0.103583612106657
0.104875313397768
0.101724377365055
0.102280686373067
0.0989083752408398
0.104038521426075
0.102603946840298
0.102078020559889
0.0986098598966651
0.104648955743439
0.0984575465984088
0.103905038873635
0.0966583412801484
0.10163530947862
0.0993792275279432
0.0960582020022804
0.0955527340940637
0.0986492932852357
0.094763100162498
0.0949425397524385
0.0904920031398674
0.0985135505292419
0.0971913246543175
0.097285840217258
0.0948433682774479
0.0955882130262942
0.090392666055616
0.0936158284263138
0.0924918169108569
0.0951905810078068
0.091925837164723
0.0905064240143064
0.0885136032346275
0.0914890807767805
0.0883122903054456
0.090815984658754
0.0875358433379747
0.0929543852110183
0.0890101597839571
0.0873011041356364
0.0856425920572425
0.0887466268674997
0.0858039245520522
0.090657850197565
0.0870465128945029
0.0887414059800264
0.0855049420300619
0.0863013016352201
0.085145790435471
0.0873328641951935
0.0849256920978667
0.0874044305305
0.0860117973939634
0.0854635297667699
0.0855482374090667
0.0840917501203452
0.0829433191929738
0.0857216260565417
0.0818594554775255
0.0857497446481131
0.0833557058093201
0.0854489851734167
0.0827569257405011
0.0835992039865733
0.0855103013392364
0.0849212438728042
0.082883686601813
0.0843830282822892
0.0858915310444518
0.0875511029247225
0.0860787118239306
0.0829184765129241
0.0845719380013717
0.0831402793354071
0.081571731912625
0.0820222307238457
0.076942174250791
0.0817426136610296
0.0787675712385562
0.0778866000386274
0.0771841127137866
0.0854619562081913
0.0892077676129427
0.0848394214018892
0.0770378138867761
0.0788030128626906
0.0839496164526642
0.0860979191404668
0.0787536297456507
0.0789997016437679
0.0786305068450475
0.0754029353031568
0.0779552715752417
0.082860726154933
0.0815423212577237
0.0828498811679112
0.0762283038834897
0.0803597389077571
0.0775037813186651
0.0789875444974829
0.0840505658759149
0.07891125371378
0.075705726820271
0.075684469932619
0.0792558545233769
0.0725519916869739
0.0808439543878947
0.0786967984752334
0.0761580038541366
0.0765591639873744
0.0839725166327551
0.0833042096067368
0.0807481119102185
0.0779576903296997
0.0848362793465667
0.0723742293182383
0.0748954155282925
0.072752720257976
0.0799066806850977
0.0812261709632173
0.0880441352812034
0.0764281969067382
0.0830432753169157
0.0720560518967256
0.0742544281237319
0.0795483537126142
0.0840495248426242
0.0753133617441021
0.0725973844923728
0.0752378441761454
0.0798522921498075
0.0813943435138515
0.0678555177334952
0.0825585390151444
0.0756323851588887
0.0865537188788173
0.0643398430562809
0.0861870579127119
0.066931815792675
0.0787707051147726
0.0644442018641632
0.0834061214650722
0.069004424104283
0.0841423494493493
0.0700893390607162
0.0722169483559761
0.0722486934984557
0.0732147471682162
0.0740164881197979
0.0728257176834005
0.0737035140577399
0.0713379052590056
0.0719098979483343
0.0742529420180055
0.0681955874073086
0.0733674726838343
0.071319572824472
0.075138736778276
0.0680051975784312
0.0709782121008095
0.0672920478726801
0.0722429261218319
0.0722618107189657
0.0711972221288147
0.0683177612985189
0.0682949955991914
0.0659573721614263
0.0682203384828916
0.0673528206297107
0.0732151157099927
0.0702247917296057
0.0711497697834967
0.0698966578430685
0.0734037552853065
0.0712947846498038
0.0710753402966096
0.0687955536495871
0.0711938906319385
0.0698996965023196
0.0709384239883365
0.0680044018773949
0.0704212533942725
0.0679073698820303
0.0695013504272384
0.0715367907792883
0.0737227808555714
0.0692373510497684
0.0700312882067008
0.0689972672981744
0.0706537483724452
0.0697516454640889
0.0707046268884924
0.0684014092828042
0.0708390136275444
0.0690693626382941
0.0701030281879124
0.0700914739318174
0.0683705469036999
0.0689043994971416
0.0700879201394259
0.0654965723371129
0.0703203514663701
0.0690000699449038
0.0698889031217268
0.0694683887318083
0.0705201562786793
0.0663801413816394
0.0708728129199693
0.0705666782698903
0.0701835569498531
0.0684761147173084
0.068748362325666
0.069463424985337
0.0715557134783224
0.0689582648563673
0.0690100954143751
0.0699504431257278
0.0690378398620114
0.0687724136412917
0.0708784273354628
0.0689115565440963
0.0709245292497943
0.0697201743272111
0.0689211064805114
0.0689982717673473
0.0685898247275882
0.067377545177302
0.0712731011315381
0.0706736310406265
0.0709475834772876
0.0681291548333564
0.0698164684695656
0.0678441203225711
0.0704526326549435
0.0681378295863169
0.0713602875842767
0.071005671970526
0.072267352788356
0.0709070660210835
0.0714773993997305
0.0673639650091228
0.0708468923670109
0.0702694627495742
0.0680799700111669
0.0703582686373949
0.069240376797048
0.06968317780435
0.0746037200646928
0.0714201824599696
0.0712007069215011
0.0709998428936123
0.0719733376911871
0.0715768538678912
0.0727101408889086
0.0725152521257318
0.0710683035138164
0.071093059371326
0.0711527844501615
0.0688695394355743
0.0717794583642203
0.0677332034938942
0.0718761133759443
0.0727157087785443
0.0718265423422648
0.0724382120511606
0.0741312187715501
0.0725337897846349
0.0741192323411708
0.0707948572004903
0.0699177634687351
0.0724134695627851
0.0719034012941137
0.0690096726961688
0.0724828370246857
0.0715682174973831
0.0734541617489449
0.0699031040671834
0.0707965333556722
0.0715488836201072
0.072049032089277
0.0717879302712609
0.0710417020276181
0.0708157650005369
0.0727214201527309
0.0706328383767806
0.0717540466619999
0.0707687091624936
0.0708898258810596
0.0741830475788095
0.0743181827296464
0.0740882156770566
0.0742963877297962
0.071573687359093
0.0722995402027082
0.0709670235391295
0.0733265765563107
0.0733068927411145
0.0739177817517607
0.0745101921959756
0.076105985218833
0.074552978814083
0.0732207626208525
0.0737345925271489
0.0764560167188451
0.0752808490610735
0.0749891700246586
0.0736037071558552
0.075110888453791
0.0719072594184971
0.074761438641816
0.0763262670102917
0.0762459804763232
0.0768503244164671
0.0766047771239247
0.0750943853976856
0.0755575112376925
0.0762969596870363
0.075226268612594
0.0735207440292142
0.0762924099802446
0.0737834097016989
0.073528843663543
0.0720111634196077
0.0728269813301123
0.0757730527803311
0.0770900143763975
0.0730154836273649
0.0731702800315726
0.0735866265699385
0.0732195840451631
0.0733854677889084
0.074689768380742
0.0741456369053355
0.0750307102303441
0.0743163431275211
0.0729073581430257
0.0712841907393748
0.0733067198439486
0.071420499957737
0.072475710493065
0.0719351374487456
0.0720563684607028
0.0706230858939556
0.0704416977292717
0.0708896389491906
0.0707089077837748
0.0693555452776832
0.0710789962666927
0.0702960768043689
0.0726466000570696
0.069572587261972
0.0682974829336187
0.0716052052895719
0.072526915079716
0.0719585598427777
0.0719984889544755
0.0708059140333561
0.0695589836623629
0.0703874814026815
0.0705416360726173
0.0686747057049736
0.0691511866758801
0.0702561461500935
0.0717706118937123
0.0702083315243355
0.0695478700910166
0.0687707998747064
0.066126479378734
0.0666174321160951
0.0680628172285163
0.0687042088738292
0.0702377810213447
0.0685960204321753
0.0687814921160284
0.0706459567366582
0.0702629326141386
0.0671400814656384
0.0682987291200357
0.0698114039429527
0.0700410036886742
0.0677654618633492
0.0668006773055244
0.0666071403083008
0.067431843459417
0.0688711434175203
0.0693841297640619
0.0672246142111914
0.0663553936760993
0.0666352976054824
0.0672529709670638
0.0680804099359696
0.0684890775457276
0.0677240354231445
0.0675310154346003
0.0681479732122106
0.0688037880413646
0.0674609116171035
0.0691495606841237
0.0697115890959857
0.0680236597608807
0.0671934442400802
0.0677559304773715
0.0660331434496284
0.0649892509189858
0.0659019031054732
0.0668938829268782
0.0667640672365035
0.0695322585086273
0.0700743417193652
0.066535635473932
0.0666404205216589
0.067801971142158
0.0660546052430842
0.0660942648955995
0.0656314826439394
0.0649559536786413
0.0659963169325968
0.0663420649564908
0.0668047682982024
0.0652170011180587
0.0621432789626468
0.0639143632014163
0.0659299740988223
0.066660103916066
0.0649428422779355
0.0662847419308693
0.0676629118750171
0.0647452823189261
0.0649642626856272
0.0651373037373365
0.0677950660643761
0.0678903544730653
0.0650212353829452
0.0669814609312452
0.0654413063501299
0.0644940035988246
0.0655879489056005
0.0650964164248139
0.0651327221021625
0.0662281517065995
0.0663063590765106
0.0632771098004928
0.0652531738171821
0.0637194671213011
0.0610735220367217
0.0626780150791465
0.0637291691611798
0.0615209623385113
0.0632977368970349
0.0656196856254969
0.0631062129412601
0.0626292371570242
0.0627882099742013
0.0608284199800483
0.0608524154763019
0.0584719087619989
0.0630172465894539
0.0627667472759664
0.0619980076307633
0.0617040095671177
0.0628568419603111
0.0615519473013789
0.057390967603877
0.0588428409055276
0.0600072479746509
0.0597786281069084
0.0593235509974891
0.0557770154497954
0.0559529922056991
0.0591427598377223
0.0572626327209289
0.0580788893649199
0.0601314551587561
0.058133619753702
0.0555628864800947
0.0562830611455843
0.058662715590823
0.0572878215241538
0.056694964952947
0.0567606043350835
0.0553059680113405
0.0564370834909983
0.0589549725975446
0.0558834395026987
0.0525662366847941
0.061196593518124
0.0613827359675435
0.0556677384639328
0.0553088761863337
0.0578421038526378
0.0568251749584465
0.0571766664460967
0.0558492303949451
0.0528702988361603
0.0556663664129211
0.0568056541374855
0.0563559793983026
0.0555344043705274
0.0545610099362514
0.0547480435754681
0.0566635792294555
0.0542450134195123
0.0545239481539297
0.0544336570985334
0.0532214703139846
0.0533239358034039
0.0529926827964656
0.0534531773874718
0.0547990023428863
0.0554151735930708
0.0531860694053654
0.0548551529015187
0.0567554689368931
0.055994166047129
0.0545449510577459
0.0502105037930438
0.0529752721531688
0.0519919672975182
0.0535284915466925
0.051567363274576
0.0512568897678457
0.0539404770072198
0.053955778327731
0.0504747922302204
0.0520691092821324
0.0530217514826868
0.0509365910807794
0.0513969437590497
0.0549247487257317
0.051335055678547
0.0519604812241669
0.0522154011458335
0.0518054202552367
0.0510216435691842
0.0521657046961646
0.0527443839549858
0.0560501448870819
0.0495006770746037
0.0557343000485425
0.0584563397907619
0.0558449635265466
0.0496284104062582
0.0511154383170133
0.0513842577482977
0.0516878962434978
0.0488437573355447
0.0503790036655797
0.0509897339883725
0.0528915741533184
0.0522031859665753
0.0500286406680899
0.0490013136693648
0.0512246294920936
0.0493669726905638
0.0499145044181265
0.0487829931968661
0.0496011251387489
0.0511473363562109
0.0489808671544196
0.0528042320970193
0.0601323413826268
0.0490825478058232
0.0519551338245062
0.0510935199723229
0.0484652242023891
0.0583547248662971
0.0559572496994886
0.0539988313447166
0.0485425216665809
0.050725273944659
0.0493861336431739
0.0508513027393219
0.0458221695462662
0.0514049150250828
0.051530351238057
0.0524828865731922
0.0529788687221438
0.0510769222440658
0.0491023432067273
0.0489241334497556
0.0499102290736485
0.0496543314915029
0.0515479421749105
0.0491112508643911
0.0472696465721812
0.0480805082552292
0.0501134192238208
0.0526206623568083
0.0483888631481885
0.0505171293965654
0.0520481227994119
0.0492038466353407
0.0506596845411909
0.0525971354288944
0.0445352112570941
0.0533645094031344
0.0567623464456155
0.0535308355911261
0.0516018534323466
0.0503610377906732
0.0522815715906552
0.0525972644937617
0.0508484088027567
0.0482616217851903
0.0477761435544718
0.0494800074108573
0.0514212999210951
0.0463170745502496
0.0483428426092482
0.0485441729753419
0.049362383240035
0.0462554238085982
0.0518513062922747
0.0505579391911299
0.0471099530534232
0.0496196130913947
0.0481610605540942
0.0525107873577222
0.0617628037660057
0.0610760813049493
0.0522178643510832
0.0559868163647756
0.050030087729294
0.0506688019837661
0.0478735785186182
0.0513710885166151
0.0496944998390425
0.0530811424497573
0.0511644030533496
0.0509143301936141
0.0498367041003704
0.0492092541467342
0.0478965012559102
0.0494876664679819
0.0501521203703392
0.0475913006676335
0.0470919744935205
0.0494020471182431
0.0486173247226295
0.0481060021727734
0.0552631128957272
0.0534096939875767
0.0528143225043518
0.03952326294035
0.0686720887433128
0.0601069220981809
0.0574617876665873
0.0494986283139124
0.0528541468600594
0.0485920987781642
0.0506866508080359
0.049966360409506
0.0552001279052126
0.0507341051371319
0.053104271051481
0.0502345507197537
0.0547442253168056
0.0525300038101706
0.0479048229975106
0.0559008544450298
0.0680100996135065
0.0581169692931141
0.0582336522988442
0.0469901304412029
0.0612122037430061
0.0608338428408437
0.0535010096281074
0.05594402977037
0.0530047376607052
0.0509288447978134
0.0497415841593939
0.0510978688225808
0.0499097597637695
0.0548548618839885
0.0541311874801443
0.0541371087628009
0.0514337550207237
0.0527357009119431
0.055534757796797
0.0541426114387501
0.0600646179364774
0.0583460294650173
0.0525542766983389
0.0572551578866883
0.0551201437336022
0.052963254480972
0.0546836749913648
0.0556755341019003
0.0520586779680945
0.0594137501887918
0.06183141736722
0.0574904288212014
0.0630038607424215
0.0638470411289752
0.0560119678626106
0.0576556070434679
0.0601481295385444
0.0660795722324879
0.0465709581422926
0.0673885001241687
0.0653273059766113
0.0755751838409017
0.0665040502849906
0.060995994846022
0.0581166036415657
0.0574191062417643
0.0537766009537811
0.0583059074000528
0.0757194661967918
0.055308978891742
0.0659359940476998
0.0489812261819269
0.0684827625308834
0.0633617180311826
0.0660596798762523
0.0603064178181063
0.0625660372414341
0.0588842671849871
0.07928289367418
0.0553305132791782
0.0608744073905058
0.068294914223537
0.0813114703135165
0.0892573679133782
0.0622331391482066
0.0585380496228087
0.079644499632031
0.0663560890553127
0.0686969257177104
0.0597142153874895
0.0691403884636754
0.0561333428320942
0.0734676763005982
0.0789255469893129
0.066463793171788
0.0689247413788465
0.0687183829077759
0.0642486238289709
0.0804669954831782
0.0688332186414908
0.0688400413787728
0.0691743332858233
0.071669127603866
0.057218702913827
0.115624407489146
0.0725578176372613
0.0950755766048858
0.078445182552531
0.092390914704352
0.0767989408802138
0.0844067096425182
0.0738587421635484
0.09176787053473
0.0866794595296198
0.0861872226532984
0.0667534122777963
0.0970877781226466
0.0880624807739882
0.083672309588054
0.0887654495358367
0.0826251503737595
0.0747712355961214
0.104620794401156
0.111992478772261
0.115351327183169
0.0890658984895091
0.0953255082019439
0.108240921174954
0.0991039033678184
0.0951820851163786
0.0959191202857141
0.0941102444717717
0.0977973352921204
0.0939322155190997
0.106999160238697
0.0962842913939424
0.110118455033995
0.0960762686958089
0.108220235332822
0.103790845641556
0.142143228978209
0.129319400708347
0.113649292354076
0.131649500697942
0.128893608515736
0.123189082356468
0.112883795029446
0.113824169701969
0.120929673028758
0.119357895499201
0.124061875157506
0.113313870934203
0.139473834679216
0.12630373697921
0.145582160886494
0.134129360647919
0.140236195034381
0.12940164904381
0.12665221419624
0.240795564827706
0.157561122215047
0.172507616889294
0.142096867066925
0.177218584135972
0.197718325385297
0.183597849195173
0.178540152888658
0.183955595850969
0.180417735931219
0.193767643936528
0.193422160201621
0.205962866209866
0.214227887249198
0.218158241485277
0.206443731635479
0.233583200011159
0.260991622630749
0.290749162571874
0.256746523995265
0.251232056798767
0.262881121553372
0.279502382021108
0.267671781445805
0.287621923355329
0.270890080576801
0.301971482962866
0.330294141363042
0.310595202054591
0.310083224047942
0.316408558818763
0.351555488643642
0.310866996875308
0.375679089808676
0.354184571787982
0.376511246719783
0.347315514715011
0.377390375787762
0.372666122989583
0.378980030749954
0.402252565925197
0.411884375723319
0.399213073352177
0.409562798625532
0.40479545926492
0.41728560875282
0.429348606223858
0.431383731137776
0.415090062354959
0.448590451688778
0.426712512787535
0.580766743482727
0.45381515527139
0.460221629365781
0.436199023920432
0.463416200306652
0.458603397944893
0.460495161681521
0.484983582039358
0.455089515404421
0.454152330468085
0.457172579788564
0.447797146848918
0.448809675750638
0.451769228400977
0.470164246564482
0.429143452945417
0.478467181774664
0.429201475557749
0.51578127337791
0.476108569307178
0.465225216108179
0.446184202134662
0.450563078711829
0.435372673094372
0.455230232553571
0.426026784142011
0.45129840021801
0.459516518950743
0.438873181957712
0.44115039545824
0.434105580919749
0.443013625507947
0.436512706690819
0.416126296433064
0.428837091843851
0.401458414665093
0.425052645948427
0.391252526035261
0.430513488517564
0.444435790346763
0.412387652337263
0.406847865405513
0.399224392836202
0.398193680594561
0.395440450168861
0.387877451674854
0.399631527808899
0.386127607833589
0.390043411089848
0.390715404266614
0.380809877468222
0.380123258217428
0.370857299185483
0.376580664815647
0.38313579481541
0.379436570193406
0.378459244675406
0.377307569748216
0.377334698833053
0.374356461475592
0.379968632264566
0.374387017749603
0.381079665268229
0.380032111417372
0.378407733375873
0.375896664740754
0.378092849289083
0.376456988141776
0.371883702624608
0.368744765391815
0.372578838988344
0.369147621677089
0.373118194327304
0.364681235895502
0.369524892156233
0.367982618211899
0.36956908660016
0.367035492653862
0.368458786771889
0.363771880209415
0.373935133734415
0.345203614483045
0.44704693339551
0.371041536297684
0.367605889945637
0.35250679217094
0.365737187577779
0.35151398097037
0.342416942083929
0.38537702787017
0.356535637081492
0.348977317226537
0.345987723107373
0.33746475333232
0.358392646698165
0.341867645289645
0.327480622924103
0.342977825825539
0.301301204030977
0.380071116602245
0.327076821297186
0.384974742981121
0.36336884338644
0.343013361790119
0.311043415447665
0.34014400121016
0.337636467817239
0.313571208817812
0.325565004133413
0.295731980263884
0.356733538733043
0.313920356964284
0.317553137344325
0.308720516963543
0.302707524070438
0.329760976704448
0.332406302715991
0.302830775572248
0.319786802302155
0.32289064341767
0.309503027881596
0.337682054214391
0.361392940866645
0.318197476601171
0.284944175270406
0.295572889093495
0.278083737851026
0.281383833067174
0.325346870390429
0.273690528951998
0.297645546501087
0.269303670622692
0.28125496450513
0.267784832960616
0.287375642305679
0.264559415169025
0.271064971241551
0.296771866611265
0.247067554965994
0.285257829292624
0.249974238184518
0.301804077093093
0.282687937873357
0.267092162368448
0.234421052430825
0.285829806378818
0.277338855312488
0.252846787822592
0.269157204558264
0.236100048639179
0.246024818395077
0.256054565519414
0.231816406944192
0.254392479575648
0.23939754607228
0.243323179943876
0.27319301625484
0.260301433891575
0.276461805838456
0.233086632589648
0.22114474757284
0.226403643842792
0.222490871048243
0.237438851928906
0.207216602711075
0.280345471365896
0.226288212610098
0.216979007140244
0.263263142743538
0.232838466070254
0.232643776227302
0.232714111282616
0.226003695421319
0.233130824093805
0.246358820869746
0.278158224146623
0.242340406575402
0.26693147522132
0.265573179667961
0.254860497810437
0.258594825138908
0.254371137831871
0.265496746582592
0.263449791382351
0.285813679841346
0.275153044602859
0.281685939903695
0.293295824382181
0.280688688729604
0.318621104220528
0.330863947591167
0.292602121594088
0.360388630257631
0.312897920234334
0.403961134001546
0.338735620756939
0.347110557816969
0.350766640448888
0.355318262369251
0.369753135773268
0.358287169323378
0.376508227235123
0.415653082049365
0.373400837926632
0.405851386755906
0.381917802006637
0.415504368825446
0.383995415507013
0.448272814660035
0.373988918260477
0.489073343324034
0.434371810128757
0.445492887301587
0.424935029914101
0.419421893428167
0.431780334794558
0.429707522389646
0.429714572129646
0.431140416855211
0.434013127076918
0.467056364610057
0.431064757241527
0.452953655001858
0.43410673933252
0.45436129453689
0.445970475810208
0.45753700488827
0.4550116687551
0.471054512246293
0.468344043471436
0.467129408496066
0.443828348775689
0.562530752269415
0.471731212099117
0.499181946209029
0.472958572820624
0.502410362309914
0.490665449538082
0.495359331151363
0.517161808283419
0.517178280709143
0.502065169720608
0.519999067987791
0.514792709394168
0.520346081222551
0.517783763618709
0.558847232050446
0.511607939670771
0.55913486839628
0.508590932384177
0.590195388778383
0.562327335309171
0.556102438528035
0.559774490720604
0.55906770581841
0.553442085207906
0.540250117405912
0.552859061391858
0.559810200057088
0.5556486302795
0.564707307392999
0.570198459379999
0.561542161221819
0.568380378825037
0.567396330950979
0.557454906356138
0.580519154727065
0.55883544956465
0.569546822022995
0.550919452717783
0.557022595971692
0.547270052792212
0.58635778491915
0.560766326339792
0.564156521545177
0.556357982098644
0.56746484119245
0.561430362466068
0.567397430579514
0.547365509492163
0.571266171816604
0.555244776248223
0.575863088386115
0.547474735528166
0.578303840478386
0.590910995335757
0.57483030380979
0.568741110772049
0.571822786046949
0.573426992252183
0.575393753198512
0.57943551396205
0.579680994154837
0.579754592054982
0.58722179734559
0.595364136145063
0.584013317522033
0.588992814234079
0.591384685584041
0.59902426751871
0.601200467490473
0.577594927058345
0.58575596242062
0.573694186177296
0.574888223920892
0.580982484898929
0.574517825301442
0.559431504008556
0.563293115989423
0.556882331265701
0.551029226091552
0.570494724250865
0.53339508433012
0.557310092709903
0.532982116885207
0.533849128032469
0.530000149800854
0.527220156456487
0.518587009973975
0.519547450781654
0.522249937514934
0.506713122290824
0.507798539431095
0.501725510015674
0.510493500176261
0.498725382313483
0.505521795448779
0.500052736106493
0.498581185914495
0.495291875494022
0.499731751583574
0.492199259980452
0.493342923360724
0.502755895487182
0.490996165092934
0.508445333409653
0.495048937483753
0.509470010950918
0.49769347280358
0.501073464641967
0.497927744984313
0.490608973372858
0.496893478861396
0.493034214894975
0.498367598552421
0.486678087629085
0.496567453422184
0.489956490981092
0.496229278125857
0.487448191078924
0.495557503158644
0.488305442870047
0.497108245447389
0.490295662016069
0.492759054309095
0.480680581490773
0.492820515868329
0.478700509894255
0.49414927951858
0.483716760160533
0.492024414901365
0.491009934067193
0.489571705411448
0.487690949777634
0.492464644555507
0.493444909813318
0.49116774762663
0.485202008835042
0.488535753165537
0.489629293746806
0.492157556526217
0.486746342977805
0.489681969588037
0.487364921975841
0.491938473120197
0.475463741218006
0.480422153595254
0.47226633565743
0.47608038476073
0.466307468119333
0.468319439772874
0.460951418506479
0.454640099092003
0.452153996642382
0.450871359366581
0.442559578916287
0.445506951510692
0.439052077536634
0.43886551586118
0.434741631424957
0.431115935996304
0.430601437897305
0.428645796681591
0.422155471868241
0.424153566110993
0.425443658085036
0.426421603513242
0.419673896776505
0.417827746441924
0.418413209445976
0.419957883947026
0.419125822873289
0.419982478567195
0.418244486963238
0.42418397560573
0.425064568084635
0.424881005985486
0.424736606927067
0.424048092671802
0.428118300909242
0.427643916228782
0.431371318919778
0.431515958148358
0.432858314814356
0.438128524542778
0.441290664321535
0.444026664872088
0.443013158469184
0.441387278595216
0.441106209761989
0.450365567984183
0.449319283417385
0.45136429999375
0.448157572387993
0.448736864222206
0.449318153672803
0.451074720749878
0.44788641268185
0.448719620770603
0.441980631411108
0.447342767132163
0.44688936361307
0.445733790281747
0.438382307882463
0.443346477436454
0.442404473647123
0.440489621691677
0.437720299820662
0.436740847478516
0.433985018421701
0.43552906611111
0.435175593782185
0.430014241985829
0.426382579270876
0.425607808302725
0.423046868872619
0.426065433101158
0.422591670620558
0.419102783256154
0.418487148466829
0.422174509781797
0.415408867905959
0.417234149948888
0.415530241056266
0.413305380926333
0.411142644576749
0.412953960776126
0.412578800875161
0.409633556595456
0.407722169463693
0.407347428908766
0.406566243774761
0.403916513713574
0.399588203018634
0.402772528433858
0.396667314268218
0.39625948087167
0.392272057593338
0.391111918511193
0.388518428487694
0.382832053807371
0.384385120285246
0.376434617545905
0.377416733548335
0.378889690717644
0.370877874521363
0.369123517673094
0.365785125097012
0.363983196417545
0.363814874083201
0.36387123592812
0.361042298009124
0.358276630769485
0.360526750462735
0.358017280219007
0.356229224820407
0.356791286400556
0.356690201214673
0.354355910238108
0.351535373109779
0.35089746051744
0.343314508818587
0.342672431912312
0.342061706641812
0.33348854811626
0.330571431486857
0.32755386120151
0.321102825278254
0.319718987027378
0.316872833256861
0.318278201264427
0.315108294186505
0.31769024082774
0.321644133683875
0.324578276990136
0.330126921012135
0.335126014294584
0.342925986783036
0.351622138504886
0.362698582819581
0.377889451228831
0.391285455767147
0.407960717852226
0.423334645039625
0.439974395006832
0.455985967268644
0.471329486775481
0.493004845910225
0.508651723732877
0.52103484401583
0.535615751464115
0.55012793683495
0.572165697242106
0.581126320434899
0.597480860755895
0.605127240926762
0.626228884471337
0.639486610377899
0.652920537798783
0.66438282545006
0.682672095512375
0.68253237690001
0.690460940720811
0.7006619812871
0.711028806130588
0.718094776086135
0.725596014881782
0.735567258474132
0.736485668153103
0.73440395385089
0.744383028625115
0.743380802313799
0.746784544043589
0.744380968200496
0.745168800953769
0.747203775571677
0.747254484620092
0.75394072324665
0.751673920171403
0.749697614913279
0.759393949136931
0.759440849428224
0.761357868355296
0.768120723801783
0.772274661133178
0.782227812195551
0.794616115410702
0.792344778831088
0.796915515412311
0.792249737664704
0.807161152757795
0.811606219357387
0.825341140486636
0.837471503546403
0.835614344313475
0.847024930027078
0.853940797618417
0.883478814812709
0.891735754290873
0.89884027178178
0.914211676639841
0.927162186477764
0.928057883304688
0.934782435424944
0.93970146847768
0.955742079439196
0.958314837056344
0.969264498092116
0.970206367157956
0.969981574905122
0.958466175867187
0.95394134274822
0.968639820520148
0.96282858861939
0.943853840108092
0.95130767520299
0.949394650032791
0.940516411225044
0.960401192588947
0.965194947577054
0.966383767263287
0.986186365013482
0.999196645124259
1.01440460973408
1.04484392565458
1.03270065383551
1.05640774623811
1.08203680896963
1.11572002586479
1.11651673683512
1.13735450114877
1.14334416301099
1.16143067411478
1.1799950478122
1.18634481795436
1.19007185011826
1.2170880080201
1.23956725617342
1.25896709567206
1.29511796518379
1.31911720309291
1.33992776291014
1.33404102521624
1.37823082221025
1.39565198641734
1.44171069976573
1.47077663582379
1.4900847156267
1.52196713198834
1.50655818313733
1.48142494479133
1.5223286846743
1.57267353487237
1.60055286471528
1.57625857281957
1.63212734440446
1.55358156635571
1.59062847601133
1.668233126648
1.66860841962049
1.58017044435857
1.66351996936015
1.62871399809452
1.58689546109926
1.56176956285704
1.59651071018025
1.62946172435892
1.63510212614253
1.59164692208429
1.66555741020056
1.6309221446999
1.58716296407214
1.63382424520995
1.69718831036389
1.66827440105933
1.61956911594085
1.678140937136
1.71554292004835
1.67131064751283
1.80123717301309
1.72551411517132
1.79682836747991
1.85374307747965
1.84520673221005
1.84451517223261
1.90842487977633
1.8911191224723
1.82152810040072
1.84480045824402
1.90038556661072
1.80025058392373
1.85377012498989
1.97661024520767
1.90030343773714
1.9523040775667
2.050990644622
1.98417853635759
1.94352424481227
1.90054449397422
1.97874210957271
1.9360604332967
2.14942485690562
1.8643366410261
1.89724145559037
1.92452937504808
1.95138892040328
1.8631147077497
1.87479422439765
1.88939329386344
2.04750172061147
1.93951329299601
1.91063376000608
1.9675660513708
1.85646769890575
1.76403751239265
1.78453479809321
1.70953039531508
1.74239743583851
1.66808144806314
1.61431918917172
1.53886379548192
1.54926253152906
1.43445839771794
1.40563531537055
1.38733663461022
1.34013117587676
1.25979639226722
1.25922687888082
1.22653735309633
1.20786554615398
1.15230799773384
1.18733410254095
1.14266741687047
1.14375262906579
1.12284655730388
1.10301143355702
1.09315141282236
1.09429369010773
1.11448567533228
1.07886801303099
1.04536112339572
1.03354888495967
1.03264094856697
1.02122296139165
0.993553060222741
0.972530712586066
0.950145722873907
0.923263249656196
0.902300634262987
0.881078605632521
0.846395815626119
0.815642961403307
0.783864768337864
0.752722270926245
0.719548224753392
0.690309132611975
0.660042481570357
0.630288441837476
0.595262870213555
0.568450459282552
0.54384076968608
0.520157859057676
0.495566308522482
0.472648719408294
0.459324074592707
0.43695590425093
0.424100877908543
0.405958881078287
0.393041237146543
0.389567454113249
0.366738307117219
0.365914892556499
0.358787857501252
0.3499199840846
0.347253057639151
0.344845894636708
0.335968473672836
0.334983637448925
0.339651288997613
0.337532962833965
0.334243376282136
0.341222800499451
0.336191363972029
0.334451339731261
0.337984211884721
0.346649205500919
0.348303168056667
0.347411446513646
0.348187621417386
0.345588938867032
0.34169470388595
0.343297800469471
0.340117718766445
0.339712608428634
0.338008524444213
0.333341428481594
0.331644159993399
0.325259011327026
0.326376525904949
0.32385631121011
0.317630223033286
0.31601494074735
0.311549943392959
0.320129548123507
0.318658221729148
0.316478470984109
0.324021408228173
0.327267339814484
0.325881170337446
0.334540170040938
0.333815878700162
0.338290766423227
0.342988422192527
0.347880485103033
0.345688576724455
0.350861328540832
0.352176555634719
0.355686307554586
0.364179577977532
0.356894474190537
0.360054652275121
0.358242719960654
0.3574651970788
0.370513653256327
0.364865785855698
0.362406717158352
0.363283002652485
0.369503204174698
0.367153186784856
0.37219394781361
0.380374934396778
0.38949628933323
0.384234379749784
0.391503659750971
0.397859448805886
0.407801276609358
0.411101239823368
0.426124634469712
0.432058233211361
0.449407513363898
0.463656791972693
0.476441625495867
0.489032793850865
0.504352975526293
0.502811572605024
0.503310913533829
0.518447187323997
0.515138614432886
0.497331625955007
0.492868846073749
0.489460857082518
0.483949177960821
0.4679725601405
0.461470710403383
0.448981186575877
0.443333458843995
0.438885615347131
0.434978538890511
0.437574976741008
0.441492869691299
0.44036287425782
0.434330190311924
0.432579007087928
0.448786946367638
0.443429483896857
0.439792355642117
0.437615727337944
0.439165004418953
0.432055574214812
0.432302961056008
0.424795406165107
0.413824774412093
0.404574511279154
0.406949809495904
0.402672277714355
0.398548723641148
0.388185191595565
0.394496535510421
0.391646494594917
0.382282578569009
0.371323434985416
0.381198420649067
0.383294986884099
0.377955137014005
0.373500535132398
0.37156356223724
0.358513443886224
0.365660099796526
0.365787218584708
0.355379903814943
0.358447433959259
0.362737249118407
0.350393179544074
0.350718482866699
0.355260753776076
0.355534806515596
0.348520089822476
0.34941768990116
0.346015078164409
0.338987298505017
0.338472038442036
0.341000874711762
0.327192873027628
0.333686419293275
0.326122104602098
0.327899008099976
0.32172511011678
0.313809622257871
0.304673933557138
0.322776182565071
0.313885224528393
0.314662643430271
0.317286227691944
0.315050100114706
0.309126051178235
0.31655074033985
0.314804431819979
0.315057901825517
0.312099140480235
0.333187190805481
0.32780020438112
0.330766604962452
0.312566795890317
0.326933465407981
0.330134061943466
0.337559706823071
0.329705472107254
0.336621195481376
0.327081000063031
0.343023901436991
0.337096281439045
0.350649813970626
0.345740903574832
0.347961633258256
0.356038807208043
0.355788271948659
0.367113336755817
0.356994855561096
0.353171178902427
0.370928243851014
0.374166742675489
0.377289948782786
0.386583980106582
0.397619201324665
0.415621671139527
0.431975761687154
0.40676908837833
0.41133792908144
0.43351982276785
0.464429955961595
0.456794662266795
0.471494931255981
0.513214374678157
0.512796461997263
0.512901623060469
0.517941306319427
0.522206378292626
0.563018400670759
0.538968917793465
0.566549876711537
0.595949892473226
0.623885902664362
0.598690670502731
0.624268122828287
0.608870438245986
0.622440864013108
0.606787820457756
0.580950308407891
0.607774403537702
0.631919057635555
0.571211988168119
0.608642272878423
0.592914973552355
0.584040122466522
0.593325517019692
0.56784947744173
0.575045028132058
0.603138392452495
0.562431452769404
0.567455632026635
0.571973873916509
0.560805762202698
0.545112631494621
0.554632740614268
0.553739832120285
0.568730191370973
0.507414455350342
0.566038984844773
0.559263971686855
0.50683847712978
0.526212799521102
0.521790653406991
0.508725200254359
0.530770768400084
0.502092061458265
0.514571453187935
0.503604779289737
0.532875874222591
0.486933492288048
0.491050694966877
0.490822197486741
0.513374339251277
0.495879138769573
0.491352532797138
0.515358101197918
0.504122686861893
0.507505873193906
0.522169138147161
0.484971358405166
0.515333450463575
0.540115954526663
0.531484644992154
0.505513817734918
0.520904536824564
0.533070124447987
0.586321184939669
0.541974738655801
0.521561275438331
0.503223732949466
0.52955590300099
0.562840455310261
0.572196228629026
0.585774131124586
0.579231744610865
0.510984628247376
0.503303134520672
0.498879055470255
0.585469201702546
0.588771719676348
0.642913941810522
0.672306399075969
0.600374795683282
0.553644001180579
0.605431193948968
0.612586623183356
0.651671308290725
0.664927320023352
0.672815786476525
0.580318216296781
0.690683999116132
0.701981954255018
0.670132203782391
0.695944276418583
0.689355597122841
0.742890984213875
0.717606247325282
0.675648146266267
0.761859583657003
0.633587134019563
0.712513891812048
0.794183899618984
0.748587006842242
0.757374760398337
0.750102296993849
0.710219083601728
0.739990280244846
0.700623008704795
0.768014923457619
0.863526658767636
0.750055242502202
0.602157100133104
0.68611622770674
0.688465030257497
0.683919419018952
0.679152187972794
0.730080726608462
0.675804312920458
0.643919847429535
0.6441682789386
0.74327588248518
0.776163537586341
0.695481643505453
0.662979432079058
0.631166837476181
0.646564580922727
0.706130425063056
0.88207998922507
0.700439019904188
0.519437656225281
0.971778925929671
0.811329823207868
0.672185602122042
0.825748506226006
0.775358933262369
0.865826808571171
0.854731678017283
0.677618690590976
0.729601990905169
0.681692122684611
0.704259301856285
1.0062609527978
1.34284796955868
0.714399654945862
0.676157308543553
0.73289844223213
0.833265953216711
0.960080146933731
0.790467296204312
0.665679152139496
1.04854465670275
0.730564459145507
0.651683648049675
0.809152978961342
0.808646009892053
0.663306106344947
0.562186148837508
3.07592927818986
