3596
4000.36533379555
650.420452594757
1
2
2
0.0544286819918408
0.0639536471478229
0.0583654978458827
0.0544649938704588
0.057491272479684
0.0536212288260557
0.0618210167391845
0.0620828818286097
0.0537461110492159
0.0572906748564947
0.0612482233847857
0.0568212578073086
0.0463102359258212
0.0532987042526145
0.0622320390415201
0.055591928833727
0.0543257733331032
0.0522362461079365
0.0545016714353994
0.0590823374417736
0.0570687120960751
0.0494497961061972
0.0491737975019424
0.0565839458681712
0.0509143600577081
0.0612559121582448
0.0507147565062031
0.0582651317363426
0.0640377496306633
0.0606141661318297
0.0609828212179816
0.0535636772544294
0.0623291737407013
0.0576196745859209
0.053268097760993
0.0671137321682193
0.0579953569523171
0.0564322882868631
0.0535330693266991
0.0605598567819201
0.0594098986251437
0.0558175187602332
0.0528599332312028
0.061991419811203
0.0539376122135094
0.0594421053353682
0.0617265838106048
0.0577216083819906
0.0498285039159195
0.0598441933629238
0.0640788570448568
0.0443034128744938
0.0603269135617369
0.0719312652639741
0.0562013508075676
0.0692142209798744
0.0553654377883171
0.059271867852092
0.062741050137422
0.0571095516503726
0.0585789768209862
0.0693791284298996
0.0511685962261391
0.0566905679906208
0.0462446155029883
0.0576214664136976
0.0505919553981065
0.0528356802608163
0.0458546783396372
0.0641913718766987
0.0417419138544561
0.0654704896161518
0.0673805222796278
0.0585009695105187
0.0642155906151703
0.0564272389764641
0.0531580848156037
0.0532818158891122
0.0464759350326937
0.0734283370579188
0.0653932620556508
0.0568435501888671
0.060436067645527
0.0516911920185986
0.049471392202439
0.0710743255039939
0.0486763416455867
0.0499606803905304
0.0674623888339124
0.0658377472348473
0.0614744496719832
0.056559405752384
0.0494556062215861
0.0559501209334243
0.050662983304731
0.04448799417034
0.0505479720493332
0.0602792311531809
0.0449178366581304
0.0585947576569761
0.0593286180218692
0.0485188116947093
0.0902770620816031
0.030823962738282
0.100920920035787
0.0657415510689102
0.0294584346799287
0.099631537551133
0.0546965281761802
0.0567086952678999
0.0479807479018905
0.0601985702449832
0.0476733798302003
0.0686149708698788
0.0382036037442617
0.0674843294535762
0.0794589093627043
0.0588012395826611
0.0520575482514445
0.0545486291670597
0.0332669077455804
0.0675691507769425
0.0858589187950195
0.0507804567885754
0.0575339192938176
0.0576245803354504
0.0406291486560291
0.0796363989461839
0.086012329628994
0.058665320914103
0.0553660978553928
0.0450293871124983
0.0500869692256578
0.0346186159744404
0.0885885503205646
0.0569388267375368
0.0565348600140443
0.0346570481452438
0.0502783074965964
0.0963621203055249
0.0757010960958809
0.0536395810350529
0.0374047974743297
0.0305504984214859
0.0789867955073625
0.049008889441229
0.0369377787739108
0.0511678927736862
0.0700414993579614
0.0525991801220753
0.0570954003266744
0.0390032957482107
0.0719822723422883
0.0612159326688038
-0.00507541434178187
0.080241985725088
0.125636670901038
0.0412169393403662
0.122593468975869
0.0438166993947138
0.0659840024347814
0.0505915080385018
0.0568138603086106
0.043696972296144
0.0595160978200353
0.0348084406126778
0.0643161170192482
0.0775213130552603
0.055772051371446
0.0491137136540839
0.0768687574227822
0.0521192770373542
0.0256203906436192
0.0992129984746019
0.0679824107686192
0.0310087890746053
0.0747427870268974
0.0641512020014366
0.0526542354295588
0.0544799952985099
0.0826339290866217
0.0450672913538138
0.0577193112630698
0.0423235432317424
0.0527212034075213
0.0589018555703968
0.0623387194034087
0.0449160870306197
0.0515326768421608
0.0275057452837943
0.0535475947908221
0.0738677078553691
0.0842775114791995
0.052744057296629
0.062872887261011
0.0082318454833802
0.0843507044713707
0.0893746646335726
0.0565102592518764
0.0468328253310622
0.0524962940317269
0.0418188358977874
0.0560656747347699
0.0509829315907691
0.0487746489980123
0.010060441797237
0.0900508638613297
0.0566793442915887
0.053290787637835
0.0506851172092108
0.0455901353905819
0.040947945335392
0.0965006260213552
0.0827373859748516
0.0568475616830654
0.0525918314725728
0.0388770367962288
0.0549731002175135
0.0724550455246247
0.0521725549777847
0.0556769991156953
0.0458209569933181
0.0564739128794602
0.0494024859950205
0.0526909776832667
0.0417656214521352
0.0522771947531983
0.051372859446078
0.0513994709806207
0.0435303957968161
0.0585820605743982
0.0555550173558525
0.0492858364730967
0.0444911958832502
0.0462183445223763
0.0461679252143794
0.0693930830482705
0.0507615025801034
0.0656657116005794
0.0499783594487889
0.0544746662682044
0.0431938987280064
0.057545950826764
0.0442004454857824
0.0521767175589197
0.030664903931314
0.0938075687030883
0.0630709448247165
0.0532054117782829
0.0398169045720344
0.0638767411864108
0.0714009706780538
0.0538438840183164
0.047828225066407
0.0446934583866968
0.0415762565840321
0.035343287923927
0.0713187987594424
0.0521626848538013
0.0429762526544003
0.0676338755562181
0.0643925676288799
0.0443375441083146
0.0405212200911111
0.0124509306156765
0.114277372962838
0.0564347284434132
0.0272614167185266
0.103350337726151
0.0686520558486329
0.0611851962394882
0.0584209655227781
0.00257356954665441
0.163452273909683
0.105268603882213
0.0504334631860554
0.0511051865599901
0.071410511917387
0.0515319464717815
0.0502651720200302
0.0607389499983067
0.0443815242861308
0.0816235282529205
0.0624622721710264
0.116273329198
0.0393706453519026
0.0731486046609248
0.0889890030029645
0.0547051015927529
0.0535068765513232
0.045114066236324
0.0423057297861906
0.0608232002917282
0.0702571655783499
0.0595750348731279
0.0623823061970442
0.0407084712062764
0.0851598293511737
0.0676157992125777
0.0470057354655924
0.0507470953980715
0.066796608315243
0.0489760384344678
0.0517338158738807
0.0519453970018549
0.0632757826918571
0.0472366411648633
0.0299340525151052
0.0994060795299065
0.0678806357966673
0.0522960436493491
0.0851410190055879
0.0620855474082152
0.057170995907049
0.0512328168676515
0.0526405736738183
0.0496764027512665
0.0534003342003465
0.0420632748031736
0.0782667480643292
0.0678708687476935
0.055353610839406
0.0618071420540258
0.0456060165241277
0.0565571997346764
0.0500576676761266
0.0598493976875459
0.0588541999118413
0.0570089898396825
0.0483920907508724
0.0721489551998286
0.0832220324350917
0.0321584520019636
0.0797800214380774
0.103702022390709
0.0496803913179971
0.067885656189752
0.0504600852286086
0.0625636512751222
0.0541201498459134
0.0662831284760508
0.0596490900534932
0.0574842969244146
0.0601887272761574
0.0718426572878648
0.0550008632975972
0.0478174827805232
0.0897925883762322
0.12991649421119
0.0789854638748192
0.0689440817341437
0.0436344541479738
0.0746311268182095
0.10183392092247
0.0774629787348073
0.0994540815046758
0.0603296265655285
0.0732028743978086
0.0667832921927348
0.0706084640238337
0.0621427555215827
0.0762982589281241
0.0653650400943295
0.0718483998770239
0.0776545878939647
0.0730414071146161
0.063704299115572
0.0629915621746862
0.111823568877257
0.0918648407359273
0.0759354289095964
0.0773502878781918
0.0659454746319691
0.0852309372891122
0.109878121755424
0.0939809255348709
0.116324168412964
0.0819219662515049
0.128310216416531
0.0855528906746078
0.0952918710857281
0.077464374810953
0.0978012400241238
0.0928851927304316
0.0983955615744709
0.0929724406116345
0.099333295898408
0.0850539742748631
0.111429822211242
0.0951696640634679
0.102608595610731
0.0916086738030268
0.124054690464463
0.108549012444414
0.109958078652329
0.0993788351910574
0.114406429365248
0.136843844272202
0.136389579142308
0.121890194739597
0.110174364985695
0.133693890980678
0.114092322392166
0.124303681476141
0.120520730350958
0.128394469630306
0.126457564045812
0.134975066399481
0.145626463231523
0.13616488064439
0.147503439122707
0.121732280796517
0.148893674949846
0.145913668626547
0.138482558047149
0.162907668326833
0.146474847712356
0.127623412765962
0.164108192644648
0.161328758746888
0.138165572433936
0.170274703093536
0.143053125994586
0.152830895002561
0.154101212616941
0.164127538432288
0.158742977404141
0.153265126380551
0.163090607895965
0.161013869464018
0.166531586721949
0.171031791979829
0.166861809877929
0.178261711164155
0.180902841619772
0.167292367999329
0.189710747559025
0.179936180135125
0.179810983512991
0.169656356536414
0.19714213497278
0.202471551847803
0.186199425377583
0.209835725921711
0.19922271726476
0.197570997279808
0.205308402038133
0.195232241239028
0.199674221393016
0.204348540805435
0.201223691718728
0.18758548028478
0.210399044688917
0.216421994170348
0.220108397078315
0.214425259751487
0.23003751802521
0.217381830071906
0.216095473343973
0.217346429619276
0.222112290171442
0.234151010455636
0.246812890680157
0.259932939870308
0.268181143832095
0.276582877721769
0.239862054997647
0.244152439785232
0.248949239534294
0.246148511855466
0.260313371828606
0.26988294640757
0.257316748585314
0.266963384244409
0.266224953592101
0.25689963756372
0.278068317155383
0.281660247156974
0.297623401546672
0.281716003745454
0.299071577250824
0.277147683324036
0.297497924044788
0.299266786761394
0.291390499480484
0.300889945918911
0.308691167714864
0.31721838390741
0.318782514609513
0.30614906602825
0.310468590943747
0.310219214449262
0.327402574633951
0.327405037985332
0.325256436361154
0.323723720105007
0.355263320781255
0.341904494348853
0.346149452452349
0.355250686500766
0.359316966036357
0.342924681161784
0.345998993762554
0.35803514403243
0.354799033841093
0.363091592129587
0.379033782192687
0.391528604019057
0.383430566531694
0.356287443194566
0.377641023985065
0.393592942993128
0.399111660529798
0.388541568281872
0.384384290454847
0.399553060114448
0.407677979998452
0.406484371365694
0.408264600765264
0.388783695028512
0.398312355442391
0.400438365892291
0.416274370367109
0.41197331826506
0.41923532354515
0.442256864043727
0.438608033899702
0.438795787271198
0.448654246933392
0.439770581099688
0.433667358531861
0.43132268973245
0.458019601108377
0.489566387504355
0.470617360631498
0.462242779238005
0.472524683364177
0.465946525024248
0.487556592297755
0.472536794655452
0.478485770616004
0.474355833566638
0.474808732756105
0.486607883954515
0.492286278345441
0.476139272760924
0.491518662228667
0.489451810447703
0.511950947678411
0.511316232303776
0.521735632870334
0.507337855644327
0.50919072194981
0.539358689125952
0.543031313629395
0.529330936865935
0.558444751166951
0.550704915640802
0.560464244451139
0.554319178742062
0.556309354034927
0.555378643206631
0.541975945144862
0.545548291408325
0.542649057209754
0.530206603166405
0.570857074249782
0.560939002373745
0.557304332700568
0.593383585696845
0.621451216189091
0.581429707277598
0.593981716269981
0.625793656430586
0.605406680970439
0.579606899726776
0.619949688333018
0.628770025680645
0.607290769947435
0.623740998078822
0.637534529446477
0.638699581926157
0.626486944765108
0.654800737152858
0.654815897062324
0.618895020975301
0.626212803377217
0.645875018794147
0.665876007157104
0.653482939198406
0.650634729048584
0.645579696092964
0.675089685781813
0.647356608818182
0.664370706415502
0.665857156161125
0.66739776812058
0.700434190078877
0.710740640199607
0.684591226886138
0.687132964215487
0.683963488705097
0.67495341603383
0.696067666385581
0.728339887036385
0.682900683148997
0.680711595552168
0.724257180730268
0.720346924138542
0.70159738839782
0.693740242926609
0.724768203946537
0.770984000861181
0.728152178455189
0.730493002648411
0.744877531229151
0.768079400457322
0.751319795222558
0.749607895008417
0.742779831407096
0.746741388464586
0.758844505508625
0.77616210418664
0.772386901002542
0.790080298824339
0.751994597760914
0.770531386525022
0.778514739472827
0.764489692293967
0.792108526863609
0.779794023418393
0.749928098998973
0.757308856017561
0.770750294543923
0.77818174178654
0.759361065157079
0.780425130624443
0.808771316399927
0.799578874134444
0.791433953251494
0.800598150956976
0.77232174097261
0.834938838592989
0.850234296730599
0.857919552964669
0.808804606310842
0.79764520937184
0.801477156523518
0.827108723638051
0.815249313911831
0.808109781235493
0.842432901478644
0.832908389264099
0.824294325155437
0.87789306397884
0.863120781229296
0.84880205656369
0.820955571345774
0.864535654182719
0.852819585525061
0.869382270306936
0.873512619384036
0.85043751630053
0.869382406184285
0.898928423645099
0.869561023562366
0.86267374757554
0.859190821882038
0.87807640124772
0.893827253335282
0.902826612114852
0.891097237505297
0.870377502671642
0.864679535949978
0.887530071889107
0.880096033523589
0.874913990142047
0.85462887947406
0.890977211806706
0.900796734779065
0.874776691835976
0.920044258299011
0.912532637185953
0.890387228057961
0.922783839029248
0.912186761000263
0.905196140285327
0.93234237722206
0.937686002308456
0.888653377579747
0.902344673051857
0.896592493590186
0.935901167362443
0.908291507227209
0.938582309575143
0.9041754059719
0.885572824933475
0.911579048303537
0.937735408157018
0.886338160487393
0.91356591113516
0.929286368358436
0.935589549708173
0.91108174032321
0.92591404757209
0.937911780181636
0.938163927720568
0.929313475079844
0.931830673839532
0.875332669218658
0.931264019873041
0.949778737722864
0.919611732940144
0.949804751577449
0.952409684406162
0.948665838181498
0.979002772993272
0.972604245949122
0.932442099416013
0.941463158871917
0.970527405017051
0.907872650701029
0.92966417200822
0.909594087426218
0.919905048317015
0.944930228039619
0.969419664576565
0.954188122132412
0.96158497768464
0.935645356395421
0.930859852475457
0.929661147811171
0.956718405462435
0.925889250252039
0.95018228768507
0.964946155015351
0.912174011591859
0.910356067725089
0.991619374987909
0.952288732097356
0.921211656353316
0.907106123352982
0.9425696033255
0.929745910626745
0.923743778329451
0.947967079207861
0.952587430476909
0.934058574285708
0.968148598355695
0.930828154489008
0.929578199255001
0.964769419679595
0.961506820295313
0.910386413705036
0.913869396938738
0.914323666509019
0.980364940406901
0.947068377844369
0.952073442480293
0.967459323192164
0.947849856258822
0.91995290201998
0.94252293433553
0.948341227859908
0.965558013235101
0.933486097445881
0.92085611461216
0.941499756802221
0.933442558015455
0.907073795742784
0.934476523922722
0.918912257385947
0.9310486154215
0.93492128439708
0.937373060553561
0.951447100908955
0.92461370799617
0.885146054858728
0.94838816688331
0.909759541421448
0.884112039072002
0.910683811677915
0.939732417812294
0.916845369100152
0.968869382588328
0.941634917852494
0.917758928568538
0.912063113331442
0.914792512405559
0.874128723482881
0.91968857058863
0.942976249494566
0.907331931588153
0.911726780352836
0.902716556381274
0.880349598859596
0.925692735689708
0.929132322609749
0.946749904072225
0.894471648391295
0.937925821151345
0.916236258269672
0.867608823928607
0.851808142654916
0.903124063718488
0.891479343266066
0.906284717521135
0.87382472199057
0.876342710698428
0.851826110679555
0.905498706271053
0.879795602179567
0.895837671094005
0.885854675368897
0.860689131953246
0.88722879794606
0.880047687482802
0.853180118957734
0.896741168094213
0.873064104583131
0.866232309717838
0.838267511299752
0.870327847475325
0.870397826836041
0.884371886096754
0.857991021222599
0.860883264979906
0.866738248271111
0.851077463348186
0.833336334085386
0.869669320907886
0.853761438584267
0.872074944338899
0.813344815991562
0.830480331167659
0.826296982788181
0.830383589605858
0.857154539080246
0.854249858326584
0.827046059143039
0.833998831751893
0.816849302598707
0.808694947882685
0.798401463652661
0.836911830350312
0.799570967068819
0.803497802647317
0.834930871087292
0.849586149320084
0.798999524741748
0.810536399041671
0.791551559463726
0.808492678145866
0.787062378234512
0.801263903031323
0.800405835879549
0.783364010283033
0.769262600427199
0.783071045608364
0.775949336875929
0.766640497792645
0.752739437846027
0.773477414426156
0.761945943450607
0.768524771738776
0.745780156999338
0.769039739181279
0.768595540910634
0.760364890020462
0.72739877083042
0.737393764328377
0.729810455756306
0.751694038250569
0.739184409695505
0.730649004671183
0.750513374638718
0.763195164383562
0.719330916287362
0.73641189137389
0.739958775520898
0.733731315354945
0.682113783828501
0.728846387975575
0.707405004287861
0.708796751331594
0.696997728703425
0.709955713897169
0.689342230385162
0.708260512906629
0.696828080854845
0.681657806170105
0.697073849008753
0.702348386012364
0.685284533973568
0.688781359439794
0.675478670918344
0.689230048271313
0.66983646247741
0.679195899381645
0.670936489588158
0.664438575962815
0.645166845335045
0.662125512141963
0.651964123392056
0.643082033112553
0.644984875662402
0.655936781405462
0.63086791143031
0.645381670133961
0.653634436488912
0.644215954294756
0.618498666083055
0.629162466942686
0.608805086387352
0.616488116570685
0.619068315144134
0.629671585652437
0.613140851470313
0.623993458108005
0.611532406619667
0.605812803813042
0.589368850099339
0.612272546494393
0.585521566062483
0.599484054144483
0.584628873306022
0.588520460074222
0.586317033438658
0.585491919554267
0.567297377792942
0.588261247624874
0.577541873353862
0.575195408121925
0.55000569893131
0.553385049786895
0.552484868623011
0.567451947424295
0.551698882936821
0.566861793262435
0.54993086092536
0.552430309077763
0.532457228527203
0.543967467674502
0.552385472806113
0.543147540491652
0.530430783522007
0.531878581259127
0.525177313263937
0.53613743542254
0.526441052184204
0.529004086182322
0.506375133182291
0.526520906998399
0.50850044984143
0.509764187516537
0.503796005146804
0.513611651423563
0.508584214224757
0.504751196983502
0.49867371318393
0.506608324245713
0.492943472288495
0.496382120415271
0.486085383802022
0.4993381559961
0.489180891529339
0.499595624787546
0.484019368920776
0.478564588388823
0.465357751031738
0.481019885074647
0.470325205598236
0.482293726704975
0.464799209104819
0.466397505801899
0.462255474710729
0.458614360016351
0.458753049552517
0.474578843992838
0.440953347156234
0.453690339219144
0.442045657035817
0.454687780975919
0.443736089131409
0.441604956272823
0.432842838496318
0.441626596298236
0.429162754252112
0.441645716213118
0.425984928830152
0.436863779326207
0.426274024659966
0.430325324147125
0.419828147876972
0.430528524929107
0.419134481640586
0.434126417310868
0.409510150256606
0.420449093963664
0.408535017540668
0.408818645155804
0.395284600773295
0.407712670657741
0.399195596871911
0.41363741098916
0.400911238346273
0.399799956573949
0.389840337228904
0.400267355754955
0.395279092755134
0.397849131952937
0.386788455349214
0.390271645364375
0.382705138256467
0.380469921660648
0.374344596932396
0.374503602539171
0.365556820904193
0.381237858842474
0.373375444771231
0.374998897186761
0.361725211181921
0.3675589398573
0.367392360604014
0.36882880744904
0.355677015909187
0.363673733427597
0.348234305011267
0.35930051571044
0.355482577469816
0.353080391637243
0.350059908111983
0.349244150488024
0.340726062114368
0.345680394097738
0.336724983563245
0.337521926469132
0.334043057462632
0.344486919220466
0.338144137718209
0.332249668529213
0.327850296475999
0.337726234660787
0.323916411611803
0.32435665099111
0.315456298232795
0.322719582569634
0.316051990633836
0.323150609850075
0.314805201610184
0.320930725900013
0.317151957793261
0.313332570585547
0.310501644721347
0.310468766268849
0.301777534114595
0.30644022655889
0.302311817103524
0.314984395605813
0.300603538153433
0.303593083685583
0.298430313585384
0.305911691750443
0.29932492437292
0.305938221528701
0.295315111203691
0.297571948089309
0.29302756654577
0.299495849619747
0.294398296514935
0.301537929198656
0.282896508043263
0.291201827704432
0.281913516726837
0.290468093908019
0.282661502987029
0.296571357977579
0.283085392475404
0.287323598745527
0.280361868158222
0.29117518080646
0.283148948786235
0.293714990048223
0.286969574966275
0.29497029501127
0.289319230711742
0.298436475060653
0.284052188617406
0.288930623684236
0.28178941032121
0.296321505039758
0.286605135205113
0.296072057376823
0.291965608269623
0.296431981576573
0.294596766628643
0.30844546080891
0.294491779357916
0.300271356729259
0.296593535408976
0.306162827613976
0.306229060191809
0.30892895431066
0.301704139715347
0.309842695288286
0.304719614699068
0.31733661526143
0.303866103317096
0.319229022879902
0.310375541851262
0.321220580547524
0.309014422076152
0.32240484112129
0.320152180321862
0.325912357163008
0.317149772320422
0.333394041874094
0.324796171199463
0.3324976536207
0.327991414777888
0.334936316478621
0.338575302850618
0.340499792050064
0.337458174962799
0.353984014210219
0.343354432791861
0.3531278022192
0.348255917089594
0.35646026096346
0.344483613466962
0.360074051690231
0.358574549685435
0.369004955123024
0.365611684154832
0.37460891264632
0.363159043637334
0.374452448898523
0.375416079236891
0.385046623294743
0.37061740475874
0.395048623588509
0.391487882909229
0.393707374673848
0.387518215491362
0.39662694391323
0.397573350549269
0.406195807185998
0.399412537434748
0.401841618604811
0.396386325558376
0.410965263338323
0.39820987462403
0.40451744154126
0.407075928594796
0.414567419546176
0.398898874601891
0.409154605222032
0.409910529942364
0.410866650167735
0.401615131499195
0.408494345217841
0.393072671718616
0.40495262428517
0.398339424384805
0.401473586757005
0.399872446020928
0.402139136991491
0.404291816229395
0.40577329540759
0.398099966619365
0.40712772138998
0.406488751301524
0.406155153091226
0.390924259945795
0.394285112680318
0.397869121705481
0.40727209395464
0.397873420428437
0.414790804775013
0.397303950355515
0.403458234800326
0.398335234990941
0.401249201270922
0.40360921699237
0.410224504728789
0.402766820290169
0.403374154482661
0.395036741579616
0.402983853967812
0.398138116942622
0.409711458888355
0.402166287629663
0.403463440869368
0.403513625652293
0.409062567116697
0.40175241187384
0.41405269865171
0.399591082193736
0.404144380171387
0.39377633718238
0.410156657191656
0.395103776301706
0.398708707987053
0.400282145062336
0.397778668687268
0.403622205993059
0.399885141537979
0.393981186822624
0.396973878354866
0.384621954043366
0.399445402976687
0.386762636597564
0.393007718954135
0.38441064679114
0.390041375683293
0.380071615060133
0.384235613370794
0.370982067065216
0.377138452457205
0.369820435272093
0.363539966189994
0.364559593379894
0.370122679529
0.359648020336562
0.358528214507318
0.344407485706543
0.350085029751458
0.345182542853539
0.351133540917038
0.341532957021366
0.341294972897978
0.328696130397653
0.341274021108078
0.323577183558278
0.337262551580422
0.320855010799213
0.328577028675589
0.321776772674405
0.32629048466192
0.305466219344589
0.326465069222256
0.314512719894796
0.314840864620233
0.300144772505304
0.313654110303704
0.301366694800281
0.305350926278736
0.303606236533605
0.301226871957512
0.289354972023133
0.298009058404554
0.291697240586738
0.288713867220816
0.280209229087304
0.289601090845066
0.28115849218556
0.287429565758223
0.275355422299937
0.281445261615115
0.277476521472483
0.277286205024368
0.273451306959047
0.2785331172682
0.265881797340765
0.276571706507943
0.260459023055485
0.273309104415209
0.263780610941375
0.269585938986034
0.260501993115798
0.269526704145704
0.255635724823054
0.262933414415815
0.257455253246957
0.259027534076095
0.255034671248502
0.254171992696905
0.246348151739962
0.254030978616832
0.246708815364518
0.252598842932705
0.246234574944309
0.249489203385763
0.234822999134631
0.248478067628619
0.241547479413937
0.246902599396771
0.240472908806763
0.243846163429328
0.237319871981507
0.243048650249537
0.234382524882409
0.238357455685625
0.231729027329367
0.237028881411963
0.22511175179406
0.233649247874579
0.224978357328594
0.23446226333208
0.228000309715929
0.232139782227121
0.224112212991322
0.225566102011006
0.224836845313193
0.227866561186035
0.223331295973359
0.225467547386881
0.222389126119677
0.226188268503753
0.216700362682789
0.228407994279825
0.221538692479989
0.223186208975639
0.21293686417274
0.222033599930389
0.21141644357481
0.216824649467492
0.212984084947098
0.216883269946025
0.208487567047597
0.218506001187881
0.209682596380584
0.222440220839688
0.216011254893783
0.214392918792767
0.204106284094972
0.215022866523992
0.206075453270043
0.208241458388693
0.207945046302068
0.207547927465407
0.205453489539343
0.209557547215701
0.199318918144084
0.209697830040956
0.202899740245296
0.20414602288005
0.202143160055079
0.204071670945238
0.196759610289582
0.205990727712809
0.200479207181376
0.202810085265303
0.198410163398644
0.201997182817495
0.19627179819618
0.205008137770648
0.191185469853379
0.201609383888977
0.192229055842884
0.197790017221511
0.192863534117008
0.198959872852016
0.195258577426082
0.200574424022711
0.196868831782207
0.194655697770601
0.194381482239216
0.195040583980216
0.191896222400524
0.198895264116995
0.187055327154276
0.192874065411032
0.192910944298301
0.196443697229094
0.197095821116645
0.194665472537522
0.189345604455044
0.191719737198288
0.186898334207304
0.191202194052886
0.18267857393639
0.194471163679775
0.186951503322096
0.194026816925893
0.186148282422325
0.18926088670397
0.181783260378879
0.192445835018785
0.185413387081087
0.188094962258475
0.183821749976764
0.188494871333512
0.185282859820618
0.186622529995614
0.187677208543422
0.186788550701379
0.176155704885907
0.18095069413042
0.178969859445545
0.182137055465906
0.177836174342263
0.181479472346585
0.175389981295709
0.184196239913755
0.173586371878105
0.179387986976329
0.179584371233368
0.182187647740321
0.173205347563841
0.17798654917875
0.176695471160126
0.179387254386243
0.178571227814287
0.17595582459563
0.171289208152317
0.176884779263412
0.170697993916032
0.169864600767513
0.170204978004913
0.173344761344959
0.172599949106618
0.168229718592684
0.16279888168148
0.172215767758611
0.167130504305658
0.168821441293982
0.164065261925482
0.169467048466695
0.15987085128649
0.165596120561109
0.160635095400806
0.167986349346806
0.162470900113751
0.166724921805674
0.159448120874522
0.166667972303523
0.15853254969507
0.161205056266757
0.158697164365422
0.164347751409379
0.15636113670225
0.161985628159212
0.155165371611891
0.161481188951768
0.151178361495978
0.156474362528887
0.156882147214287
0.156476252523715
0.15497793697971
0.153805878704061
0.152420409222233
0.153760308636203
0.151456782598978
0.154589855780522
0.147962758952571
0.152507005381712
0.150975495093447
0.150367393247028
0.148291711245692
0.153284395658384
0.146671477211875
0.148893581546584
0.144040905720697
0.151327899109185
0.140941375498968
0.140880795170633
0.143877290706013
0.142504155737087
0.136645984907164
0.14285446364628
0.138183437726159
0.144197773305379
0.135582826189018
0.142607968489524
0.133664682329095
0.139268117890132
0.13454829017617
0.137185429594224
0.129418045232065
0.132999434384959
0.133343555254832
0.135989551715551
0.130775722785543
0.135328534790497
0.126386240782808
0.135233347416926
0.12916488645652
0.13013344354533
0.127485082142313
0.131991102047218
0.121490528768991
0.133224323473019
0.123519688101062
0.124761430785714
0.127653973925164
0.127208726156323
0.128275718022197
0.123920075420239
0.122393039206714
0.125990628858611
0.12413260914108
0.123725776796236
0.120580833374705
0.125991526987977
0.118806017918861
0.124096192801101
0.119649792066993
0.122837107069614
0.114932625244837
0.124742169298368
0.118527533907584
0.119817984144244
0.118014190768431
0.120021386006504
0.11725905689209
0.119520223434697
0.11802110472758
0.121621852731276
0.111051403485146
0.115931742552897
0.113938980140534
0.11605948486836
0.11595190785155
0.116928925698422
0.109412035272474
0.114940802275985
0.10707109089205
0.116337745143226
0.112172425532183
0.113593414377741
0.107737547483385
0.112404465954913
0.109036455860786
0.115345430911468
0.10936485921149
0.109503167746153
0.108098469003755
0.111784197441552
0.106761578187282
0.10992447390586
0.10753542881359
0.11058036611746
0.106948165011991
0.108637415550652
0.106176147951252
0.109647987117775
0.0992574632927668
0.106377792111174
0.105250896010664
0.107252722593952
0.102466127326472
0.104019895204725
0.100755625418822
0.108945555365126
0.105369698918564
0.105881474165278
0.103689311592974
0.106356818253197
0.100470141371873
0.106909936964759
0.103693271172511
0.105496658492382
0.100404182473951
0.102827730580374
0.102278515371405
0.105237712413573
0.102864515327324
0.102217297453359
0.0981236776255542
0.103789790372911
0.101009056885916
0.102755302481823
0.0985120488929138
0.102390741594943
0.0999495577984166
0.101111131867047
0.099367094071254
0.101773383592298
0.096876891799146
0.100158635443827
0.0992569262578206
0.0995394186835892
0.0996544306996952
0.0971821645699134
0.0973150695014514
0.102349460170662
0.0940516222745271
0.102135531673894
0.0962780293186098
0.0964444819366608
0.0946577066424752
0.0980701770019512
0.0982796892107248
0.0950675612537605
0.095252124507995
0.0969753726633485
0.0919826202463798
0.0968601616766893
0.092901910775382
0.0948701187252014
0.0921357427835188
0.093053698654431
0.0908794854419482
0.095704282774283
0.0919456158856201
0.0943241244092792
0.0914599989542448
0.0961417373227814
0.0908700845925435
0.0936839283289961
0.090458723186866
0.0926966421455055
0.0937737326743517
0.0922361939179065
0.0918539534480446
0.0909927765791641
0.0889402533279077
0.0926029074823533
0.0894445960757098
0.0927471625579075
0.0887188737012654
0.0951912163338194
0.088457367796308
0.0961367508599172
0.0887793779295306
0.0940512835248621
0.0884231882132629
0.0940257788280675
0.0885465033019883
0.0881331615831626
0.0859144672035493
0.0871760207337957
0.085652443446534
0.086688410730356
0.0862544366389133
0.0895976267155084
0.0863947353884742
0.0860789807440807
0.0845178185495333
0.0871275729105127
0.0782583980190643
0.0839707270275993
0.0817334761239163
0.0878508809496189
0.0807320767494435
0.0824139720125766
0.0825313147722329
0.0837182598466744
0.0799543005316498
0.0832821683146255
0.0848612313563144
0.0827942928521349
0.0772248039861067
0.0811007954119238
0.0775869974883519
0.079745750079434
0.0778199215705478
0.0805537424770849
0.0782339229131064
0.0807949399568507
0.0770730244423972
0.0801358282029579
0.080771552107683
0.0757445289283194
0.0747007588095588
0.0812414339438302
0.0776378932071126
0.0739433142045844
0.0757213752972209
0.0792959229733551
0.071356500717947
0.0773306693333399
0.0724095558241257
0.0743932038368392
0.0732739146030966
0.0780982065696329
0.0728452860992008
0.0749220699175625
0.0722269354396441
0.0756283323293753
0.0705188018873933
0.0732157733006091
0.071876435221447
0.07405445875675
0.0753176438178723
0.0750429733078163
0.0715454636620165
0.0733322030247172
0.0692183142934924
0.0735542045344923
0.0689246034842256
0.0716806785914648
0.0705293874997109
0.0706829858634243
0.0669102121401656
0.0718727961449754
0.0686150200386837
0.0692561834025068
0.0642597463623687
0.0696098551347989
0.0697066506047534
0.06872778030441
0.0674861683397373
0.0665797367792242
0.0656015559395285
0.0677811960971754
0.0638635106244897
0.066467075591317
0.0667549626337431
0.0651013625163064
0.0618429995289895
0.0666588436079441
0.0612230572884228
0.065021546262736
0.0639947502285208
0.0672167723565782
0.0646128777875585
0.0623834608006925
0.0599947991386395
0.0624439441988443
0.061749465815219
0.0635841080401524
0.0617870291488211
0.0623094279377403
0.0634400193488629
0.0645759812851663
0.0599463635178911
0.0597117432052162
0.0616524154185149
0.0628886395158145
0.0628924343575644
0.0638950753939043
0.0599240834662543
0.062826937873431
0.0601898074783392
0.0586780048198957
0.0571136531722338
0.0601751970935864
0.0576914767875366
0.0619557731360265
0.0597801139751612
0.0628785130182399
0.0577312679626646
0.0585788427888742
0.059041450863721
0.0602994547695467
0.0601097240834465
0.0651494845045511
0.0625093885233995
0.061279935094559
0.0616329009022114
0.0599073496939938
0.0608348617720596
0.0587711484898352
0.0595159215345845
0.0604184541485254
0.056442892675162
0.0555981728123797
0.0530943592070844
0.0597961896669253
0.0634593922801003
0.0604783172953039
0.0536015453902266
0.0533724866300309
0.0593351119164929
0.0575658848728298
0.0550227248559037
0.0593508962004887
0.0570113026927308
0.0594399059210897
0.0611477984257662
0.0604227483756473
0.058151716364534
0.0604041170460592
0.0532164192911052
0.055471762666282
0.0542261019860512
0.0544218091546506
0.0616921341857409
0.0570124932602438
0.0555757338727996
0.0530434561059202
0.0629804509514863
0.0528654934970082
0.0585574018097967
0.0575009695681757
0.0596501752976751
0.0545496106417933
0.0592908925358882
0.058498250852203
0.0611018709652924
0.0546421010871898
0.0581661772025741
0.0501794374969045
0.061611853443058
0.0510927040659485
0.0586005614608396
0.0521040306493618
0.0664841968550627
0.0551427509038421
0.062874366346765
0.0464308492944988
0.0575357023079946
0.0529713895106204
0.0657689229785175
0.0524662023752442
0.0544125104600572
0.0504597607022856
0.0597641248903241
0.0575699659306027
0.0503313850749889
0.0583840498355965
0.0530911226473317
0.0647501479299853
0.0450085006090396
0.0691381669623085
0.0466550818366889
0.0645121778962996
0.0416060209198718
0.0666738243971058
0.0483407256977764
0.064310159630247
0.0503151640871608
0.0556362721724326
0.0515570516985557
0.0548254132396032
0.0543548238786778
0.0529368469237583
0.0531425814117851
0.0503283988053288
0.05369398318795
0.0534863865206102
0.0493536754491796
0.0546285948110166
0.0515226758438375
0.0545840587263795
0.0458654518382962
0.05449791548233
0.0485023895136156
0.051413345623804
0.0501207971500572
0.0519874546015162
0.0490506530203044
0.050086363730653
0.0489912974579718
0.052129160169856
0.0483693930904224
0.0513433824881418
0.0494599392832428
0.0496867242402159
0.048881732911423
0.0512692032025306
0.0501002954315651
0.0509521611077095
0.047891722477397
0.0516355372496191
0.0494316348666545
0.0527211367821224
0.049480454900433
0.0514600791939488
0.0477795273027341
0.0512501757392025
0.0499843399143762
0.0530357243224389
0.048574291438321
0.0520628491953065
0.0502660404403053
0.052643579918872
0.049002468519439
0.0514975182205896
0.0507059513505385
0.0498958247719568
0.0496920752010848
0.0523617339365202
0.0512315638286539
0.0505468740357544
0.0473820837067768
0.0507448708490073
0.0462138728662851
0.0500574893534672
0.0497871304115562
0.051197688226659
0.0488635553908038
0.0520897639469334
0.049062158709584
0.0508681822500666
0.0488832584110894
0.051446117032801
0.051082014940671
0.0501323973131208
0.0517584985631858
0.0531151882322075
0.0494593011499359
0.0501649387214016
0.0486054517043815
0.0505820580825946
0.049154545989208
0.0505152991779516
0.0495280666086264
0.0505350977774311
0.0479964405897412
0.0498645997434071
0.048625003980878
0.0502551664494458
0.0473819927363774
0.0514774691123143
0.0492470701689473
0.0499852260308572
0.0485681633464181
0.049932659568578
0.0475483877349579
0.0514025509829578
0.0502095349890846
0.0506889325213608
0.0499029785596753
0.0521547379447881
0.0493187707000692
0.0527604683406357
0.048874246937346
0.0504230226571313
0.0502487593363608
0.0502419711264977
0.0509443078379541
0.0518909044962212
0.0497681379917816
0.0538982222545286
0.0507394949066667
0.0512866558207598
0.0519399409712454
0.0534513147094591
0.049872513376186
0.0531353450512189
0.0527479255558392
0.0524209594011327
0.0529966725880661
0.0533593753628542
0.0474873247134192
0.0513308039965535
0.0514517637399703
0.050791728763431
0.0514946626089978
0.0511225059908904
0.0499081427572343
0.0526069877289278
0.048414428965156
0.0528696175840432
0.0531271373584433
0.0515376101161201
0.0513551620419785
0.0515001759995157
0.0497182728689569
0.0532304820648447
0.0523480174380236
0.0516276877186143
0.0486421696110233
0.0529037943740548
0.0517146615829248
0.0510181372813558
0.0512357548479475
0.0523176027562878
0.05121890202792
0.0527195206046713
0.0510937768978034
0.0544687749280592
0.0500730453795357
0.0514172457128954
0.0539288673396041
0.05116350886252
0.0514001699426776
0.0547400549495197
0.0531956096919866
0.0540528203363338
0.0514062632892319
0.0525269606958216
0.0510790977293658
0.0535197435723205
0.0528846312348775
0.052883320288202
0.0537323363430895
0.0514228833850632
0.0507461887404463
0.0574424845075702
0.0550722932255994
0.0550381271570041
0.0546660547703823
0.0533329876168738
0.0503187763318594
0.053659692080535
0.0547910400343029
0.0553876929478636
0.0537322745615427
0.055725716055338
0.0546989219191978
0.0577233571415493
0.055685111491053
0.0540687634878478
0.0524760133237605
0.0542105035951456
0.0557851482290534
0.0547143699029849
0.0516136617622704
0.0535612685002904
0.0543235461421244
0.0549760350432699
0.053066454313833
0.0533351443843074
0.0509011848552096
0.0532740683308172
0.0530816532436077
0.0524225773052526
0.0529367982346408
0.0526501572276776
0.0522848817522736
0.054235334053039
0.0513165110660363
0.0539862852440891
0.0507152536542395
0.0522741749132588
0.0507075672362713
0.0509879269583084
0.0509325151848032
0.0518457350749805
0.0517246918479601
0.051526663105029
0.0516376601102277
0.051976028334317
0.0488382596296097
0.0502470475085973
0.0491838283716517
0.0494457728373927
0.0484361255774099
0.050060483327374
0.0507323140587357
0.0500593033660762
0.0506056815128328
0.0506425625469829
0.0513433866259843
0.0497138612620317
0.0476077311300632
0.0524838545782994
0.0525901205710869
0.0526312032886256
0.0507211023831944
0.0520788833679394
0.0507009667378596
0.0495281067208977
0.049137601847922
0.0491572167326597
0.0494679478250948
0.0508345024995206
0.0505383548642031
0.0502878283165709
0.0504427754899201
0.0498808513368865
0.0471340747197666
0.0491984293861774
0.0505828080529036
0.0521980155774597
0.0489515273213766
0.0472631155945905
0.0477166915956459
0.0481083713343947
0.0486608638773053
0.0514667190891922
0.0491388655644951
0.0484325722419782
0.0475855200997168
0.0485130179465136
0.0496070660545669
0.049444666708146
0.0494446997466282
0.0496680378647462
0.0517250088716599
0.0510349657846229
0.0495870603654275
0.0505813739217456
0.0490448501079941
0.0487743070837271
0.0488568973097723
0.0479779609294791
0.0470902299998074
0.0493134339534385
0.0465084524182176
0.0468835716852533
0.0479350971720865
0.0501778732962657
0.0510487799335819
0.0487583880453948
0.0478565038393118
0.049710009623672
0.0478805784366462
0.0472678172104962
0.047030945067066
0.0476116634557974
0.0488826713246865
0.050188282106998
0.0487820920362646
0.0476616526634506
0.0470935387661274
0.0460348375073775
0.0459633432536285
0.0479142748108546
0.0462234680111377
0.0484332600496176
0.0477981278153271
0.0466605860800062
0.0474923717379114
0.0453377275951031
0.0470836724151355
0.0476058567667658
0.0475359434333821
0.0489682449224294
0.0496197003655399
0.0490495431532533
0.0460586020245679
0.0479016246082903
0.0479775485552235
0.0474583295291473
0.0486463764625664
0.0488246156720825
0.0489052752667846
0.0473940141903483
0.0449016354232937
0.0458956224546753
0.0469558561272065
0.0464469564602237
0.0484599440482641
0.0478326865510448
0.0472093152958529
0.0484269063601337
0.0463066812319413
0.045075611829372
0.0447247490785515
0.0439419104092584
0.0457528229743316
0.0447153702209686
0.0439424869277831
0.0470968595271337
0.0475739675189494
0.0429196483659692
0.0418011802060514
0.0432366141417509
0.0427462025373073
0.04355977553218
0.0425744833478093
0.0430227882805526
0.0433320704949749
0.043498160896933
0.042139745299884
0.042784837261625
0.0443955491922894
0.0442771104278886
0.0427986845490323
0.0417432655608273
0.0420786027504456
0.0422075648669088
0.0430957630930925
0.0428268203495988
0.0404217316201014
0.0435787577805313
0.0429839749869722
0.0405629592036693
0.0395151007893798
0.044610148827126
0.0458583729382624
0.0425055546832493
0.0416522079770715
0.0419264509481313
0.0422497275508303
0.0420955552423861
0.0413027434867334
0.0407957508243573
0.0420104171260635
0.0427633042227725
0.0423998372833937
0.0414383899830848
0.0405774119014792
0.0410085057853257
0.0422669614543293
0.0409889242546516
0.0414939607574086
0.0421352674913928
0.0400595358054647
0.0387979750509459
0.0416723347576031
0.0412229636225877
0.0390737316610037
0.0413966811462848
0.0402418926649162
0.0382696423714103
0.0439488107745392
0.0433526391156494
0.0411262226858754
0.0413963185366253
0.0398676671493931
0.0392063789628162
0.0409012138309773
0.039390162530559
0.0401811278571968
0.0404902994052797
0.0391910692219984
0.0370958341752812
0.0355280661975446
0.0402787340505565
0.039110595711097
0.0384795835230805
0.0417236341117178
0.0370859052838562
0.0384134857693964
0.0377777347267624
0.0370305500050872
0.0386901718560252
0.0391300558340223
0.0391966180559219
0.0409416088681577
0.0343298271975213
0.0409414307821092
0.0461129713056529
0.0425527245425402
0.0377800407400389
0.0370834946658097
0.0372887152324792
0.0388434538640665
0.0392410736763526
0.0385704299865134
0.0382137059423058
0.0405316286969025
0.0393353823555653
0.0373843547946868
0.0366225727360713
0.0369991782042292
0.0379013075364356
0.0383612583798627
0.0340868597657655
0.0351538870969905
0.0384183948537932
0.0368636396317126
0.0390093131357276
0.0483036635223993
0.0401127914520863
0.038900854439098
0.0380638450649814
0.0372362820407771
0.043978349958285
0.0407097763814164
0.0418818627731563
0.0368858199897438
0.036953706986659
0.0370445729259641
0.0378252618391322
0.0354884708029417
0.039002658110826
0.0375052849476579
0.0387052099195769
0.0393147464727849
0.0382231000992415
0.0374571221874193
0.0393515485422356
0.0389194764182482
0.036852613765648
0.0386320917259452
0.0386476696329172
0.0363823352064263
0.0352856015857228
0.0358900004462917
0.0374746374702918
0.0323139697144491
0.0375944284426047
0.0397755922152389
0.0363358629247236
0.0371801856115414
0.0407454558787316
0.0346012499201199
0.0399578205969527
0.0453237203394273
0.0411376388809777
0.039867487229825
0.0386969898500072
0.035747659976921
0.037391030576516
0.0362984742625762
0.036400616608457
0.0375376835027393
0.0364809403394226
0.0381987316950954
0.0359414321246904
0.0360884229707984
0.0359533177525407
0.0367038207278647
0.0336388062717236
0.0373401105152147
0.0380061462725214
0.0369743518839983
0.0355839186605628
0.0344009760418368
0.0421584054558095
0.046996991586625
0.0489608613904535
0.0406851772340925
0.040660861102717
0.0376319697879335
0.0368217061995323
0.0351881507980562
0.0384564509690998
0.0355900265256062
0.0379001932513154
0.0369158505105095
0.0384718641668075
0.0359892007506825
0.0369416962358306
0.0356251305885968
0.0378926945687821
0.0365106235183741
0.0354153810489665
0.034353505276672
0.0349586241250417
0.0358839955232143
0.0365064813836045
0.0420610639303531
0.040928930482006
0.040809322337947
0.0280882249746179
0.0521881652521992
0.0473061487326975
0.042035370224895
0.0374284552339522
0.0391397699463585
0.0363666971737356
0.0378633019884078
0.036712601333099
0.0397790469993777
0.0390545993514193
0.0390665855278372
0.0351459653569522
0.0396753325927812
0.0414111256140052
0.0338327990160055
0.0402321685647499
0.054655970663314
0.0449190528424797
0.041380695284303
0.0321159810116239
0.0476632823456391
0.0493588847965931
0.0411925581396645
0.0430582627371767
0.0401675060446682
0.0372575692552617
0.0359417565475643
0.0378087881782194
0.0374698217818804
0.0388784524401123
0.0386266518913861
0.0405582509970175
0.0383097299997062
0.0377662860298898
0.0401117260717645
0.03988473356389
0.0445400149670957
0.0433348178309249
0.0380546754826384
0.0430381653808229
0.0392131256389538
0.0366597027874798
0.0386948717333658
0.039611103159171
0.0355042372494579
0.0449063509078769
0.0478132746771037
0.0416751058017782
0.0488246186815115
0.0481050952922624
0.0406006606976918
0.0434297290404481
0.0444645130063771
0.0506257012961095
0.0341429539389351
0.0502006338066439
0.0531643956505907
0.0604586040773376
0.0515510085324317
0.0471103601378677
0.0411001808547281
0.0424790378365972
0.038294174629982
0.0428571674795172
0.0610688902509291
0.0395483010837502
0.0459013128294229
0.0329263033640404
0.0511559241179534
0.0481334448812524
0.0496317466975494
0.0452363153069837
0.044255222582721
0.0411485601866341
0.0589871012984241
0.0386601422931268
0.0408490230347574
0.0498685555813039
0.0653255434374985
0.0678774639905036
0.0438494499760947
0.0420087968748657
0.0595255368037946
0.0513367117773639
0.0508981912665552
0.0430375972724088
0.0517576918338841
0.0385584214963014
0.0560657383633743
0.0637013738947598
0.0494179693579336
0.0504907101582533
0.0487694552973316
0.0444605615458044
0.0564613993340128
0.051638917944306
0.0502361835376516
0.0473835302820842
0.0515531201249927
0.0392307403085152
0.0937537665304419
0.0538442041032726
0.0710327177804913
0.0587291263827225
0.0710698442035305
0.0563999268306758
0.0602577855474657
0.0491789203075635
0.0647358171114944
0.0644889497359632
0.063313102060266
0.0424849485743154
0.0768655261568254
0.0661469082389887
0.0637792017512002
0.0634940929692587
0.0570545554621552
0.0497463381678864
0.0768854387452859
0.087764330367985
0.0884050588922502
0.0630466999680007
0.0689855487414316
0.0787232265612467
0.0709156924364219
0.0627482449986571
0.064895480561063
0.0672269835200796
0.0670755630970895
0.0640324349899554
0.0779388063408236
0.0661279744123079
0.0764745564225885
0.0626838090157954
0.0764804363913786
0.0674600496667014
0.108055666374804
0.0998391903900413
0.0801186841254947
0.096286178777813
0.093352998184116
0.0898782320270306
0.0783295356278092
0.0779770953386457
0.0832342568374308
0.0864913418510775
0.0865569623014265
0.0779774515943754
0.0972639252586674
0.0857574163888577
0.10468342643441
0.0973423751873483
0.100588561274975
0.0859776266413288
0.0884020464367923
0.1864896584485
0.107966700096659
0.124188849819866
0.0949547454122869
0.120419643738744
0.145541850366292
0.128688876960979
0.11904433511861
0.125072244188849
0.116736671012785
0.12860460717802
0.127969451904944
0.137525034044408
0.142654742072326
0.14486455620374
0.132565713733357
0.155433840006016
0.179582603007289
0.201529723678747
0.176022375387521
0.165507384840123
0.176275417392826
0.189155212711384
0.171714245140434
0.193328557989836
0.169116077680701
0.202457442960054
0.225593746628988
0.209875791762981
0.201062271122381
0.205639642914668
0.237452200402613
0.203599770133083
0.269337136131851
0.233121463414499
0.2444908284499
0.22736265738826
0.251433077522315
0.244078396028059
0.247342640369657
0.263800863000842
0.27645070128324
0.264526628985664
0.262738156158338
0.267049627365358
0.27321163827654
0.281166345287289
0.281494685858125
0.269034826482249
0.301525041939387
0.26798990149053
0.416255091363163
0.302520957856083
0.30388634778177
0.284745319692863
0.30625627086919
0.310281976322103
0.303553644082307
0.332095259956469
0.31075367939141
0.296853780890528
0.30434432285705
0.299349270050762
0.302623595259428
0.294523368090308
0.305847629036806
0.282573598270965
0.326009019433485
0.277876216046108
0.344467459706665
0.314988100686095
0.320589623402618
0.296013088651407
0.308985763840108
0.28895264913986
0.302745269265732
0.286825214997021
0.310193308585808
0.300589046569329
0.304398916238419
0.293760544770861
0.282020428516026
0.305856519563711
0.294241493701297
0.282127081203663
0.286563686141156
0.272024812274076
0.288848478127733
0.256340036164055
0.296454203137974
0.302989552761598
0.280544862213373
0.276417076574956
0.268195301176752
0.268511214211388
0.269898191722877
0.261061203567289
0.276070457256008
0.263825734813722
0.262040976325412
0.265534033555456
0.264321180266579
0.258454672444099
0.253534961788495
0.260529272269977
0.264080833187081
0.263923639819585
0.258803980292921
0.256384978992198
0.260562855135275
0.25843250819108
0.258877879000161
0.253015132289511
0.264503477476749
0.260419748599587
0.260840466426379
0.265415580127183
0.255656462050377
0.260019165850661
0.259261446438871
0.258710965802095
0.249585273069321
0.255876081320093
0.253202186320771
0.250526893722068
0.253943534029654
0.254490034144835
0.249720000684645
0.252510131796054
0.249394828837009
0.248589996146863
0.252063390332033
0.224664211045689
0.310158082221594
0.251196125768039
0.253704313390463
0.238013222774987
0.252739814808186
0.243335856779422
0.226639874854153
0.269352052123384
0.244260591134865
0.236974036599513
0.232382498975824
0.222770140353848
0.241666193993371
0.232049760571478
0.221728585702792
0.228643434501125
0.197840905821412
0.255659094725401
0.213518523030157
0.289127481462695
0.254927632135793
0.236633644243305
0.204350570709503
0.23237345957715
0.235024193196933
0.205326378365292
0.217236035252132
0.19183580997099
0.245674786032362
0.209472649438668
0.216876039085376
0.202335305412243
0.200809467667192
0.227834805119878
0.234866374483728
0.201640962634672
0.217495595049571
0.219394962143729
0.20308534989735
0.224046565586776
0.242143337132137
0.212502328596914
0.190339319766856
0.198588431130055
0.182466953524225
0.183130710712771
0.231330547590942
0.186797241170037
0.202628799084495
0.173084637268057
0.18517739084257
0.172167742094835
0.198453887644264
0.174473569073905
0.18219407946878
0.207141636039964
0.163307277770465
0.19845360568704
0.166642447432323
0.209662480370555
0.195912089473226
0.184190830513395
0.153839035414567
0.201765186852769
0.191017306970881
0.171627532210161
0.182753550137654
0.153889110941228
0.164480100595614
0.177912339210953
0.153769444283988
0.176772279195499
0.169181701146246
0.166921471156148
0.190504808689477
0.19184656917243
0.197484564239437
0.16180832192388
0.152774051021989
0.155776101449245
0.147552892000005
0.164784298681409
0.134361718893646
0.202295898006935
0.149726870128651
0.144676832907551
0.19123266251176
0.15973322546027
0.158170670414416
0.160563144302588
0.154548921231212
0.157969433104052
0.169661720894412
0.19490861659414
0.166138599308537
0.187953626153273
0.19017688695413
0.179238268361631
0.177555498738601
0.176201312274007
0.18441126352936
0.182857130905692
0.1998356420122
0.190143130867869
0.197732617074804
0.202070037187735
0.189083966039824
0.227432076946944
0.233144396871908
0.202715502983226
0.262909661377992
0.217679619163124
0.29124580686958
0.238801345317481
0.245354633691898
0.242559184433712
0.247872892798188
0.255800888554858
0.245393420910941
0.264507809186836
0.295394998483939
0.264150280540477
0.283077705949151
0.265525568172807
0.288647161321674
0.265976700974629
0.323402348544075
0.252643418335126
0.371837909995821
0.317496678363234
0.320062355181177
0.302244529205349
0.292486898259125
0.312036176582809
0.303740281886412
0.305384323069899
0.303519584124681
0.306467014048039
0.333674522219372
0.302718521548795
0.319955022100634
0.307592681913738
0.318147326689179
0.308147346912394
0.323552036726213
0.3176504383909
0.326654774929325
0.331812213939932
0.328111764138277
0.312619585504103
0.402861808481495
0.333433813026538
0.358919556732408
0.334222933513438
0.357289582003931
0.348323553110154
0.353373905445765
0.368942026486292
0.366564455500129
0.355659553558264
0.370085002619011
0.361028463187542
0.370633486051022
0.361197178677971
0.402281984117935
0.365625276739639
0.402500167645667
0.354251684953173
0.442978086743828
0.401092382062603
0.399390109092625
0.400226462256384
0.392718476525548
0.396508216076815
0.388991862998331
0.394294440872639
0.3977735152097
0.407190878675662
0.396106865213057
0.401741339434945
0.39419619865042
0.402730786641126
0.40166817811188
0.390937509364755
0.419873186683915
0.396086224166343
0.400783144054871
0.390855477988778
0.403040553848082
0.383345099250741
0.418273446368617
0.401053231187953
0.40585538425239
0.40242961422138
0.400357033522624
0.41209197501764
0.407333139845909
0.387425477381419
0.400044052458533
0.383323518135309
0.412446287563703
0.389467835988416
0.416762279171389
0.424235157693857
0.41099592611432
0.403974677744341
0.401189722198553
0.407917598524773
0.4091708991137
0.416372447226687
0.415411539817218
0.419557046875678
0.412753252527617
0.415942755954876
0.416726141131813
0.417491155421443
0.423643891058764
0.434596636537154
0.424857341054779
0.416085907387802
0.420921416528319
0.412096657837413
0.412306832432146
0.411220881821747
0.415191087780294
0.402353515841823
0.401813837668005
0.394324163542791
0.392292796432958
0.418630851797985
0.387397683124105
0.40139992813969
0.37794484091264
0.38403345532645
0.37952098979446
0.380662950984123
0.372930753283469
0.37245753511949
0.368201942583518
0.364696560069072
0.364963632477763
0.357216126119298
0.356838114559763
0.35678742268932
0.359752249094595
0.355916154647501
0.3589440059337
0.34960639679275
0.353586841579309
0.354487302538822
0.35202049524873
0.357381606461113
0.344403339417461
0.365246753784899
0.356668036725424
0.367459949343591
0.356491819465106
0.35512307640131
0.359910447194097
0.346416185241539
0.353309840619515
0.348061238155369
0.350022309442361
0.346640952764321
0.355020300193349
0.346893340575431
0.3515476618933
0.346863433012678
0.352255246132359
0.345329544244111
0.349779305981226
0.347822508467998
0.352748034689155
0.343533103764224
0.350573015484308
0.343274833109554
0.356724196399937
0.346698158336195
0.353882991767727
0.34816424118992
0.346465753661843
0.347114440304818
0.349942171264589
0.349317007556864
0.349677206919225
0.345879466468065
0.345076930168862
0.344661928121098
0.349354359546178
0.343396196552092
0.344431117038595
0.34400663141984
0.345424833647055
0.339511266032056
0.344408868517552
0.33300891315162
0.33661534191134
0.33161925276347
0.333123761909061
0.324342222965682
0.326017676964362
0.318761335467435
0.319562758273683
0.314691949237179
0.315285253599769
0.310224959728347
0.312243742490276
0.30492564191082
0.305963871122472
0.304323138786853
0.301622723606227
0.297949024432007
0.299940367793073
0.29675512202538
0.30042392611806
0.291250336576682
0.292476856096989
0.296006333420997
0.293852378830413
0.29441217633334
0.29299962825432
0.297257112050211
0.295373183634662
0.295414048370716
0.298607677009178
0.295483455653125
0.301085554545414
0.301572583690228
0.29834128851454
0.303763910369348
0.307388994584928
0.303768563889243
0.308982043933769
0.310206928357435
0.312380487787373
0.31164070996365
0.312268748193253
0.312510498034772
0.315661690777853
0.314564434644721
0.314880195305981
0.316492459420804
0.313775660516436
0.315696582172236
0.314618996348437
0.312935099120583
0.316845671811702
0.313683210133064
0.316842807774151
0.312637090807888
0.313438254474625
0.307552737990165
0.310559700155353
0.308945321648167
0.31100243457055
0.308285426910388
0.305602057816122
0.306439155924543
0.30419493356448
0.303611207521859
0.30128186198359
0.300056956160259
0.300748399513718
0.29697739596425
0.299010080114771
0.298022034285368
0.297630713400707
0.295119186642949
0.293788487529643
0.29071705163362
0.293580563340907
0.291450269626868
0.295608126106979
0.288716987074891
0.292503616410094
0.288150828743222
0.286184079029229
0.286217202828097
0.2871595687506
0.282587411176541
0.284844815979415
0.282046745343342
0.282208101026815
0.278426499283809
0.278617716640134
0.273746107768169
0.275632766253635
0.27362006975296
0.270619435404451
0.26865833297004
0.264909283225823
0.264468040345363
0.262155576120966
0.259361559616905
0.25882634022839
0.256292985732282
0.2560758034701
0.257028272801958
0.25690118825778
0.250206883665514
0.251016436013872
0.25005408208751
0.252180140535538
0.250506692827183
0.249373920821034
0.249077087086734
0.249373722668674
0.245679154292977
0.243598915786757
0.242035610081152
0.240364962716606
0.237721155611369
0.234904034632475
0.230948164985877
0.231618890985554
0.225701503217728
0.224962313866912
0.222852071302844
0.220539781813379
0.219381974348841
0.221251548380871
0.222077236319232
0.227271566858195
0.228753973842715
0.236845161542807
0.23823717087821
0.247886523488905
0.254472304183365
0.264763275245441
0.273659677243911
0.282260352856142
0.297595970095616
0.312304657364512
0.319465230842744
0.332407682566042
0.342631926610136
0.357000164669518
0.366261553617501
0.379992997633589
0.39066930328169
0.402060221067853
0.412432994081824
0.426528915797096
0.430988407921916
0.442014600625765
0.453920394830991
0.465523865650059
0.471986054082232
0.4805883958366
0.486530197612832
0.496981722248161
0.500847518991706
0.509033359666105
0.511603196024224
0.517186233501199
0.523832818963209
0.527086889539424
0.525299675646894
0.532969396476879
0.535582841213115
0.537101419679908
0.534278366108188
0.53590659508952
0.534712912891418
0.540077780786551
0.537721744614741
0.540086610669442
0.543372175561965
0.54408463150315
0.541668856031088
0.549532904826142
0.547522847033465
0.555594898069312
0.562501813323245
0.562678074060616
0.566932077484229
0.569775294587618
0.572278817907111
0.57545907377622
0.586582879010258
0.59594655362791
0.598127446796204
0.60390720444614
0.609170061549371
0.623265688309263
0.629547669232436
0.646813831047396
0.646273174518554
0.654941790251752
0.669208672650776
0.670658233075021
0.683827197406732
0.686177020899086
0.69045212292229
0.694884844826867
0.703850432649938
0.701767828850345
0.69262205012724
0.69842835156071
0.696571035337038
0.689736355420098
0.689732936153009
0.687917262555724
0.688349550022013
0.680822239795594
0.687595806787252
0.692178640580626
0.692254399433169
0.698163479946038
0.70266520936506
0.726629091391907
0.733403719332962
0.740613171865402
0.753066547659686
0.76977603005619
0.779954425877646
0.792805024625636
0.799163288536895
0.812822128500799
0.833292845868705
0.839893201829175
0.849175904092177
0.862887429829161
0.876966935744536
0.892139704132598
0.90458819337988
0.913009153930895
0.93730602626693
0.952458292561107
0.979690278057741
0.985513111759221
1.0028456581872
1.03588908660107
1.03740327141661
1.0578300406783
1.05583800018873
1.09912716345097
1.10423143501102
1.13293467300976
1.1248462593256
1.15381420235445
1.17247850870602
1.17158828872462
1.19642253056992
1.19587823731471
1.20782979430127
1.22888592669305
1.21776191107935
1.22727245093593
1.20650725853486
1.20936784708403
1.19963689100818
1.2353657918754
1.20577666810493
1.21332342030831
1.1952605485943
1.18045670871471
1.19931183435931
1.18728585802852
1.19741595819426
1.19360759094278
1.22663643348737
1.21727276014741
1.22801254920334
1.27043545310036
1.25391048033293
1.28298291103443
1.27470338292758
1.30110296310714
1.31078302233663
1.32481031342302
1.33914884305221
1.36548892422193
1.37085629379159
1.3656566416766
1.4237045196176
1.40057331967148
1.40617512332983
1.396800330277
1.4251160627128
1.42942097015546
1.44361586857577
1.46366962922524
1.49789364503215
1.46273082699235
1.41780885720007
1.46358632257619
1.4929278014612
1.46581332801714
1.46061131715604
1.472607006783
1.48183335698982
1.45294010253121
1.47049330316229
1.47642342814373
1.44238120636593
1.4863293348804
1.45445534918729
1.43980415379494
1.46322821140915
1.448642446018
1.48659584156203
1.39180523210604
1.3678276152469
1.36977031871209
1.35797679740763
1.27407520936906
1.25416252345239
1.18897990473505
1.17554325106581
1.0825628131281
1.06417830772929
1.01596980190899
0.964482381558644
0.952746303575385
0.924808960455422
0.897499281169732
0.879564901014129
0.863679948100573
0.860619264712464
0.860620362603415
0.836244635360694
0.830349741731548
0.824643910423347
0.818064985636131
0.809038465478741
0.790648759775393
0.798572125857164
0.775762373222092
0.770271352805184
0.745074262262056
0.74947610516271
0.724424499282888
0.710875884721202
0.688250164080038
0.669096874486955
0.653983627411491
0.628618591251814
0.616377591762548
0.594381514714313
0.562680091618816
0.534775469307709
0.514197584879965
0.494844332599241
0.465881076744775
0.444188326666054
0.421935990567161
0.404555711600895
0.387204901606442
0.367853084935253
0.3428778578859
0.332267995942769
0.318177278828625
0.305308541045801
0.292615624556792
0.283725953189184
0.268921453320861
0.266363356964182
0.262236784783059
0.253711923319599
0.246809080974586
0.246379468965489
0.237637241504718
0.236786499335849
0.232782683204216
0.231969644131213
0.233065527548856
0.230775087756274
0.234273144229831
0.235702882958879
0.229268460986817
0.229727749074634
0.23286813256519
0.239145668385333
0.239366009702443
0.241461837325657
0.238920653949855
0.239038153355066
0.240999891336872
0.239003909151333
0.235822786029757
0.23699554744984
0.232348393431806
0.231892544403842
0.227819912138736
0.219752779543357
0.222189999448632
0.222089528047765
0.218926189343796
0.222657626741182
0.220540995828412
0.221980722761934
0.221272607309092
0.221944052860374
0.2212011470772
0.223901245685511
0.226140564430346
0.229297001330407
0.229842526225542
0.235488279504456
0.234795335909077
0.241123181348528
0.241096728915997
0.242383674143286
0.244105169073066
0.244756845331088
0.247804529922855
0.250948266124301
0.244435564210715
0.246590351912351
0.245619640468874
0.252442731878323
0.258202123826239
0.25457790393654
0.252591309620646
0.257489384855624
0.257434601146432
0.261170808338524
0.264690413550089
0.264093751498069
0.271395546899077
0.27228166561243
0.273593452581757
0.283689497045637
0.290712148851101
0.301597874982205
0.307783363023706
0.316198501828867
0.323838221963494
0.333414788676055
0.346922076902488
0.353258686493679
0.35101334617132
0.356415404762444
0.352597837697225
0.35667784350313
0.348744470963227
0.352313842637675
0.344178993880065
0.34121444607978
0.324927274712797
0.324578562770894
0.314092162527795
0.313135605285123
0.303979432437189
0.305965884276328
0.305424902943951
0.30617986609299
0.300083155796896
0.300928970243719
0.308368592979079
0.313929926155648
0.308653571024223
0.306930130128477
0.294315901507706
0.303102161124849
0.296027724233856
0.29527062849462
0.29046336636428
0.28909530316361
0.282349866628478
0.279580271110297
0.269103224514196
0.276734008987466
0.271583509662617
0.270224824350136
0.272107550802795
0.267766411194547
0.262414490594914
0.256137905921494
0.258390290326748
0.255801703236262
0.259871406758621
0.262182911169324
0.257368263144212
0.259430750289717
0.241374597787728
0.243211513921221
0.246128589417822
0.254171226916739
0.243819819417385
0.235435746124799
0.236558549945518
0.24022434356381
0.230068250869838
0.236355469731647
0.229219660249826
0.233455262110192
0.233746150819279
0.230902702339517
0.223253688809198
0.232081165567924
0.225139377820256
0.22005781501408
0.231415737754568
0.222833097984738
0.205908521936146
0.216693154294229
0.214422759536567
0.219576256711848
0.212097762308582
0.208008719547271
0.203869451267122
0.222325687029681
0.212282041408524
0.219186854887062
0.201707097339375
0.209402212247144
0.213707572136459
0.226151517525626
0.208715531000521
0.221852335401492
0.220578207310215
0.220357207281586
0.221733842998251
0.227874883052092
0.218746924412553
0.221702284093422
0.227785708310639
0.235153842813245
0.228485975079976
0.238763406592991
0.231962121469357
0.226502111650974
0.23574953406668
0.233794683927084
0.243630424758471
0.256204116056364
0.237914376079995
0.254120894877643
0.260050206263853
0.269339337330914
0.265393933563624
0.269261896776107
0.290747126812836
0.288415908158891
0.297163165532779
0.310081758403144
0.302545489516867
0.327712254490454
0.337589742090991
0.347173985802699
0.353889341895429
0.357719125504968
0.363831790218334
0.402170218834581
0.38859738341746
0.407095223788481
0.410985974357587
0.415106547752342
0.424197094056085
0.43239080293681
0.437806871400312
0.437654600218454
0.41658118542107
0.430062241116416
0.427554614132602
0.416740053398058
0.424346315223352
0.418906045410165
0.389201943188577
0.409506537636882
0.41769147632299
0.399100901287624
0.397208607241919
0.406664270352124
0.393604727096293
0.414878238497885
0.375347466106358
0.393644422297047
0.380179372455317
0.417097866738019
0.377854551576679
0.376271461611324
0.373854032173512
0.376604184222237
0.370923375862795
0.365564049489629
0.358212381218353
0.352106245551771
0.350230245742793
0.351835099804312
0.34720454710198
0.378521249041438
0.355632139517023
0.342098456387495
0.332018478279974
0.350914608687805
0.325272105518483
0.348143198208616
0.357243025646275
0.37168585503597
0.348785484052701
0.355707994948597
0.3646309672283
0.379097948933152
0.358322300836254
0.346106384053477
0.351805688248064
0.35099909770576
0.344871592487
0.363841191699594
0.337417897866496
0.346722032189234
0.360920958827127
0.377498223949573
0.368038848992999
0.390083754662107
0.36294009370671
0.367351245706389
0.375648172495469
0.383736396853915
0.380549546184866
0.387694500554022
0.334265112097442
0.385549395566405
0.414900779702591
0.392302734669907
0.389070150267309
0.428004256652794
0.419727637288282
0.429334039512691
0.41602850166074
0.423353712538665
0.419459964131689
0.479387475195288
0.45929503077105
0.482263628675561
0.4642459192451
0.499169960252484
0.518834198881816
0.510598609198819
0.483326039456041
0.544662815665246
0.53232388239464
0.516548485658281
0.522008990344285
0.531312954240856
0.549505157906988
0.537130870220352
0.502645443110084
0.480103074034389
0.514044433461961
0.525789385098771
0.500121778469217
0.537126654360438
0.480968147981897
0.474372714146916
0.423927857419579
0.52157502748449
0.485481321360299
0.492893607475376
0.477194245303523
0.438238326515173
0.481095632577136
0.491254522540587
0.454336822311194
0.467634878783454
0.448208638747651
0.578733206217165
0.494329819111579
0.500296440732571
0.491729560746649
0.454132956787322
0.407999821322207
0.38375085369362
0.414225746752664
0.431507327951823
0.482683985360626
0.620767272862589
0.422127338725746
0.411818024594201
0.543761767993621
0.560992506049087
0.530686186430615
1.03342841743102
0.533155062510938
0.522348293111969
0.434327615941792
0.333055354149021
0.558976100393194
0.68592669308945
0.342319096338276
0.498003992795301
0.570298787084702
0.488532075584722
0.390655379532724
0.807497868961855
0.665522514311055
0.486932138809404
0.716076745865325
0.703932656308857
0.358651171294977
0.454514791102726
0.473004709743497
