3596
4000.36533379555
650.420452594757
1
2
2
0.056837334105679
0.0583225343529619
0.0561019515584697
0.0581680966133032
0.0656608963237722
0.0559554159578078
0.0601255182754685
0.0638709642900728
0.0573149589622231
0.0648448494197906
0.0647934963664915
0.0555547513727233
0.0488191940561748
0.0593310323921772
0.0594585761697662
0.0529699578007246
0.054566897900643
0.050484434808462
0.0573281044212647
0.055718117730685
0.0595456329455125
0.0571132866205281
0.0565863132548284
0.0605552772865296
0.0521185918275193
0.0664259910073672
0.0594672324301872
0.0506779906454745
0.0608223165138626
0.0652502768469229
0.0622937749024299
0.0574923056587102
0.0597770874456455
0.0570346665249965
0.0531581073401352
0.0652707137607301
0.0585903420358749
0.0634492483178582
0.0547391513016984
0.0703034851587342
0.0605242581888267
0.0614850340588652
0.0576345890586286
0.059628354097308
0.0616470685650823
0.0600660084845042
0.0608478314232729
0.056735140709959
0.0600836413203627
0.0691747141428719
0.0645758160088962
0.0586268734414137
0.0685468233922305
0.0686578068299766
0.0634751544549331
0.0761828646252558
0.0550135397944055
0.056902855225452
0.0675866409717513
0.0579533437370428
0.0628470979927996
0.0686570945461552
0.0614220366545145
0.0628057494062639
0.0517948893973123
0.0613627629073712
0.0663263573816136
0.0591966761660803
0.0580426337511646
0.0697667826624618
0.0516961272514984
0.0662674810394106
0.059619844081204
0.0594514043170375
0.0585793136938564
0.0590115019120833
0.0602205171755863
0.0577827236586652
0.0461132231758538
0.0809327543561092
0.0651435702810109
0.0604154420537336
0.0617073229327981
0.0567282221626051
0.0492621681230839
0.0720815819642511
0.0499705687804182
0.0528076050009721
0.0643624832847897
0.0665427881987058
0.0623803529748541
0.056204236677422
0.0542299711856427
0.0602806092708583
0.0504981204145115
0.05292871373418
0.050281171827374
0.0617861938700031
0.0559798981039111
0.0664522755185988
0.0630689837010767
0.0567217368418066
0.0841090499520889
0.0373963559341454
0.111017384154739
0.0629079152857253
0.0356649610817368
0.096694511898417
0.0547987653118382
0.0647283289181667
0.0543599145050564
0.0584746320581157
0.0501121172502208
0.07262974863004
0.0321510087681554
0.0705720543712306
0.0847044585157989
0.0631823863664664
0.0543179554200623
0.056962314626507
0.039307543903202
0.0741899260742572
0.0907791081701824
0.054513324301771
0.0590127767209776
0.0587598206584069
0.0457330972102057
0.077297661511053
0.0852397080988562
0.0553647779038253
0.0562993434174399
0.0467862363774514
0.050683691736147
0.0373697873105828
0.0909320254469648
0.0577289843484723
0.05519087805771
0.0399686064802408
0.0585778716856212
0.0997407391157373
0.0653109682736143
0.0607913260433856
0.035843873112418
0.0438144675046354
0.0754070228565138
0.0606741398897985
0.0451115679398142
0.0662486792447605
0.0695332531058983
0.058844574822026
0.053528747187356
0.0419824569796545
0.0751548277918843
0.0667270479896771
-0.00011429300599552
0.0840290324439312
0.119594523359419
0.044006324859679
0.115561181385699
0.0476226661064028
0.0669192990538995
0.055933865158078
0.0613989418741197
0.0471125168105562
0.0590228158438974
0.0433172772420182
0.0597421545313329
0.0779460572822897
0.0537066982380124
0.0522041850211196
0.0758895730322782
0.0474174335820989
0.0237484652878242
0.121665050406883
0.0709062732159488
0.0355484831428879
0.0743205350746463
0.0697279876006774
0.0438201381694549
0.0528239229465715
0.087602636237743
0.0475898163813412
0.0542052876662672
0.0395728938642061
0.055804421870667
0.060547233154127
0.0597632652167094
0.0529017616728127
0.0524695620481397
0.026879491532336
0.0495129506744269
0.0861736180707652
0.0834036538825423
0.0563476629264522
0.0666113841880371
0.0139358955523468
0.0881232419856416
0.0936755369700686
0.050309967097749
0.053257207651162
0.0592229519050866
0.050330982796185
0.0548135907260173
0.0441882863318984
0.0413413120295164
0.0156234375538831
0.0981961099876741
0.063091916408269
0.0545374720633974
0.0481479937841836
0.0469924526785464
0.0389928929168468
0.0965557716760507
0.0841795146942355
0.0651672078257884
0.0583928998310099
0.0408196794661983
0.0567658597727363
0.0745290900862605
0.0554166821754558
0.0574404221961583
0.0503836364113934
0.0541809745548229
0.0526176306295891
0.0523818329749929
0.0504413573205909
0.0537238858879848
0.050553497196454
0.0593539128473096
0.0566690006732498
0.0667557373290644
0.0579336588930656
0.0517842105169826
0.0452397131160259
0.0405462020864019
0.0471471076592476
0.0781234087182523
0.0507780704556842
0.0630900644368413
0.0436080445968735
0.053572138204735
0.0450996196316995
0.0503857145827427
0.0431383211642725
0.0563735921301756
0.0341518397159562
0.0998114439957529
0.0584645681407291
0.0619922218203084
0.0372571025949039
0.0753766102370045
0.0640124731369786
0.0494599843992066
0.0530813901468751
0.0533827284491679
0.0485682063659266
0.0381868754002086
0.0805612035597518
0.0549501577402383
0.0435548832582792
0.0634425393593526
0.0660466293509109
0.0473005291158911
0.0478657618565672
0.0161170304621432
0.120580404200374
0.0560664346519898
0.0232608604843726
0.116371518764991
0.0662204023135174
0.0583433301518661
0.0568478924183459
0.00863398674493267
0.173961429883606
0.109333834496957
0.0549712917382535
0.0533062428202084
0.0802003738112264
0.0514736604587687
0.0488451579100383
0.0546053166857615
0.0525205178971941
0.0713749626338014
0.0632902971391895
0.118741143614926
0.039225617910804
0.0622933683139233
0.0884147956040362
0.06180157942532
0.0612278529436665
0.0532237066340874
0.0417383346400045
0.0671247494358799
0.0707711336731454
0.0629609726537489
0.0694676858377386
0.0413378569149952
0.0827247275324233
0.0710933300519339
0.0501613469281356
0.0543620049992819
0.0703052811910533
0.0486751015793504
0.058035574344454
0.0553033624522925
0.0661694813919737
0.0508476531834421
0.0332380160496509
0.103472927679172
0.0598010459533702
0.0469384806843766
0.0887301192277701
0.0668117966099071
0.0504285340534587
0.0508101173555014
0.0565418335993545
0.0535892595918143
0.0514051731457405
0.0433130096055174
0.0861009192682639
0.0699485986382573
0.0552966164373355
0.0634110938653804
0.0514336513443589
0.0593345137660631
0.0563444963955771
0.0582415482500524
0.0566769351293722
0.0602869349280098
0.0515707463255966
0.0680780919428145
0.0905640988994327
0.027437244141285
0.0949824963018517
0.0997821490062726
0.0493241553595258
0.0664567012295241
0.0554691540873215
0.0623451435025178
0.0524902049869205
0.0650025479171139
0.0563701865279864
0.0655538075827696
0.0718988993069686
0.0783475132410462
0.0553760475159335
0.0500930238659349
0.0860401908520018
0.137962672091363
0.0795801793828509
0.0775162077412627
0.0370592278172814
0.0801248403234911
0.102309208522371
0.0762312988106365
0.099385939160237
0.0584193755051815
0.0798481753622655
0.0693453493072459
0.0785653301483183
0.0671593424425769
0.069526020070235
0.0682222522869866
0.0700767032468773
0.0697516108219666
0.0812049555191067
0.0645130333971497
0.0635748039855199
0.111800132473014
0.0870811724282262
0.0728246226761029
0.0804827589233808
0.0630001973203862
0.0802553376410449
0.100799277978179
0.0978967770342676
0.127751286542495
0.0857255731920019
0.12606964533045
0.0806259760447629
0.096403168783523
0.079257143848638
0.0953100037384125
0.0911764100303612
0.101615086042132
0.0899416123033388
0.099239301918739
0.0891971143332061
0.107873284705043
0.0968584967037531
0.103183862802276
0.0910529010758681
0.116225082834263
0.106602056049343
0.107705390774503
0.094600145790482
0.106415173122476
0.135027278374581
0.142583922647896
0.114589915963266
0.11157788584755
0.119384321534675
0.113473063047756
0.125364366077988
0.11152179867203
0.129878543926254
0.128552626166987
0.146038882660846
0.144534638656532
0.136117571694757
0.157366857333001
0.120945669283752
0.145759243138936
0.139554209911786
0.138806725167536
0.16350278704724
0.153727130347915
0.13564004670886
0.16196557497173
0.162182287333056
0.144077935984765
0.178382344250162
0.141817954135011
0.152106245449903
0.158944721846308
0.160696967159228
0.163767409179578
0.160476057273396
0.163022819709978
0.170825132618799
0.173196127925561
0.164177657814455
0.168331867164198
0.183275302193102
0.186800254232715
0.181339323547731
0.189219434248377
0.165254322200573
0.182907971848404
0.183162573228395
0.207482485220607
0.211866930853972
0.18483312294658
0.215803996903053
0.193967791260543
0.19715841924217
0.195327317416511
0.202513567752197
0.210892420596123
0.209430863070415
0.215885041217707
0.20486158070769
0.213495441111014
0.227548873100457
0.242722664940592
0.22737942722128
0.230199486456108
0.239119083671129
0.23039355058074
0.228232321379975
0.244199335921757
0.236416074608117
0.268302674296894
0.272334820157096
0.246249479164152
0.274971781041761
0.247275802907699
0.274524188004346
0.275455968704569
0.266611639994244
0.274281763971059
0.272141864165839
0.262167884422499
0.282528304540809
0.289280139150219
0.290560307056596
0.27422581271966
0.275654369742759
0.290314250755794
0.292547760817952
0.306703301920874
0.307179577322287
0.318826926104353
0.314517421148583
0.316128929326997
0.314372130552865
0.313168805357809
0.320465060705641
0.326822698283201
0.326876126125636
0.345462277944647
0.334612991447188
0.332693413840965
0.346571045010727
0.338020713346147
0.339740535387597
0.362997490778099
0.375492596915585
0.373244318383746
0.348010857384341
0.3624685217605
0.37591492989042
0.362681161780561
0.379942403687763
0.376694742780847
0.387215544918407
0.391846078315135
0.38804058925229
0.403561086457224
0.402696633596177
0.406299363820407
0.419009046133351
0.39838666555294
0.426366695227507
0.414127398387509
0.422585682957774
0.43117437084443
0.427302696018464
0.420258379135765
0.427213357986405
0.43581161841299
0.424083845625596
0.451110341554913
0.443200635308974
0.445284148100883
0.457418052832115
0.468128760821764
0.45531066528843
0.469521830524889
0.487776487932128
0.478747823858208
0.483550343131619
0.469335136926926
0.472824413480306
0.497235348102654
0.490212956097195
0.507077528015147
0.500813575578112
0.480935794379823
0.501219810740687
0.528145257179994
0.521394109957512
0.518762121132287
0.504833223654739
0.525482259059357
0.520637115190495
0.520303669552308
0.534520874103086
0.539058230143399
0.572839411474329
0.560478469713446
0.553059185126502
0.580755050539132
0.586025195648028
0.572106676941617
0.561067213966232
0.572532962288268
0.568151258999599
0.56853835824981
0.595872509687563
0.606954515070245
0.58407753432811
0.5721075023153
0.623764689777234
0.613865416167086
0.600254077854666
0.619133301487947
0.60523133964316
0.592799746317815
0.609091608321455
0.621257726660795
0.615438809269141
0.610035781617552
0.600377892357989
0.645620826444655
0.647429701148257
0.645405369695738
0.629932726310806
0.643531970649943
0.708684924224835
0.668990638909532
0.659418404063399
0.689087098237049
0.666882304098596
0.691174188884938
0.707577091772204
0.67005340073889
0.670801732502553
0.701311048484491
0.682108312892748
0.688016296905852
0.727640795844362
0.710199608396682
0.743981009849361
0.719970030343795
0.721361147458725
0.698166930180916
0.712600385318129
0.694317982388223
0.735273412508225
0.762794815221898
0.719773389985784
0.710603158574189
0.710193258600981
0.728118285703531
0.773082296076269
0.748574765852535
0.738881474921125
0.770595577506675
0.793834094613473
0.749177290409076
0.790058441638741
0.778027291003743
0.764367095922583
0.814217308988567
0.761340758763321
0.754454101088577
0.812015674141702
0.788915266421342
0.775957521022413
0.788592170453457
0.822717318206695
0.836385653767375
0.793612388634049
0.760998778889604
0.810266351745575
0.841869896280982
0.79786643249337
0.793825138828945
0.81258322065009
0.849139793595459
0.841039102378856
0.805593457071299
0.80665283237379
0.800497558049678
0.782079418773151
0.85727698240589
0.878444824438128
0.868673911907856
0.815590358395917
0.82960286389026
0.847680483069212
0.824222900756561
0.832147919889753
0.852606108661939
0.852960613242931
0.857621510804485
0.90738131109708
0.866871719003638
0.829775322711802
0.845466741655068
0.867842527005087
0.8774299875795
0.907272569468261
0.906796172999696
0.905196081923666
0.87514099972491
0.867792375449047
0.92638419217524
0.875793209170528
0.878227956237722
0.909719019548902
0.854615989064694
0.860264310961726
0.907002698340726
0.949246374858517
0.894373500861644
0.890875919349193
0.891308174444329
0.910951373803755
0.886085661408424
0.887905591979194
0.932517136524426
0.888503259904703
0.880501171397593
0.883584816164346
0.902281621992171
0.909181916282909
0.909142815288075
0.921594555232883
0.930811532573804
0.980738691033462
0.957521077774043
0.933848935472928
0.958739131220882
0.944488006632487
0.934896191164152
0.948070841873124
0.96788142190489
0.929603399586634
0.92265331563156
0.931321532293845
0.966623101750069
0.960819005944787
0.90434785597643
0.875036713020969
0.937681052735653
0.984038158114363
0.954634849860069
0.932150569316768
0.955112421375525
0.997029511086338
0.965936614286602
0.900823875167218
0.919294303618536
0.992643870430053
0.959542245110227
0.920245991894913
0.924936440460701
0.93959746181155
0.929203304838646
0.937037517752443
0.9876873720756
0.999722820104623
1.03811245644676
0.967773079773135
0.946256199268283
0.949681891700958
0.92173421775842
0.89327352524795
0.904917591119022
0.972242613661594
0.978063857382551
0.974053058601902
0.958150074684995
0.949957093210676
0.996387381613749
0.960896018453609
0.98914963111424
0.984610764064178
0.947344399688577
0.951111258014411
0.923125706961564
0.915027054343769
0.947249031114414
0.94074401735619
0.989156380642491
0.962816254586061
0.951746900798414
0.934032329365666
0.929553680282557
0.949314600691054
0.946312997049964
0.983605516888881
1.02547567753081
0.970707983253236
0.984244257968948
1.02371007227103
0.998438751632066
0.963981686357786
0.98288533155312
0.938446297600634
0.937069916528036
0.942544172905687
0.950152945839516
0.949655555328515
0.942738944452887
0.955367291087038
1.00095901174384
0.95221533738497
0.933805453666039
0.953118001102896
0.973847262635498
0.928192267065715
0.956757592210559
0.938399377072167
0.926020915475008
0.932243060121202
0.942773999887955
0.931442813941045
0.937248983907454
0.922949257824055
0.93118116228373
0.942156028135629
0.943526003381276
0.940211991473461
0.959458648152361
0.93291870201933
0.920123228292732
0.928875171167081
0.973008969279246
0.905086194911721
0.905533236123511
0.961903273480445
0.943454337367507
0.915205088566818
0.925170404109222
0.92389480927634
0.941496639862143
0.919513089381765
0.923036691555819
0.92355035733976
0.904215007194992
0.88913728980345
0.916590160286512
0.895734857404791
0.916368582211308
0.933786665022155
0.916011452388264
0.89272013514652
0.92940858835325
0.89717615704527
0.8790123226075
0.897346228068036
0.902234241466784
0.874252459457462
0.882731634988488
0.881019647080407
0.892342660880768
0.894974399617307
0.911428409749678
0.900914233245458
0.893234857358975
0.873076661992094
0.845626263122982
0.848095840072496
0.880643845180422
0.851986846334456
0.869984193639434
0.85479108947976
0.86304512105567
0.852378078638594
0.842437327015991
0.827603187647033
0.852272871822144
0.853031035725773
0.85050396623464
0.843582547293831
0.856755448924758
0.838589976499785
0.842578546854251
0.823208547004563
0.826947477666697
0.809472678852549
0.837901689615421
0.831582307033443
0.863267392956507
0.844394219440977
0.810418648682372
0.819417352356736
0.814567196303606
0.799533885397811
0.826939640843415
0.80708468202734
0.836536895785317
0.830897474523595
0.828369855747183
0.781199120309916
0.779738886388618
0.790547765292249
0.807750199070588
0.76839389348061
0.795884115674551
0.776659388387261
0.784867938733581
0.764176727581662
0.777190066096027
0.769017350039059
0.781441252528683
0.793305182373895
0.768780936934727
0.746245042215111
0.764370073193044
0.751567882047818
0.760157365520586
0.738293293332928
0.747506311848642
0.74665877879687
0.746373708398312
0.733480855630057
0.745742409481137
0.747122776320365
0.753262022452615
0.725759800805941
0.724931679759712
0.717422297729771
0.722455517512586
0.703243837525939
0.719383023154109
0.714556937756654
0.714849535090412
0.69892241011522
0.71339292971879
0.698759835899741
0.726825070945847
0.683654310701079
0.670006372105498
0.658966796629831
0.666377786887306
0.678729561480179
0.678128628795911
0.680432280074903
0.686282690965712
0.663702078173534
0.654312528601196
0.666140966054453
0.682068345500529
0.643629272004519
0.658485625367526
0.657177112003117
0.652695136709424
0.640174780771123
0.640467162170501
0.642501561482284
0.649027077377241
0.629865934398305
0.642626358551239
0.640551729926865
0.624466861792016
0.612519834841337
0.632404393209216
0.61620253168815
0.625575992362459
0.599298980167461
0.622666681922842
0.604296318212625
0.601516230108743
0.589323276344156
0.598527858649765
0.59115405242665
0.60402211681623
0.595756689359828
0.594558274889772
0.567537041818047
0.587788297304772
0.57011632696111
0.571931970071913
0.572225896456002
0.58266880627937
0.558291893211015
0.557598311897874
0.562254090494498
0.549218645673092
0.53504062110858
0.551284770971551
0.54643596497787
0.537001858052288
0.53072102936674
0.551234932921072
0.532891639490164
0.530609295749116
0.523008570992703
0.534081963102104
0.525208836258994
0.538433178748321
0.520983982488551
0.524545433730648
0.513614934855116
0.52211360048503
0.504810259055213
0.519746560298654
0.511958414831154
0.521310144028825
0.504492560375824
0.503213221531611
0.498606867686432
0.505443994147123
0.495744965041422
0.495872478143089
0.483337655843853
0.486364287220408
0.492431493459951
0.495336445947851
0.477512163245564
0.493499422445603
0.482468555703782
0.479885625339944
0.460484172264207
0.47512050140374
0.468613518795904
0.466652224774344
0.465371213961118
0.471785935738774
0.459887881307059
0.462625097063031
0.444372696525588
0.452574876375209
0.451272343568136
0.452094792890354
0.442276325965278
0.4436294429135
0.438001778258891
0.448674336482797
0.435682395415356
0.446484629131206
0.429676719662929
0.436887504836271
0.429974041751517
0.426726541493651
0.41814440522356
0.423593607926402
0.410999244036229
0.420294105805773
0.417212585954751
0.42767379536578
0.410409995969505
0.412901498432124
0.409845998336272
0.411365427600887
0.408240975056914
0.417068459364311
0.394526259025574
0.415005620751394
0.403093294206143
0.40125558315041
0.393953666542949
0.401579822225609
0.387945916011377
0.397031499044386
0.380235726352128
0.390593435015502
0.380653453405424
0.389490021141603
0.380622576922895
0.382160314210076
0.373364170790091
0.376774179276367
0.364945011974411
0.366860507228458
0.375865557133908
0.379954345926031
0.367803591724995
0.371117136486607
0.354637423432468
0.369191425185959
0.356728063990479
0.364379787472971
0.352276537372174
0.354155897860235
0.344417856083313
0.348142561872705
0.339605298207242
0.344894696288105
0.341797836888014
0.349079587916333
0.33733870978638
0.33800772477287
0.334015143198613
0.341598528718677
0.326121522995936
0.341335283450201
0.327609216633626
0.339435277810501
0.325501635741159
0.321616060383456
0.319589077487082
0.32835203087342
0.319672455699657
0.326968775435159
0.312977233297348
0.322430067869141
0.316637043323724
0.317411860483358
0.307600174176845
0.316375967303991
0.297486880701553
0.317186989456952
0.303179308767698
0.312001806972534
0.300988696771391
0.304490111399647
0.301004601894645
0.30782620427551
0.295060775354066
0.300288444340114
0.298543148684944
0.30023470196443
0.297013961561438
0.302592323212829
0.298217873328437
0.308138407992145
0.291161617526728
0.301954552821928
0.292701908273111
0.29730339308194
0.288159838606877
0.297049524872223
0.287597150019514
0.291437167853808
0.285467195519087
0.298500940481063
0.288420199724558
0.297832121851986
0.289386514932424
0.298250741900372
0.292448948042537
0.302251055172933
0.289552506638127
0.295894386047373
0.28945340225451
0.298968841332081
0.290460440442327
0.298587801192339
0.300264785697483
0.303087904182876
0.301492571268946
0.3073443062724
0.301620437665006
0.308110178148811
0.310669391142337
0.310120209433581
0.306392865834711
0.317558654709784
0.306219534314733
0.323347671584495
0.322139325959875
0.3235014270076
0.314700066355517
0.322000704066949
0.315142247121466
0.326084899593889
0.317940304431827
0.327832299454385
0.325201861561985
0.340310928013008
0.333602811788653
0.330335342698752
0.331267750932282
0.335142034453799
0.327846257998266
0.349605787245117
0.348335941392049
0.340430828006709
0.339910680751312
0.353215891769307
0.34822149642407
0.359328166041746
0.35066109246573
0.366152381130414
0.361204879116784
0.365959604056414
0.357161468207713
0.383312943934491
0.372938724286362
0.383804492795224
0.379396450723281
0.388311296447983
0.383691418504135
0.388433860718295
0.387197231883104
0.394477429267251
0.390360833924712
0.392444858831442
0.39232795402645
0.399736319354099
0.400822651925323
0.405139040766073
0.391713270728377
0.409620099254381
0.402565357799461
0.40417094071518
0.400728130791605
0.412514582720162
0.404142009811438
0.415435756416556
0.405713996899527
0.418949068965794
0.403026231633461
0.412161782935314
0.400419124485331
0.409695359193521
0.398176774851163
0.415224712469699
0.398558361320967
0.403786176346642
0.399743309183801
0.407253055193318
0.396278582752079
0.407375786609549
0.398246119532315
0.411747689697411
0.401295980066492
0.403070997721283
0.394575957110455
0.407482405063803
0.389918108272488
0.404003355634069
0.391767974923312
0.409014056099075
0.396570915459016
0.403599426698076
0.407898320602051
0.417104223170829
0.396924250905062
0.406036302183981
0.394904383427358
0.406692337138092
0.395048886800381
0.410010549319476
0.399558657263945
0.40915253172287
0.390422097975963
0.407798000285141
0.404465625357338
0.406600554142392
0.39826679228335
0.408034169285117
0.398363877712164
0.402652507605637
0.397449989932711
0.401674570374225
0.392593948392809
0.402557085916791
0.393354964193672
0.40881678605646
0.386738080773296
0.407369163578912
0.389537758670983
0.395093010039521
0.386225132872732
0.397010687065219
0.383242549084126
0.391958207727799
0.379259224204393
0.384651166155106
0.376451572881738
0.38382750198266
0.363200045960427
0.374309023695624
0.357511543847429
0.36688977603785
0.359561384219934
0.361001172338978
0.356074740154177
0.357575491468105
0.343887646309293
0.34792532224423
0.342152971974149
0.35384996620872
0.341475217683356
0.337293229842428
0.329410066367922
0.334098557188372
0.326268200620039
0.333522087768781
0.315485149829819
0.324553593157617
0.319254560225974
0.318370218268543
0.3058099653295
0.320484913084082
0.306344926389208
0.314357937811881
0.302220827491858
0.308487494176601
0.302435565457543
0.307090582568041
0.294608742393992
0.29528610632115
0.290075420996004
0.294134270710299
0.285776499996377
0.290745347687068
0.281037171588645
0.29336140276345
0.283339038898877
0.291032887287385
0.280408100179004
0.28224853057888
0.26746134474071
0.275573102859288
0.273824479716395
0.276852325903921
0.275013100553679
0.275996026503044
0.26784518641413
0.274784842480037
0.266697739879079
0.266821181766561
0.265540797692351
0.265275062710221
0.260560990003951
0.261301541079642
0.258939784763686
0.26409780097472
0.255902212366808
0.263429141406848
0.250989767751243
0.256648087838377
0.2527886320458
0.255793325165312
0.247832423900156
0.254043295044764
0.245445820885728
0.251676417944744
0.245028462022534
0.254186362774566
0.241687834224349
0.250150973617867
0.243508157982698
0.244693804786479
0.238779648394878
0.243415034361808
0.231856469365249
0.23663462917775
0.232921033740594
0.239754921905333
0.232038860872869
0.237485239507773
0.231775226937391
0.237572522204365
0.231648549219095
0.230717141711594
0.227970857111249
0.233539293378243
0.229139432211715
0.23369998060608
0.224188139921548
0.23426803893313
0.224314109193472
0.237407776082118
0.228646567121342
0.231339298258941
0.222769715707643
0.225915909326735
0.220006543140806
0.224381534576732
0.217305278577458
0.227999413957988
0.214690138198169
0.220956782628881
0.214308063406023
0.221541294416478
0.22178379902863
0.222711034852731
0.210787746014294
0.221364174064038
0.209913222253748
0.212186913586935
0.207896920491387
0.217766955604954
0.213697082518023
0.212520520609152
0.208338913612906
0.218384780336936
0.205377179654262
0.215221337636362
0.204313700315232
0.214617731718061
0.203906456526476
0.205595079194473
0.202266169135913
0.20688444186028
0.200957995600973
0.206940043051676
0.202441416860425
0.210275156018832
0.192847241877541
0.212024871643532
0.204051384052302
0.201408203770653
0.197702227847083
0.207094917450311
0.200168264099138
0.207286185688951
0.199351912302048
0.200985263141256
0.201709491243626
0.200452243447493
0.200524402217556
0.203931530562918
0.19420378019869
0.20280449068711
0.199214090418091
0.200977280983826
0.203659038959939
0.202012214826283
0.195017145394887
0.2042464632442
0.195152791744569
0.202561267386793
0.191290844294621
0.202323850942873
0.197053178993512
0.20012999098358
0.185660281524901
0.19333638114871
0.189790341195518
0.196366009627935
0.191742448282316
0.193970611842228
0.185927995362267
0.195530043495914
0.186870709791084
0.19092480261497
0.193971305845505
0.188930642289787
0.183151278342371
0.191535503672947
0.186612384905495
0.195698546606886
0.18252162612268
0.18962031856676
0.184458792502854
0.187632674790542
0.180514397934798
0.182819825170584
0.183858053656396
0.192119954306758
0.17775090688706
0.181965389326181
0.182025712719115
0.186566930758138
0.182088889128566
0.1797474945504
0.174860556552685
0.182600514862102
0.17018977147448
0.180851873643708
0.175575995018536
0.178800988119414
0.175647767450933
0.175670757100564
0.17398504871423
0.181480305450487
0.175143801125337
0.174214402767564
0.172500466964068
0.172223297713899
0.175345627465938
0.169545918411407
0.17043640771344
0.174985920934523
0.170831861079466
0.173396076012132
0.167712745699868
0.171653256426429
0.164721190065324
0.171384130021421
0.167189458321577
0.16919021776056
0.163123911984209
0.168537882892984
0.161745060154645
0.16474677337457
0.159085690675219
0.160113512076302
0.163765054475855
0.163419467396512
0.158492328068041
0.163209282422376
0.161464379941771
0.161658366550308
0.161477500859296
0.158578966331775
0.155231292922475
0.160416130544258
0.153830285436054
0.15361104751397
0.151718181079957
0.153672410409482
0.151758049957373
0.155057027070891
0.152046610440124
0.153396073688884
0.147720769990546
0.150585852724016
0.150583933303091
0.151103265764119
0.144825235716841
0.150430073648422
0.143827465039288
0.150093184916115
0.148503800907661
0.149571269982255
0.140149234992207
0.145444636814978
0.138478805901102
0.143055228587035
0.139143472263481
0.141282598381191
0.135231410124849
0.140985262131074
0.139465268192896
0.141737126684428
0.136316140733364
0.14290338135822
0.13477121677612
0.138136386272674
0.137186728286109
0.136580231748382
0.131668810451411
0.139267492649736
0.13303526815898
0.135208069134557
0.132939733203978
0.136671679972975
0.133535542403027
0.134783712788152
0.127969317734567
0.138218061423183
0.129571517349849
0.132223115919161
0.126492746410108
0.129161552586064
0.125832430131665
0.130307763078971
0.128600076655197
0.129733753089992
0.125666961874743
0.128172863275749
0.127148321171664
0.127380615079555
0.123351573866664
0.130005829038632
0.121389423200721
0.126095947257197
0.122092559774774
0.125172270276394
0.122538798996668
0.126547691684431
0.11750844762663
0.124026187220968
0.117950913716372
0.122935888495399
0.116433081060856
0.121014582218349
0.117288489998658
0.121437127433359
0.117281766766151
0.118008412017143
0.116203735927384
0.120854006836362
0.116943960413931
0.123842694937666
0.114820321535123
0.119969636050795
0.112980297450849
0.11999979405416
0.115046958672195
0.115440991149386
0.114132427827425
0.118754462706347
0.111624855812222
0.115253882630593
0.115714707409341
0.115240676336927
0.109866797373872
0.110376598062123
0.10905792717832
0.114670638199274
0.111514156349752
0.110985113358309
0.110281075324916
0.11462967729409
0.11146056750289
0.113730991367793
0.107375753745473
0.109547825485963
0.107875265665766
0.111511811033352
0.10910452103209
0.114705469562581
0.109041057449055
0.112336343054083
0.107081684716283
0.113046890677849
0.107318581283555
0.110605498258968
0.107763952822958
0.109738289413972
0.10713272260869
0.109377959827471
0.107727058623797
0.108055855274006
0.105677756636247
0.110337699090053
0.105339560337502
0.105951766122873
0.101785485702483
0.109900655897794
0.10144483220072
0.106528749294345
0.102283132465044
0.106793762303587
0.10171514589382
0.105461904496399
0.103268692250824
0.104504064745963
0.102798538029676
0.104262110966637
0.102187487841178
0.10331020086622
0.101583279329361
0.102919929382354
0.0996927089557669
0.102554843479148
0.0985437782894861
0.102828933401854
0.102248951740883
0.0968625674586264
0.095673609600165
0.0987234418142748
0.0970496097425597
0.100852372192437
0.0985692360508637
0.100543939927503
0.0993719488514968
0.100389816664524
0.0958832349254294
0.0988525575437569
0.0973920613968018
0.0961075013837111
0.0978076459912275
0.0998979512345731
0.09661169997714
0.099451151583091
0.094593078803554
0.0969810005362916
0.0940805655332221
0.0970736253093429
0.0922106992714219
0.100246403715084
0.0962264755628828
0.099782305645198
0.091378549007502
0.0948198108858456
0.0927468242894616
0.0976291558704228
0.0948274663380865
0.0948126500972089
0.0920276518365213
0.0958305083526206
0.0908737311800561
0.0926971782744612
0.0917641967418682
0.0952372401305014
0.0907084925928722
0.095851222289726
0.0898783030036529
0.0919985593271245
0.0876338818731122
0.090947812837031
0.0866406559318205
0.0896895288232132
0.0885330463567301
0.0866502258538329
0.0865336535726091
0.0892192936701093
0.0881350213994883
0.0914188088114931
0.0911260204095323
0.0867162187750839
0.0826103130055398
0.0858435615417963
0.0833848822774858
0.0852195707846375
0.083424961948838
0.0870421298681572
0.0849462704070662
0.0830715585693436
0.0799316300279031
0.084459216211063
0.0844633882680828
0.083300618068742
0.0816267011597006
0.0817957024263428
0.0819117873065099
0.0815524984878283
0.0824873631884444
0.0832766114017019
0.0779115492843653
0.0799316931785983
0.0782593609074943
0.0813965062508691
0.0785341261895857
0.0799214816598732
0.0789456221776345
0.0773209463599632
0.0758670940673609
0.0810015826497737
0.0749987225102563
0.0769585373250045
0.0735249031159337
0.0791577903526414
0.0760784599304872
0.0798697113578415
0.0766979408048611
0.0800236344906657
0.0750475007184388
0.0756261812970762
0.0738240986624716
0.074517618833628
0.0745327660460706
0.0731229474580369
0.0712602048240508
0.0768746630048585
0.0730713514240402
0.0721168471120814
0.0715603629191345
0.0764179068436076
0.0741491339968077
0.0739976652285051
0.0706757521568099
0.0717401636075373
0.0706325128136984
0.0717848770495684
0.0680545080633792
0.0716410905380648
0.0711660127114974
0.0681749588742176
0.0652566233660987
0.0669277163315956
0.0644859750114679
0.0720853843665434
0.0689408281878453
0.0710337326515388
0.0682615073222665
0.0682435575279332
0.0675023957198963
0.0678678661730523
0.0644084229495093
0.0684083807419881
0.0674103341660523
0.0680537527458459
0.0653965741848162
0.0647669285507509
0.0622206693493838
0.0666880651391595
0.067212940969004
0.0672148534138568
0.0638275218326122
0.0655521541625755
0.0642553533709432
0.0639346775579389
0.0649484298026566
0.0658790944590602
0.062478745934353
0.0661727126775026
0.0623401270818653
0.0627852504594643
0.0633218023548549
0.0653320022255456
0.0593434354007696
0.0662654855867646
0.0630218634604053
0.0643513481512683
0.0649911031358324
0.0659233438395342
0.0641515477153132
0.0656960912078855
0.0654473463638532
0.0662335657615747
0.0618390927104691
0.0642004066519514
0.0607240650715826
0.0622975068351893
0.0621735698581219
0.0604255125091889
0.0561848519377865
0.0609802804938869
0.0636790573577857
0.0657083900526323
0.0567113131474876
0.0544700128320008
0.0584445672653215
0.0584994481760981
0.0576107006012924
0.0589354163864737
0.0591388294858686
0.0551917574017357
0.0613620812868902
0.0632587698123786
0.0603161140609807
0.0641033174551441
0.0600418432238151
0.0618016053194477
0.0646220410488264
0.0588256291021801
0.06091476609157
0.0592898447969296
0.0596199993879858
0.0548827872386218
0.0631605728546495
0.0540022686030425
0.0622438747130868
0.0571526441116458
0.0618247407611541
0.0575569476789118
0.063763378391378
0.0572542491655534
0.0651709098035703
0.0538784290325729
0.0634627869595728
0.0522472813198098
0.0641739174558019
0.0509273688387807
0.0609810668325777
0.0519240511396961
0.0745967323553428
0.0563586492285746
0.0695147753275162
0.04800349564754
0.0607181624798865
0.0564465690823088
0.0713620169235605
0.0524069721831234
0.0620596116158871
0.0493499589543245
0.0670745732823282
0.0600127674685271
0.0577379768238439
0.0597892533664088
0.0542285673576096
0.0661984608145083
0.0472540848568381
0.0696804202512398
0.0490749399131655
0.0681133058521661
0.0463020291188223
0.0734007629684004
0.0461277373559422
0.0672882996237219
0.0504607577229279
0.0609501904092878
0.0542812180806515
0.0588095224750711
0.0543871219105519
0.0539671880742609
0.0567706146466013
0.0555467052855539
0.0535792588359966
0.0570139335889353
0.0527444518388939
0.0570544973918517
0.0520348740346217
0.0575301899884898
0.0495650049821946
0.0563794037477935
0.0520527409179488
0.0568837686834714
0.0536253461293268
0.0551149517358214
0.0503768003894416
0.0552344846403909
0.0510720024011317
0.0559288907648687
0.0506141902052769
0.0573117605924477
0.0514119198507571
0.0543768818093114
0.0518306874605859
0.0542205289357034
0.0520120449086523
0.0551777405427207
0.0507064142481611
0.0547030154431132
0.0530451287674992
0.052530405105401
0.0507697112182028
0.0542002071266052
0.0524156136510273
0.0573436264883021
0.0521331345617203
0.0555175254564342
0.0531947392975583
0.0545715724170887
0.0514754768094771
0.053607919474489
0.0516751138557724
0.0538753485911111
0.0509700791301421
0.053123022524172
0.0540340571269456
0.0543707142274104
0.0522023898885607
0.0538318805390686
0.0526753763677765
0.0540524968749091
0.0482990224690404
0.0528441683149687
0.0521932633390748
0.0526063420042245
0.052395780441289
0.0557499277334881
0.0490894784324037
0.0529602804841897
0.052226054291328
0.0549097085314465
0.0524592958599822
0.0523915871650293
0.0522416342444169
0.053095056573254
0.0515705379180074
0.05459149214498
0.0549390726444918
0.0543569314733842
0.0528190356587558
0.0543341044449588
0.049693945861838
0.0530252428975511
0.0510187547076062
0.0521883287120703
0.0516627487143486
0.0526216121926271
0.0483495664647629
0.0523904037418242
0.051399685138737
0.0534725400586413
0.052876643549442
0.0544963554510707
0.0511660370811342
0.0516070574809533
0.0500638755588522
0.0544268322526564
0.0537812738334946
0.0560322500119035
0.0512445679535701
0.0536118339773438
0.0507663636764562
0.0536996274312097
0.0530760100564704
0.0517963323506907
0.0510906429498518
0.0546823950042024
0.0524339862816096
0.0555570407816311
0.0519689969948723
0.0523779234733738
0.0529290871361509
0.0551104707995097
0.0530719961799364
0.0543141668007501
0.0539517736036335
0.0555361586942672
0.0542692762474745
0.056364617834898
0.0510929444758144
0.0552126760451323
0.0544626559386774
0.0531223076128248
0.0520421183245957
0.0518413187295548
0.0521591314129257
0.0567923350716225
0.0513629869875268
0.053766130963674
0.0529334728502433
0.0530144253762469
0.0539334766812179
0.0548316764664351
0.0518442978796709
0.0536798792740215
0.0528807257899817
0.0540944727636011
0.0525059568412462
0.0533520888831351
0.0538125448897284
0.0559974239767039
0.0543234107071631
0.0520355515712786
0.051391493275183
0.0560218664210684
0.0516415748662893
0.0571580359809221
0.0543182766793687
0.0556988535667901
0.054015907946409
0.0538970347575053
0.0530827332341568
0.0548029912528347
0.0525516742211219
0.054891353425936
0.0536483921938436
0.0557695044714169
0.0533923993548751
0.0534156137990171
0.053743555524773
0.0563364179611083
0.054648548441564
0.0539475169736512
0.0547935397034233
0.0565545391528233
0.055701147775267
0.0583806362188993
0.0553085978582555
0.0561698546336499
0.0539889968028783
0.0562785634780814
0.0563611351919239
0.0552530622368496
0.0558469286243793
0.0544489421454185
0.0557436957001244
0.0602935173554567
0.0569169814964745
0.0549863626971807
0.0554310550919297
0.05844839803099
0.0556681163020073
0.054610739590569
0.0544454864316725
0.0566238099612768
0.0559410845618149
0.0568366370927328
0.0551211982140031
0.0537396380243496
0.052008456441906
0.0542577475334579
0.0537110965990069
0.0547722506129728
0.0548684500692409
0.0547343603834569
0.0537244169178471
0.054712023238555
0.0521285943416739
0.0548911585586783
0.0537668176567795
0.0562308159457463
0.05256496246249
0.0532079064575906
0.0516439636657205
0.052663588952912
0.0527528001012544
0.0537745178503373
0.052457750795367
0.0544965748093507
0.0515339933351114
0.0532232535887111
0.0509174084353334
0.0521941938795948
0.0524983833709917
0.0534407582089082
0.0519789119739969
0.0522979597147084
0.0529277350490456
0.0510070994428678
0.051040891147898
0.0533725073345424
0.0497338128957576
0.0531723837931861
0.0529790605660353
0.0523851102091023
0.0510736800278284
0.0516804291517105
0.0520102241607757
0.0534163239377417
0.0501514890189435
0.0502392065609358
0.0540991638976167
0.0531925312503964
0.0500864123715278
0.053499343688634
0.0529596031367784
0.0503799078452681
0.0493992196550007
0.0508290721583043
0.0521378753074019
0.0525410987683055
0.0516426371141388
0.0520622071662603
0.0500247532913065
0.0510561042269818
0.0529212967749521
0.0542416173500332
0.0510350898243467
0.0502427610491535
0.0506422354603241
0.0499131433314289
0.0480206752943577
0.0502797694572133
0.0498399997893325
0.0500815184707881
0.0514026311408186
0.0511538953178168
0.0503380302129018
0.0516316475270828
0.0498946931999745
0.0510434320769083
0.0499692594926293
0.0506811378848884
0.049034605593968
0.0511918547207939
0.0488589937987231
0.0498673549745341
0.0494606990578371
0.051612934127054
0.0522375317471226
0.0503598934972306
0.0486067356418412
0.0495975929513806
0.0485733444535909
0.0484677441836938
0.0478560169592793
0.0496474537210813
0.0485829890028575
0.0495458950340845
0.050140967269544
0.0498172681453708
0.0478206501262823
0.0474221488075225
0.0501652096776193
0.0490891750133209
0.0467841137514736
0.0500516017540088
0.0523064064514003
0.0502755907765284
0.0495108606946766
0.0520709180966479
0.0508182500671053
0.0494949268798864
0.0477402478247079
0.0501069408034388
0.0492300511559363
0.0504203892279375
0.0494436563929118
0.0485788034487744
0.0483639406319544
0.0499261991907298
0.0499380481961633
0.048078773202657
0.0489163409460249
0.0488373896826336
0.0458796467848457
0.0474118583639642
0.0478932120620692
0.045936876453721
0.0478594105766079
0.0497746399976178
0.0472452542458273
0.0470178367174025
0.0486131669695616
0.047499642582666
0.0452240588121388
0.0465416009307442
0.0464769866993778
0.0453361182409098
0.0455611909034017
0.0488221097793682
0.0483190246234846
0.0462745689969248
0.0440138180015506
0.0450920761711885
0.0466788805769595
0.046449859585162
0.0444617927787612
0.0427926218334476
0.0426844996630184
0.0425912506199363
0.0427546171213519
0.0437868092052186
0.0439338997746646
0.0460342547774769
0.0444705902409459
0.043100633071932
0.0428663797589293
0.0430344543177311
0.0420477198003804
0.0426739621124426
0.0424828589663506
0.0428111357319061
0.0426017734770689
0.0417212859456857
0.0414169954720705
0.0455879030494851
0.0496101747600717
0.0446581934334182
0.0430772790207512
0.0454394540244049
0.0450630526421625
0.0448596123558673
0.04364975886615
0.0430607501982809
0.0416118688112754
0.0415563096457576
0.0441789161254988
0.0431432621409998
0.0414717424189615
0.0416933167365766
0.0425974292517041
0.0408888590080132
0.041427357941379
0.0437065107451599
0.0422718902863661
0.0414262891495056
0.0409004996659956
0.0423032649894421
0.041767419787598
0.0417722862607253
0.0400924381929022
0.0410999488800572
0.0451840066388595
0.0472796935660242
0.0435526941201637
0.0396265142789845
0.0402078495035866
0.0398240876093192
0.0418697616373164
0.0412593663378823
0.0400381505461791
0.04143896386676
0.0416855747727981
0.0395238532488541
0.0407734175436812
0.042710773019475
0.039728251109453
0.0397238883820616
0.0427472592279902
0.0390765315491457
0.040216292568459
0.0409873094379052
0.0386223673825678
0.0402053928546772
0.0394436060722774
0.0408006183717018
0.0422907848566849
0.0368975496088586
0.0411229783665706
0.0473542392455905
0.044349041460325
0.0386087124558527
0.0366232180704498
0.0381954993213523
0.0404919191639261
0.0396843071138119
0.0392911441747097
0.040588057472111
0.0420850324269755
0.042434950074483
0.039493402467612
0.0380565421827431
0.0393559431541253
0.0399567738105165
0.0394237453677875
0.036983218140434
0.0390505136558171
0.0401169282419951
0.0368568994239446
0.0404672814609431
0.0509847666789513
0.0414105255068194
0.0407254167474205
0.0398250691360941
0.0389511017695465
0.0492793211139278
0.0460514290605065
0.0411501820274038
0.0373108407858969
0.0383201522949709
0.0392257361291071
0.0399620860543255
0.0365270876872476
0.04055177528688
0.0421493873833905
0.0407560475351746
0.0423367329397205
0.0415110763000257
0.0377912338209111
0.0388452187152206
0.0400053551950072
0.0393253448006005
0.0405348039752933
0.0399492612954289
0.038942453624266
0.0390078170601017
0.0382203058912569
0.0387142386224221
0.035664923531363
0.0409771726048741
0.0430536803763909
0.0387794216716196
0.0383656796692629
0.0404140187378317
0.0354997407930473
0.0425274777320613
0.0461927603393743
0.0423706188870705
0.03948538203155
0.0379321013677973
0.0391393933944646
0.0409676513009267
0.0397027964721515
0.0382913334163958
0.0385676344378127
0.0385451861962611
0.0397525535447655
0.0383947956673426
0.0381412252729546
0.037895917568996
0.0390464316207428
0.0359318329584232
0.0399640827480676
0.0396894551106701
0.0381485589900529
0.0391497798887123
0.0366237562159821
0.0415709466431552
0.048690956013665
0.0512523102364589
0.0437254690714612
0.0434646942071159
0.0402727250044682
0.0396176805490257
0.0359507654130928
0.0383883858994968
0.0391120635804558
0.0402575501026624
0.0397799074290546
0.041017769472103
0.0395483880012624
0.0382955546361372
0.0369978927260705
0.0381911498290618
0.0381757993987631
0.038333970064023
0.0368936015731026
0.0384648983494837
0.0386598079141487
0.0394752674955427
0.0419080530472718
0.0421121771762991
0.041416184249104
0.0303943259975571
0.052561814612489
0.0507042952190134
0.0460191867972992
0.0429023909500974
0.0414098759816425
0.0384971515766548
0.0399103178169531
0.0388245237715936
0.0423447544083697
0.0396602456943871
0.0403664177073815
0.0378672628750087
0.0420982572738564
0.0406770508345709
0.0359443505515059
0.04418167766631
0.0572129420676216
0.0463887061893543
0.0464130353551342
0.0372197994880044
0.0490891252437019
0.049828051066755
0.0440124384910941
0.0438898082218073
0.0435541831824847
0.0408764640815413
0.038679069156638
0.0380344386003793
0.0394037739158961
0.0418262939415177
0.0419282472655063
0.0432616639185359
0.0403892829428341
0.0412708994456122
0.0429623139830595
0.0421620101485381
0.0475186587636962
0.0472513899710126
0.040401533621373
0.0455558988409595
0.0437249870265153
0.0387538238402455
0.0412761818457114
0.044736344271756
0.0409396683757804
0.046025261298131
0.0510756682063397
0.0467652703079382
0.0506259296295239
0.0514594709526071
0.0413899448485097
0.0439758239834811
0.0465660166949139
0.0516669792340775
0.0354135808762437
0.0519441720163151
0.0562148625316781
0.0635179210356456
0.0532651831274692
0.0479063876198391
0.0460882373319355
0.0472868377570695
0.0430004568062411
0.0442984905733124
0.0577277961507493
0.0466332232111376
0.050284035903689
0.0365299746459549
0.0561845547735799
0.0521561791607465
0.0516720625025661
0.0478086885426292
0.0456583828552551
0.0434196559529532
0.061069131759617
0.0433241931808322
0.0446624141870787
0.0540875016656388
0.0677694869124524
0.0718772906015359
0.0481955525095561
0.0464645913388834
0.0642345903148973
0.0549758050186844
0.0520316001664018
0.0462770600206621
0.0538011568514194
0.0420940158120231
0.056834351967651
0.0677378190046316
0.0528399826020385
0.0540311762928455
0.052336085241766
0.0496908477812959
0.0622947807715354
0.0569505668609042
0.0544711976417525
0.0535380492587633
0.0535234394660594
0.0452401618104602
0.0946985207106037
0.0593006877389636
0.0725925268325777
0.0651400615975595
0.075094346960416
0.0613325858360892
0.0649915737741179
0.0546269353183744
0.0686354425908464
0.0683469055171013
0.0710220795921379
0.0496083183797951
0.0768156054373835
0.0726076449278663
0.0665465074743582
0.0673673496550027
0.0616075902431413
0.0525851566644356
0.0809384764455758
0.0954859794440984
0.0916292895520854
0.0701207635752596
0.0736395720908469
0.0818863402301757
0.0748512742195418
0.0706125260597617
0.0738391766254253
0.0721720860856352
0.0710905229466006
0.0701571342493137
0.0799394869992321
0.0724320391534248
0.083951215193256
0.0679203062175708
0.0797245235154517
0.0778685748368441
0.113679847996525
0.104256858218979
0.0828364157468113
0.100401113248704
0.0981190694905326
0.0928023519657532
0.0824218088447745
0.0810864498823958
0.090274570810584
0.0913416446805421
0.0909387076573149
0.0813896957333674
0.105094188598345
0.095759013253867
0.113620463983477
0.106221678617781
0.106049228016624
0.095110580423772
0.0967700767184466
0.19850855046971
0.1248365365995
0.129698620315837
0.106367551184363
0.131402126640576
0.165187530727592
0.143224092959596
0.131146044768471
0.136363293578339
0.134469954908824
0.143216980741866
0.145065928667137
0.153390716510568
0.164908555183121
0.166687772040974
0.152548843641256
0.175403965422797
0.211248562792196
0.226767669428531
0.192457958548905
0.191392398048123
0.200225327406652
0.21033038773661
0.200471749911745
0.21633402158274
0.197076027183602
0.229013613559763
0.252513412739588
0.237879758776965
0.229582734573781
0.238436356518258
0.265037007606688
0.237908684890578
0.290588780764256
0.267048112751639
0.278106825088685
0.262991277254374
0.278385865607686
0.275972368017992
0.282203327438909
0.300408120041523
0.312979694659739
0.305066757832053
0.301567310593704
0.306495532908722
0.312045821397426
0.315857564117013
0.32159388067974
0.309874033414477
0.342610003934862
0.325558028240848
0.460653834974288
0.349347763843475
0.350008452952329
0.326073368741652
0.341259633920351
0.341698270115563
0.336985309671302
0.364697793697381
0.350915917079592
0.341339015320457
0.338410343813923
0.341838140332603
0.330558233121086
0.330209211239627
0.348761601500096
0.31923866452677
0.361895528194301
0.314017541665293
0.389649149128566
0.357217728282223
0.35222516363001
0.336602551911346
0.341729278808619
0.319333147005018
0.339054733149858
0.318406296943591
0.339691449329927
0.33167432816683
0.330451704666107
0.322097189479546
0.314825948705732
0.334594238790284
0.326538214667373
0.309566363743062
0.318103780297244
0.299696991299214
0.31637839005849
0.27936837573385
0.312103069404164
0.326500169833469
0.305067051490734
0.29576223819582
0.290394088428711
0.291924895793027
0.289611259890922
0.285846440423979
0.296102970574308
0.283922619244176
0.287068041641908
0.286775202265089
0.280250142595603
0.278934207159267
0.27327427293426
0.279015936800593
0.278692081650962
0.281908212430944
0.2781774414187
0.280994101430396
0.280214807727856
0.2760352857823
0.278385600798135
0.275978537619596
0.27950144106822
0.280475556938047
0.276039838961774
0.280175898621
0.274953311972586
0.279437166703941
0.277428176418827
0.276674498208569
0.274516805201667
0.275319698255956
0.278144625493748
0.275336817053517
0.275853893840179
0.275469060536401
0.271414084586929
0.271151088756084
0.271547531251486
0.272990053536869
0.270535677243758
0.249999411693671
0.32821013693842
0.279224166909288
0.278342759448342
0.261069037619106
0.271666449393577
0.261486993168795
0.257304591797923
0.291008938298982
0.27134464945767
0.264689766708831
0.257730500247324
0.244657717664009
0.268242339221356
0.257370017258785
0.248298527524315
0.258942434944997
0.224176408968639
0.286789762143621
0.245976071968317
0.313133417166215
0.28403259634481
0.263476989768969
0.234245578293514
0.256314588076729
0.261409102866933
0.243259140406446
0.253133342929844
0.224039051396286
0.274259189091087
0.241437629344872
0.246186133201
0.232014846811545
0.235075883462957
0.260023095808961
0.264093288781542
0.236100657286319
0.252461489100786
0.250072277530558
0.240638191605504
0.264402618966503
0.278036355557034
0.249300433297855
0.221656336645128
0.22764851204006
0.212752377447706
0.214191516956352
0.255262331175743
0.21606320504777
0.236263390714035
0.204918490857911
0.215667821457278
0.206164465057815
0.227601154897642
0.200259595634975
0.212364577269953
0.231296539582623
0.194809591024918
0.225758383173217
0.197028861499061
0.234366152002879
0.223243476986319
0.209614300449642
0.176628816570412
0.221884272627061
0.211347602899215
0.198384022144634
0.206147965512668
0.175174408466621
0.186331218024337
0.198236858861738
0.173734703793923
0.196545229734543
0.188125027670171
0.187677150035968
0.215399152806377
0.208233041119514
0.217104538872449
0.179498277529593
0.168321179684338
0.166619176294216
0.166360193142739
0.17366206091268
0.150999767925577
0.215774590323346
0.166459413676177
0.158453868210642
0.201001743556917
0.178510453268707
0.173197987997595
0.171071164866278
0.166555767347041
0.168650881770431
0.182701740091895
0.213674110498531
0.1782101874628
0.191587834315443
0.201923097842651
0.189133531395604
0.188288733415526
0.188328896635092
0.192687198998364
0.191491264421942
0.207428226816789
0.197570166368279
0.202662619544391
0.21140910794273
0.201167372438003
0.238540737474783
0.241513760144717
0.213662599352515
0.263548360075082
0.227968192776462
0.299116693284938
0.248104941780151
0.256307288032075
0.250401241433302
0.252734221177409
0.265432606829529
0.253636432939777
0.272691148122662
0.301909156196989
0.269963765840558
0.291744187870773
0.273263430526146
0.299695624886138
0.269471020786054
0.324886031719441
0.26992236939507
0.378040266448006
0.312724367318129
0.333036346440378
0.31343941162331
0.300041500334721
0.312738817343215
0.312342252196557
0.316715602339362
0.305280035671827
0.311429103574855
0.336327336340617
0.305199957059191
0.329607708249248
0.317338092972802
0.327656419714697
0.320204009312929
0.327987974000185
0.32718946429373
0.332476381431288
0.342091004732708
0.334084519021056
0.324344105198133
0.418229792451942
0.339187148573359
0.364101141197407
0.341992687992394
0.363897161424849
0.347686364916977
0.362682472230627
0.381553013953709
0.370149177163661
0.36476878375706
0.378305411153449
0.36514039383976
0.374839539193605
0.367853110819845
0.400938463090142
0.364526683390175
0.4182521798815
0.355651417745691
0.438806520442631
0.408551390620339
0.408736660350857
0.406308623857766
0.395777675435574
0.401301584602889
0.392504298539137
0.396590613472752
0.407685472010647
0.406569079487343
0.400074554561033
0.407695844314773
0.406085867075696
0.409709538412755
0.404431364197733
0.396723962807953
0.4235590672274
0.400992280808721
0.410069417982796
0.399027482036791
0.405732101995787
0.383183650487274
0.422132520202209
0.405855716025747
0.413865132736158
0.404298620478896
0.412531269355069
0.416784841524256
0.4139133855525
0.392802417378168
0.410963835672822
0.390862703985854
0.419947880659723
0.38957128386459
0.423789829265853
0.424281525391065
0.410875384906067
0.410992076749412
0.412543769840286
0.411859379780555
0.409301340796518
0.411954383960587
0.412886857127759
0.41182456144294
0.416074964792495
0.417037384210104
0.41888447310198
0.417058510365479
0.423474158392489
0.433508301044439
0.430289344117424
0.409667436878148
0.420402078135079
0.408689578789757
0.407751191321969
0.407303478378155
0.413804475898111
0.398983573101543
0.397970144013555
0.392309224870876
0.390487508467606
0.411810929911715
0.382997009696166
0.40213630286714
0.376337424972299
0.381017426504517
0.374296675469213
0.376523877903992
0.366211063233946
0.364230545843931
0.375742671299829
0.362966434389065
0.36794969842595
0.36120899652691
0.356751784695363
0.356088926391016
0.361394637564342
0.356694685182435
0.359792792083364
0.355066055132996
0.357191312684598
0.352216214489083
0.353376996754231
0.353046122974708
0.348412155268864
0.365116109186803
0.354517315806916
0.370216476049104
0.354196998400243
0.357240749673164
0.354754515791847
0.347625173994831
0.356540154950707
0.346919049767869
0.34939223875161
0.344471430484992
0.350516465259202
0.345602088746084
0.352254113575852
0.347705368722915
0.350566483982317
0.345871762117023
0.350288008103003
0.344880595108918
0.351106755879501
0.341355705854477
0.353666008666872
0.345814019857692
0.358645404983714
0.345402082847914
0.348730618001854
0.347021565406349
0.347207187478563
0.350399456661474
0.347993567637782
0.349262114858264
0.351685858774782
0.342852678364214
0.348841132609533
0.348305157068833
0.34443559693656
0.342824581293859
0.342828629841232
0.343219585937023
0.342320015381545
0.341327030755054
0.341131220297658
0.333527895084928
0.337167759901641
0.334094207110092
0.33026853049524
0.32769292732065
0.325958410492278
0.323129430002789
0.317149401369002
0.316075726811013
0.314116845164216
0.308186316078166
0.31473694131395
0.309340402489427
0.309215618986764
0.306815115482966
0.302429458151712
0.299090105586819
0.300983964979862
0.300154102385038
0.301844623471197
0.298842523272549
0.297352636839762
0.29592128907286
0.298120487400752
0.297865573711441
0.299324515688135
0.298920065181932
0.301536375139697
0.298049320829963
0.301470994969361
0.303385537142371
0.303287825896169
0.305133454366933
0.30470582841546
0.30825910004694
0.306224692353661
0.30830180974467
0.31008011677443
0.31117079195948
0.31553946297699
0.313245345351006
0.315940464267847
0.313827664968893
0.319478733930796
0.319300809576899
0.318917243929465
0.316860438751344
0.31822446772336
0.317252964726405
0.318416101505375
0.316162618367406
0.314238730152758
0.316460791403114
0.317767477917016
0.314652550507293
0.314933918456044
0.312733924845152
0.313969413868644
0.31347819936272
0.31427408404148
0.309566810405253
0.309039957188279
0.308117923309002
0.308919768281441
0.308417194154903
0.308323674531365
0.303651179172679
0.308111282779084
0.301059741142355
0.30357266981084
0.299147466814048
0.298058876473116
0.299346366735809
0.298344259341442
0.296426965100015
0.296081232595572
0.294636575031484
0.295861080982607
0.294410880984515
0.295083220647053
0.291237350303269
0.292541219362885
0.290201268908263
0.290113542993303
0.28797386093769
0.288812755703742
0.282172337575669
0.284455285778131
0.283671657084347
0.280219073065645
0.277067084769134
0.278967318228442
0.274581687069274
0.273515696129881
0.268212142081747
0.268118539314651
0.271300148966729
0.268138157058816
0.26216878425755
0.259836208983683
0.259604420995872
0.258849300609302
0.257025611715399
0.258711964901905
0.254483883066234
0.254975168966797
0.254864452132006
0.255910233134422
0.253066677365959
0.250123617616503
0.250921230777398
0.253061355288801
0.247842438730727
0.249310254350445
0.244695295110778
0.242981551181624
0.237898659724355
0.236906931864834
0.231850299823202
0.233433716046302
0.229317589348326
0.225810158171232
0.223973241514118
0.223699901615964
0.224109312406198
0.225098005118309
0.225903639827281
0.231987318692389
0.234116394584493
0.238742892074044
0.245141703889932
0.251429865759812
0.258329997251654
0.270421028263309
0.279196657982485
0.289013047803936
0.301752638951655
0.313083774146845
0.324535155067551
0.33363621860325
0.349396746149035
0.357166673945578
0.369787741848295
0.384846678770064
0.393751207131925
0.408620145082227
0.415780356730079
0.426414527008438
0.433102803965417
0.449281357327453
0.449642448550244
0.463973044254256
0.473477569351841
0.484562879448999
0.486832979094302
0.493755170455242
0.499625042798291
0.511187890276653
0.511026080808164
0.51967668377306
0.520384814367531
0.524608584951816
0.526498249006595
0.532920815810859
0.530854498434444
0.534866074218324
0.533232306704689
0.53146550413374
0.535968733575731
0.534298585143421
0.535633989892014
0.538982144478147
0.537069585102271
0.540997070793808
0.540277212614594
0.545397805715107
0.548679389429346
0.555227355088344
0.554794168488257
0.560630783484971
0.558383514500332
0.568091478848491
0.573676615227531
0.572800350392631
0.583464870134726
0.590132733711547
0.594992967035116
0.605277809745688
0.610695261972238
0.614626313715646
0.626189982924698
0.631591698844834
0.647193246014561
0.649287945598358
0.654056330566827
0.66683342122349
0.677984126227518
0.68189863426116
0.679371599684552
0.68755121958658
0.694127062041529
0.696252811649298
0.693572319733046
0.694748076707391
0.687691925731789
0.687115392043474
0.679870862346878
0.674596885382191
0.686162058306165
0.681287919463475
0.681276548204607
0.687533266650163
0.692021732307066
0.702940853171606
0.710611680255959
0.723552184909021
0.742241641803367
0.745712431133885
0.749292648330528
0.766106848390931
0.773855710317596
0.782862122614983
0.799485822300575
0.799518666717404
0.825270104668742
0.83046688853491
0.845005542766881
0.875449655415718
0.880123435751667
0.888843365162671
0.894392402968966
0.917832876753018
0.934172697695269
0.93987318916284
0.942298263560468
0.973183721983153
0.996713073591649
1.01506972909551
1.01896003631022
1.0447485140429
1.04466409517976
1.07661946309599
1.06600220963366
1.1041075461491
1.10579787503568
1.11457137098842
1.12983113485881
1.1547808210086
1.14532406461994
1.18215939653432
1.17349512400677
1.17721096097707
1.17401980116278
1.17503968678371
1.16245937287625
1.16257030640793
1.15093246952713
1.16348043839001
1.1586922790952
1.15975841381913
1.16438532571426
1.15166593672936
1.1473880404209
1.15494433026617
1.16543693965386
1.18145363192477
1.16322548038708
1.16236234461524
1.20011887053744
1.19977549191517
1.21347926761068
1.2265461143273
1.23653357010382
1.23544560095583
1.26044825091641
1.21888633901464
1.2484162632443
1.29196886371511
1.26145725578753
1.29972883486213
1.28687071543134
1.30246845388246
1.30295474332263
1.33546417693694
1.34439937322942
1.32135726059844
1.33787565147116
1.32221019543108
1.3367840403361
1.34039969523605
1.3442480874936
1.33980524669808
1.31297313060694
1.36509682645453
1.36366315641293
1.34190604614129
1.36092399410933
1.31051564890143
1.34492673628176
1.32259869199806
1.30722587144783
1.30332076294642
1.33641600421445
1.28760392878928
1.2924926849861
1.26654825678321
1.25969661424567
1.24392161052984
1.23470212730954
1.22210460745733
1.19894808386975
1.13907099276701
1.10747951409989
1.05591591925952
1.03915103817852
0.996420741684317
0.972436155423721
0.936741402029333
0.899080586172537
0.887041223584639
0.856486542085494
0.821264901131217
0.822413811676838
0.809193382030118
0.801008634556555
0.800831678883435
0.793983032977982
0.771694739251199
0.767308733228995
0.772696862655644
0.770105703759534
0.758446724316051
0.737511218550191
0.73626473396389
0.729089671102631
0.712967026457112
0.703727907038017
0.693142074953885
0.689875503895941
0.667664372455681
0.648943012173112
0.632285505017625
0.613099022624079
0.596875424883479
0.566516215990171
0.548112996126536
0.53285346013026
0.514231255854125
0.495282749918639
0.469022686106422
0.447636862468113
0.426950393951021
0.415385082921574
0.393343669259151
0.372426408740583
0.354498027506476
0.344462360585382
0.330409811732685
0.319453184279205
0.301470514236475
0.292156272517188
0.287848040100703
0.279727403203405
0.273687083991093
0.268220306922807
0.257751164478923
0.254167702929242
0.248090608149678
0.249009535909029
0.247603503734172
0.245009395675445
0.244933249514335
0.242335258684279
0.242932043753632
0.243221599689562
0.241683465260429
0.241350572112185
0.245277780728126
0.246804759765215
0.248220955428442
0.248350718982656
0.24765944831047
0.250789101356335
0.252630694530399
0.248727989690598
0.245683573256132
0.246773315395377
0.240569605036824
0.240053385494879
0.235013496294354
0.226127385273998
0.233363194900332
0.236665352695969
0.228341334379889
0.227849225694214
0.225166681588964
0.22927858589017
0.227857442505778
0.228126044417898
0.233762929192517
0.233143065249827
0.232590576005024
0.238238838959278
0.236871712806672
0.237652231073386
0.240430247016254
0.246541984514476
0.249149278261379
0.249653323196918
0.245820328197311
0.253632731130048
0.255502882506421
0.25957249465015
0.254557654621868
0.25745366654629
0.254464859996613
0.262311631571267
0.261989162555878
0.256958855803586
0.260295388674794
0.264956447081154
0.26485653316036
0.265165926389495
0.264702939984423
0.272014364089899
0.27251823638709
0.274374190272518
0.284561350191139
0.291434514123798
0.293650480981361
0.294873243876951
0.305413633971527
0.325757878041525
0.327914134755229
0.329119250546985
0.343120706522993
0.3558819119778
0.347131035989263
0.354760132147612
0.348725901164753
0.351283582403047
0.343116425820801
0.351496692281691
0.340332023843377
0.333445633768387
0.327772446416282
0.320316249452527
0.316342423725778
0.315430151215003
0.309593138007314
0.310142876469355
0.303411240330784
0.299890935135182
0.308396367430546
0.30355600560556
0.307684116549919
0.317718756265789
0.308297465794701
0.315060130472783
0.304279073552104
0.306596631947023
0.296235538911807
0.300177544336754
0.291718774067283
0.286793059470936
0.278216304677977
0.285037655847744
0.274724156355149
0.278675303513712
0.281098181082152
0.284684732159548
0.275868198468927
0.265492222661429
0.267702074523634
0.26747071440351
0.264239187301802
0.256065080268445
0.256658939880544
0.263790707315432
0.25578989258302
0.264492686330771
0.251246159808113
0.248230363252672
0.254424983552735
0.254151989278719
0.243453358825561
0.251570578445418
0.246545925910762
0.255107759513515
0.24653643857931
0.240768140202599
0.236307513944866
0.24172780099404
0.230155384333124
0.234236682254974
0.23106852169104
0.224290642226673
0.229836931841669
0.22976321345406
0.22315180775015
0.230452523169571
0.228695546493
0.231258904557747
0.222773797218699
0.21850315947927
0.219282558161334
0.226075132262748
0.211175736181038
0.235101899898531
0.228040664293578
0.224819601842545
0.222234438017488
0.228065843688785
0.22031158197415
0.221935051554372
0.211456128151635
0.234019301824582
0.226334139193777
0.23298173554144
0.226037888599202
0.235454507937804
0.230557558994785
0.233182680327681
0.232113685440819
0.2347555665407
0.234981664622406
0.238240991825221
0.242190989028607
0.243899455045543
0.248956689097087
0.251058922046348
0.246203132106969
0.258300063088809
0.2606547819351
0.270692074172651
0.268357118350088
0.279182633967829
0.284716993317357
0.283855969385495
0.278166945188219
0.29445334299758
0.299078049167197
0.296760657571263
0.30849263275128
0.328080940567467
0.340884895578177
0.347525152087466
0.333734206601617
0.363641782479793
0.380951598592638
0.404437615499555
0.391043885882934
0.404630054697345
0.407553627886115
0.415755349613191
0.415262772109739
0.42810958891359
0.41851842957236
0.422037365126152
0.40854566023558
0.403283049734103
0.419219336059872
0.425081291513557
0.390360764913499
0.406622687945848
0.399563128514908
0.410825345357159
0.405523646713207
0.395483418141293
0.389996825405622
0.402933220361006
0.388962512591957
0.407244316159641
0.380815610113408
0.375495383388967
0.383998799696919
0.387660440861528
0.390631976583232
0.404131940925874
0.36765349134554
0.375134234565073
0.374537243464542
0.366423525118994
0.351642364014572
0.356387345165827
0.3306326936403
0.358300629519053
0.35669228073211
0.372397888674405
0.336783824823599
0.349927453148604
0.348767637486068
0.361906870797127
0.326034176157429
0.3408746653763
0.353626691970464
0.35053689569695
0.35149348558643
0.354795902871811
0.321517401094509
0.350662929631388
0.354279179182334
0.362010825031605
0.348352574788718
0.373543092640987
0.351098106343217
0.35459546081436
0.358948816222991
0.384988383275747
0.37905442423347
0.371553748865872
0.372130677938972
0.38936886216834
0.374876796433461
0.370683603632847
0.34878495359655
0.415822706052636
0.385299775448004
0.375878181857555
0.376859658252138
0.386563132903015
0.374423892535958
0.356026022526298
0.367242100768213
0.39927088143181
0.394121357355344
0.455637828223479
0.427705753729861
0.425707174043892
0.411006368175377
0.455205705627108
0.449310574900627
0.493991907341002
0.433530751864133
0.464075054750763
0.500442288440905
0.461212613647141
0.479093904732733
0.530752236121196
0.505080515322582
0.558568436381449
0.538909894761887
0.519794729318998
0.535025716848674
0.52841380606763
0.518928366530775
0.538582399797344
0.491013912254554
0.4995511729371
0.493016142347068
0.482976017452699
0.442533077690807
0.495449381346268
0.495275518682041
0.530157990093594
0.529820321622784
0.494560313494047
0.474525969073086
0.473032704761925
0.399125541107841
0.445587095579057
0.438356196509252
0.447539092702871
0.428002224392732
0.543152377538778
0.500191061166519
0.535983823275707
0.533215889167167
0.447713616773304
0.436423082658894
0.460270028697615
0.421297344319822
0.49929989810636
0.546531123896807
0.475680209313326
0.429241854129486
0.496023353615338
0.423494321533595
0.562803812723787
0.508286297450707
0.659758519891313
0.631931056632713
0.482032135595438
0.421330832667272
0.569888187445689
0.530932420587782
0.421508596418965
0.319588501698356
0.497342203479361
0.56765181033759
0.543992153639323
0.527003921127212
0.522366861879703
0.610379311528461
0.383786237439409
0.319509530724073
0.433224974297553
0.396095600325544
0.674605422740668
0.810627805016698
