3596
4000.36533379555
650.420452594757
1
2
2
0.0420395623600229
0.0534574109252573
0.0458533193218797
0.0501401084594588
0.0531820972464321
0.0457021834540481
0.0530465646578762
0.0558124031233972
0.0469039638047177
0.0510455397948279
0.0545995567443801
0.0509922352964532
0.0436756980390117
0.0485697763221336
0.0497140359604703
0.0505699497910353
0.052785223809201
0.0460209303175672
0.0484819222153683
0.0446164830191872
0.046325333134308
0.0472985243553548
0.0436271655600248
0.0457689519435276
0.0509345172133067
0.0527955207766803
0.0519799962269682
0.0468720278705298
0.0513589727717924
0.0604697204139849
0.0539567983062206
0.0435314740468657
0.0514805373642663
0.0436993073606799
0.0489846441133694
0.0582063021622476
0.0505792796099048
0.0542525623064828
0.0439092308316724
0.0566311051324797
0.0610947871545303
0.0443050362900298
0.0509836358588774
0.0578745431729967
0.0494553408502799
0.0461528812560785
0.0561654733653561
0.0532062013387362
0.0467285208503402
0.0488380677320963
0.0522561092569528
0.0399026740674707
0.0575644609114541
0.0567042794277496
0.0513676471937173
0.0649703095221646
0.0455703052801198
0.0497636593216308
0.0535160295407383
0.0442109204107368
0.0570191588859796
0.0556695063864361
0.0468290136314195
0.0512223594642129
0.0450179267381172
0.0486453394355853
0.0502402274111133
0.0445114113190323
0.0444500314707683
0.0572430805910687
0.0464074761218964
0.0601547234301107
0.0531884135051921
0.0489799145519063
0.0587955709796559
0.052446443912836
0.0523149038625358
0.0424739169023551
0.0344586488162921
0.0710317500396407
0.0620293072842877
0.0449000645517324
0.0540100518671487
0.0409788104744292
0.0489106415576847
0.0629892315230593
0.040717779210647
0.0419337538670327
0.062720941875444
0.0602693041404402
0.0577079500272765
0.0499947898845041
0.0497946881031082
0.0496159817658684
0.044193148221058
0.0416767371316005
0.0409597773620512
0.054907639080395
0.0391416922822122
0.0513178150170184
0.0508537536819775
0.0511709879921544
0.0746465468078538
0.0195652626097066
0.096659519031031
0.0555929414088941
0.0333506010635639
0.0954221443297122
0.0534961975021131
0.0552800708841786
0.0506801116253316
0.0568533113275405
0.0462964670897051
0.0600276840255725
0.0281997583852527
0.0721945614763083
0.072231405759085
0.0551148844146815
0.0438477655719149
0.0453917979324384
0.0241217993420289
0.0712090365737805
0.078114126512368
0.0494718227165936
0.0542558432930112
0.0467398882847703
0.0344610100184723
0.0693199783876201
0.0801420465537158
0.0574511059542434
0.0458547187224225
0.0380051515523251
0.039908521790544
0.0353329738925245
0.083572165378332
0.0516134077047972
0.0525323983299794
0.0319563034766337
0.0628268479596369
0.0947259176790596
0.0612827036371381
0.0541032876870098
0.0334123982449115
0.0327109416314866
0.0762077167619693
0.0593819776096006
0.0438105276454115
0.0572412791836919
0.0557247815234594
0.0453040817350225
0.0411845641715142
0.0317168021287064
0.0653927163058333
0.0545668696920855
0.00687680757665904
0.0875732657318035
0.107688024834293
0.0509268610617586
0.105550361723523
0.0405216210713735
0.057128275679087
0.0497865178244399
0.0551924261455865
0.0347635633302907
0.0502086550653469
0.0401673066892156
0.0549248172847401
0.0726415874519729
0.046707500002642
0.0482836840507875
0.0699366850939269
0.0519005460725897
0.0160860277561761
0.108822689036482
0.0615980536232356
0.0329557439363177
0.0701561942993849
0.0553792178120964
0.0396046184350897
0.0498544113914295
0.0755674486620575
0.0383032109017902
0.0601244472138187
0.0421901982688614
0.0550594673694137
0.055635772819863
0.048574823394136
0.0452286390950386
0.0470375509069814
0.0201745723855368
0.0496518738287302
0.0828486019265794
0.0777924620782055
0.0459492139703248
0.0523752045008195
0.00841561017222143
0.0795069773174889
0.0803510629441325
0.0414501627390806
0.0450131520146327
0.046754731240401
0.0401571036362416
0.0422031517142318
0.0393098456504304
0.0419600724472825
0.0123098585118147
0.0845728518829081
0.0613091700228818
0.0555813240203719
0.0435614675176377
0.0428399934636595
0.0306888918954549
0.0907965003417115
0.0816473973393066
0.051344154227265
0.0435187769784601
0.0286224593480258
0.0505879375543244
0.0693816258521287
0.0426947973763408
0.05118817486495
0.0376702474387686
0.0466884708683598
0.0433734501115307
0.0474767987762862
0.0380028147267312
0.0440753082582305
0.0441837356648841
0.0465503140762186
0.0396006614536013
0.0574392301124936
0.0460547316454559
0.044629565914147
0.0425428805109311
0.039259592353649
0.0499965610848991
0.0668077223940664
0.0442498519711119
0.0545833715849869
0.0363975070314866
0.0477416493158993
0.0393533755572681
0.0526004598506824
0.0443754170293575
0.04648300903153
0.0296507726790645
0.083981670450137
0.0477583719151291
0.0527206432418958
0.0290495930983199
0.0670085853616302
0.0639771987870019
0.0427898656776999
0.0405553606219464
0.0397948395000157
0.0330811125191075
0.0349609249862992
0.0708465671304896
0.051426402072342
0.0387171677640154
0.0580801210523262
0.052360984298363
0.0447602858412351
0.0380564325153044
0.0113047637091518
0.120051244878303
0.0441916737061246
0.0240448234415842
0.109154598726155
0.0560469209774152
0.0524419324718696
0.0441174695385765
-0.00171718418842221
0.155141929072965
0.0993673689447497
0.046387448225507
0.0422754070335184
0.0714357610634798
0.0440614766906904
0.0493446946805565
0.0424921453143412
0.0457294372617299
0.0717536157096968
0.0671155212907947
0.101775650473211
0.0316952109280014
0.0628541284528181
0.0729916938751644
0.0592981555964778
0.0480330438791377
0.0426528890959446
0.0366678560277903
0.0539207628562691
0.0596375881262513
0.0552781625594338
0.058077772374892
0.0383473931421046
0.0751839551197152
0.0583672607323678
0.0433898960528183
0.0451336770643606
0.0563274689355077
0.0382825490408071
0.0516874364156284
0.0404112859703826
0.0531115128305298
0.0434609278844519
0.0331774750174681
0.0896308138466387
0.0531716984921691
0.0428328553496056
0.0777179956999299
0.0526386030875217
0.046445721518913
0.0442783391028608
0.0474684352784196
0.0419285971514598
0.042652362419689
0.0277043479022787
0.075305767793942
0.0524799202306019
0.0508091591545549
0.0523531714667843
0.043711406617872
0.0420347686786661
0.0463981724015007
0.0429096686564183
0.0437063786123717
0.0413587476068862
0.035059959664501
0.0534791817237725
0.078021611298559
0.0215283695032867
0.0836297790297033
0.0886030657381687
0.0430469325169948
0.0559692023243589
0.0377298786898302
0.0467474485043991
0.0390078389704112
0.0508034713669059
0.0421879240244429
0.0425033879028501
0.0534466699170108
0.0576245842555814
0.0382396752656408
0.0350820408404198
0.0822495549048595
0.120984882822476
0.0668699921157775
0.0607699902103209
0.0201563901933255
0.064360995344712
0.0736966607862983
0.0632330155864512
0.080352208101137
0.0463289385519159
0.0606483905314587
0.046071076818013
0.0566538237484849
0.0387073012026763
0.0493651043789045
0.0425517770599828
0.049527266454894
0.0489098087977697
0.0493014962887153
0.0389270337549253
0.0446155398866314
0.087353202487001
0.0658250458860231
0.0465431068317644
0.0515581894946636
0.0356057247523345
0.0619314278028925
0.0700246727977069
0.085035782789187
0.091929824675641
0.0510378234133921
0.0972787198034444
0.0546668487832586
0.0638499500516651
0.0439425760213676
0.0616480995810734
0.0597590161925294
0.0644135692494806
0.0580360232190835
0.0624092726011489
0.0534712483717048
0.067939810087391
0.056076225912567
0.058947087388081
0.0516137394082621
0.0842987927535192
0.071374800925602
0.066670767243765
0.047818911698696
0.0654288821152149
0.0959566673403616
0.0957485221764375
0.0700500820859646
0.0718675636723503
0.0719604636588455
0.0671361489293435
0.0783134347435053
0.0589783741477944
0.0732581155241211
0.0692556834258421
0.0868662926346293
0.0902091219614872
0.0771862850323939
0.0977432757760658
0.069201527208155
0.0826165225723072
0.0878348590274112
0.0725701265645134
0.111022002278132
0.0901429833410424
0.0646340196606451
0.102420862983962
0.0963259135736235
0.0845791234764033
0.109277901724043
0.0810587758227853
0.0841577945247392
0.0808753402052649
0.0915756660263134
0.0859033749205198
0.0918004835427212
0.0922510147829249
0.0957631459333379
0.0954571112972687
0.0956643485591192
0.0975620112123521
0.103900154853558
0.105946893547871
0.0994981672964773
0.118033319012361
0.0934289444503216
0.112343323088867
0.0955876840542358
0.115190996193667
0.122514508932724
0.106058353008162
0.13231586111466
0.112620024919012
0.108188160937145
0.106054059968978
0.106275833647186
0.113042971290723
0.117984345646549
0.113397073973476
0.101976654063055
0.114301191143742
0.130096751096665
0.135314679461241
0.121320635882793
0.126036255410639
0.121309485456198
0.128766537417815
0.125806365416468
0.133830428632948
0.131736749035115
0.146216660952785
0.161784122344915
0.163304733660283
0.174359027613275
0.151220125586422
0.154655299017921
0.154591618775484
0.150033417132298
0.147252485411986
0.155591495616251
0.154743957937436
0.165014941163281
0.1601786700111
0.144877913298784
0.162008860539565
0.157583839173605
0.158827212222668
0.165372016643393
0.183637027331717
0.165802756718654
0.182187351270877
0.185594657105445
0.182688022495334
0.187959970893952
0.18014279661954
0.191574718247226
0.191668726957576
0.175178358528939
0.191181619065202
0.186030577340666
0.198514902230176
0.185908929316548
0.184377906369671
0.180741608272512
0.207554734137826
0.218348846394213
0.206219038690615
0.198282797936781
0.214727317288921
0.200297769636616
0.219541775218395
0.228153896441193
0.212197416727473
0.223507429840467
0.231250405272267
0.222566133455612
0.239705313469288
0.235319601459522
0.238695540022158
0.245336938298103
0.23981538747871
0.241827322602855
0.246954812737394
0.245022023039321
0.229508280362586
0.248041024054567
0.262864069698344
0.250478192172143
0.244052715127958
0.241313586301591
0.261234027733493
0.259260039576873
0.261373931074228
0.287250056352076
0.269118110065188
0.267591037106123
0.275188713659939
0.272044878606852
0.272996525486363
0.289089891601854
0.289727936262549
0.286131272170817
0.281509750013436
0.286236857143298
0.292770422319048
0.306409697110753
0.300914083223814
0.278311152509916
0.314723504059495
0.301959465976586
0.308590246433086
0.307960795268084
0.313246370167242
0.305599716231206
0.313564938329218
0.322422672540355
0.338294004458282
0.330585449458098
0.338820002282595
0.342107425894489
0.337336389163333
0.328671076958933
0.337283345719138
0.343607861603186
0.345946339299894
0.349084427954322
0.343524811540278
0.328404086778548
0.344051896028305
0.338425691396426
0.361918326182396
0.358925013996447
0.35709669795564
0.357974776836623
0.351310377715993
0.350064518400846
0.357728684082039
0.36562457362762
0.371613525664203
0.366296952788539
0.370260783313227
0.361331083981122
0.391531193115367
0.382270930799197
0.383064559196463
0.390508045005682
0.388474744583945
0.38718828897457
0.382379008722217
0.398712689519497
0.392987778937789
0.389068093455428
0.408622965773751
0.389433129025892
0.395390060128097
0.403033027063807
0.407144164684241
0.426352679907023
0.419638227644422
0.418067046084339
0.43385884859538
0.430047522360438
0.428841725221979
0.427127049982889
0.411834377455375
0.434954195208729
0.443580037390961
0.425974364345653
0.430908084373364
0.425327224177004
0.42347600359544
0.438124615142623
0.433981398498797
0.437979214218207
0.449954557806699
0.446903270434665
0.447942129621994
0.455874836529968
0.457081791879629
0.46101255440665
0.465409994740601
0.467030877327204
0.458312912524884
0.449426783313732
0.454802119218544
0.462974538170042
0.460512550871628
0.465519684659199
0.475591712096118
0.473650518444562
0.486287737188127
0.484770957773413
0.463070210825922
0.461485894584978
0.454698288854695
0.458760532693975
0.478156532137818
0.474309165837025
0.486830959461915
0.497116852838324
0.49434459880706
0.474806358335867
0.473377800839305
0.472344368025895
0.47120198035046
0.489533876211272
0.504704750836102
0.499961905953828
0.507255969522437
0.479652698853159
0.49787147247889
0.479486614865714
0.50457399209335
0.515083056057498
0.485731717215213
0.477856817893805
0.497395046949056
0.515147648232361
0.504324662586019
0.484874552199601
0.515143129547221
0.506574453656334
0.497440772797588
0.499142681556306
0.496686896897757
0.516498686182087
0.527894521176941
0.520536039403052
0.515641661414994
0.505971167639215
0.519359913778295
0.498272123872475
0.513891561894771
0.504492103979683
0.510860708270017
0.519201709885102
0.519626715344543
0.516956929375326
0.513791942849279
0.517090319330436
0.517066500325481
0.511524253858424
0.52709480050562
0.50937005377689
0.517235046290173
0.517234694540823
0.531268074633006
0.528301321360056
0.528328466985667
0.515840139742187
0.514470220812669
0.527554839482123
0.528073412554623
0.522379259240815
0.526918178495389
0.523925077189985
0.524438396605426
0.516804382531206
0.5334280867401
0.519990529169913
0.526281245062571
0.538486558780626
0.52298790436002
0.530686184544575
0.534895994060275
0.508164040415889
0.520083409591945
0.532872209592236
0.528741696588684
0.522652953152403
0.519838039545582
0.498546354371282
0.534173356389218
0.531197410995561
0.519195428867566
0.507226259394728
0.507021388048094
0.507427373768956
0.516112407976591
0.532914696088738
0.554985667413765
0.521334602850413
0.517695784852738
0.516722060391014
0.512646091182488
0.5218464244214
0.514294218876736
0.513246751675546
0.519940341197823
0.487443062198376
0.507495163054586
0.518482371443324
0.516865988530196
0.509839133410038
0.515160128805602
0.514710093242042
0.518098742019982
0.523101137857455
0.52571077010641
0.513760580384158
0.508284324139246
0.501393314791174
0.5147110191706
0.499747757025654
0.495873836949381
0.500445490271471
0.512151434190962
0.502453185433568
0.517155388402804
0.507624917925719
0.506335740170772
0.491763308882252
0.499949984869504
0.491299276984249
0.50335706550219
0.495376778345812
0.496228191543035
0.491480318217032
0.499203301778251
0.505987053651117
0.503085023603713
0.513753680664287
0.512192679850454
0.490096060567507
0.503395233165558
0.491624355122357
0.503620096483664
0.48951251462226
0.482281830304878
0.482501746379437
0.497006697964929
0.475085931259027
0.477712008567675
0.476999541880708
0.482468361710834
0.478629612536916
0.474196272528367
0.473251169707686
0.481544267340866
0.465926302820502
0.471043989112414
0.468267231930035
0.47489555077624
0.480263617576919
0.47504359829963
0.45648198456704
0.480908222699979
0.479796660226163
0.467205396524939
0.45979122657825
0.473401831378957
0.467787462230068
0.470291401464699
0.465292125690269
0.469107407033495
0.454844404627421
0.458934967561686
0.456230933559688
0.450519121158797
0.447875853661464
0.450692639887976
0.442964231262313
0.45191945379251
0.43828504856568
0.442405931263927
0.450716186379882
0.439322782986044
0.428924204770994
0.435575530316671
0.420069682525715
0.435889224991062
0.439699024263282
0.429012372516221
0.418797987206366
0.433251986001186
0.431016571877309
0.436665785081664
0.415393670084826
0.427469840554545
0.424232649008514
0.420092309549795
0.419843130787278
0.424555542934209
0.412333742626354
0.416521624304105
0.400479582111834
0.411726596192007
0.415574408871027
0.412249462522585
0.386790168397426
0.402765037251345
0.406324604589652
0.398211272236518
0.393428482458401
0.409586438845435
0.381892907783749
0.390586150513386
0.38753521723609
0.38699198951918
0.386410523103607
0.393398801533271
0.380134964931332
0.38396972743207
0.382895659499073
0.373599343544876
0.377098805213166
0.38994026104328
0.372427584513281
0.373785686391201
0.370622005289434
0.377585830660628
0.371940592959629
0.373760224620707
0.365607379755097
0.375339883655082
0.35991870830056
0.362462233194935
0.34672165673152
0.35671352277781
0.351437351248567
0.358526725364615
0.349987026551227
0.350873199834795
0.348380170803169
0.356565052261895
0.346783767764104
0.354529720668799
0.337346948376173
0.334819582440118
0.341143493749295
0.343998185503195
0.337215750891697
0.340503010861744
0.321323555223015
0.329264195267822
0.336707273962929
0.326988290331973
0.311203540557727
0.327872785704446
0.323433280486572
0.328821848395791
0.315368797648432
0.320416462244573
0.319384163021581
0.319778086753337
0.303105308074139
0.311575532632693
0.316050649171499
0.308506571196668
0.294669374875655
0.310170872097607
0.308513226043274
0.307055746123425
0.297205150250772
0.303132511259614
0.288338516690555
0.296124779902831
0.294645301792886
0.298053713314128
0.290192675810964
0.28959361633834
0.285718525317938
0.294498214255043
0.290000357783971
0.281017198765531
0.269783042951909
0.281951967659826
0.274070082426825
0.276191195654692
0.276017053783588
0.280005098950238
0.275132012393105
0.279022332952207
0.26862944441089
0.26203944751
0.26555293547658
0.263820041192459
0.254139724619684
0.270954995835897
0.257835409952807
0.261056758399103
0.25233115579408
0.256803812853993
0.25354178022822
0.257658320246388
0.249758936421345
0.259356622033717
0.246807308572361
0.249361554876452
0.242649842855696
0.245361608816136
0.239722366725263
0.243154145375472
0.234607931662325
0.246081114840584
0.24112919878033
0.236816311796887
0.230996538145934
0.238389631771355
0.234737148100157
0.238836847038079
0.224428478569636
0.221290534079771
0.220354066530364
0.231567018999973
0.222141912162317
0.229820569957081
0.223771544308991
0.224057331266224
0.21870089409461
0.225676373099864
0.21359211151689
0.212507906932889
0.21139186104411
0.213460344649564
0.206021189734538
0.211057014426358
0.207485638654725
0.221809214267114
0.205930525967574
0.20570433674787
0.202834528271099
0.205121701580621
0.20144059689248
0.209981135292526
0.199054748644337
0.200661102408336
0.200836253010109
0.199401634212887
0.198826012801667
0.196000555026733
0.182670056349141
0.198690801010153
0.189503431806537
0.195488132553001
0.185970533433236
0.192526947803231
0.185505046059565
0.189667470346361
0.186073128054714
0.186441191885851
0.180118339233501
0.18311450113998
0.173330670395547
0.177479375884245
0.178066688565936
0.182416019678494
0.179801892178338
0.181831737946175
0.176426756338562
0.177829086550124
0.171921483272339
0.178283226000377
0.164799238916499
0.173163109172083
0.17575281001751
0.173984267414667
0.163045051922769
0.174726724020988
0.163769919615456
0.174729446017309
0.162971019172079
0.170449817070148
0.160459012339348
0.160470772308873
0.160925483245959
0.161362405877778
0.156668018978163
0.163950594457364
0.155710023327585
0.161231075935471
0.159238197243408
0.158072801691236
0.152386976777708
0.158451036822088
0.150178519621236
0.157970892262397
0.150822153706657
0.152216375199137
0.149070771025284
0.162871592199638
0.150278181825798
0.148492360270456
0.145203409120127
0.150098783852491
0.142415672969147
0.145077443439405
0.142383410573518
0.146701463368856
0.136243552053153
0.149588308683396
0.139448157540158
0.145210135501942
0.143527089957743
0.146601262945275
0.137136000798168
0.146790197069767
0.1359013213456
0.14135296729798
0.131062489520028
0.132810162700273
0.134771265539938
0.134907338619853
0.131133929938095
0.137876843079105
0.133896388337606
0.138327793625141
0.130301313400281
0.13719336907392
0.127649545956738
0.136998816314968
0.123430673462128
0.127630341949616
0.124027882298502
0.129999140553317
0.129245797999897
0.131265669937519
0.122275592986958
0.125614190689088
0.123016955660804
0.124137495525631
0.11920018322621
0.127244195309552
0.115507573535641
0.123263326601701
0.119208383114679
0.123072858809992
0.116044591479718
0.123000076081349
0.11285407155637
0.126230582205007
0.116562700774606
0.12181566807291
0.117675814367602
0.11861472150165
0.112656334142453
0.122690299182889
0.113420023787167
0.120029274601475
0.113186679647823
0.119180863504965
0.113680996108483
0.122343105742915
0.115942619795989
0.123468717799799
0.113349795847674
0.122806226255365
0.120252215040383
0.117530430224556
0.116436706678117
0.12272616428157
0.11432317156926
0.122667762784888
0.11874790661126
0.124935958069631
0.114136740125602
0.122934825264796
0.119030154720702
0.121241117017379
0.121304662702368
0.128898430832781
0.125647251494385
0.125069362177095
0.118033547749284
0.13136350887963
0.122039748519838
0.131391018929589
0.127526256672436
0.131956476356389
0.125607815323516
0.133182859685548
0.123818627587335
0.137975810653154
0.127712293455145
0.135593378827852
0.131375125343241
0.140547046445256
0.129488825938199
0.138065735678062
0.132517435270298
0.139214724649089
0.136690744481164
0.142641920474545
0.138669745600151
0.149302370652362
0.135849653409338
0.14212080476165
0.14205489806369
0.147598016452081
0.144773457868744
0.150034714722221
0.146369659826701
0.157793995366062
0.150656356989049
0.15856282903575
0.149624378668905
0.153232878962838
0.155101876061652
0.159525160563667
0.151941288751329
0.159460365532809
0.158739500075969
0.163387919622992
0.161652116446389
0.166103939814795
0.166760909865242
0.173205348433476
0.164986821907985
0.168507653097546
0.165893854155967
0.175391446799696
0.16689600768492
0.179049131374633
0.177132486226545
0.180885569021815
0.173236807956161
0.178112181816204
0.173776046194842
0.179518469067377
0.174837442137682
0.175918744104171
0.171093087454829
0.182720026978145
0.176579746479603
0.184764900138425
0.172814359212313
0.17866566121323
0.170633814151614
0.172037016764577
0.166610167765676
0.178980976477392
0.175294776623805
0.176593444790652
0.172002511553591
0.177342884574218
0.168869557527698
0.172177096297032
0.163425601494908
0.172290594852387
0.163938240334321
0.171696249212343
0.16727434824825
0.173370225444363
0.168463017957272
0.169121672190359
0.16362451980369
0.17916156949456
0.170998164940286
0.170649606626056
0.166658631662376
0.173336022374722
0.165782136998212
0.172087129096669
0.169591619568341
0.170474328843085
0.167024602690284
0.172450939270806
0.167785381823911
0.171595022064518
0.161650455715333
0.174318575201904
0.169828271193209
0.172713743823393
0.167909802923144
0.167918814990099
0.16695772487415
0.170078445879294
0.162102850655188
0.16862019587072
0.162394282298746
0.170376922123693
0.164779898943388
0.16962947039222
0.16002130250596
0.164876395282537
0.158157342371093
0.160637903555914
0.156403843955444
0.163781492965928
0.149334406361502
0.165216118313718
0.160277197158446
0.164640485894757
0.147760531106899
0.158035900917567
0.147895327447187
0.147016031282181
0.146157636052151
0.150541797586218
0.142234086964976
0.144811474298149
0.141009785509045
0.14247784551757
0.136569701208565
0.138540166255497
0.131587192406377
0.14441091991916
0.139245420524064
0.138956789738745
0.12667526870007
0.133209800287025
0.12500195937594
0.126028901354634
0.126165749381928
0.128978179637108
0.121227980322989
0.131716280175222
0.115917335807404
0.126700836801516
0.120346742031013
0.121291903788855
0.11404826620382
0.121241730586414
0.113062204865153
0.120494059506766
0.117647865560465
0.122497008262219
0.110997158412704
0.114867299938964
0.113993160093693
0.111975920521881
0.109718762983919
0.119104911728064
0.108700406475309
0.115744932793496
0.107154663502983
0.110663313970021
0.105445805498918
0.113222502150826
0.105942449694422
0.105367385963739
0.104010074871553
0.109701244642545
0.101091280477738
0.108420213587011
0.104816821622674
0.105022244815107
0.0974164298266677
0.106670232829833
0.102250241071091
0.103285285888508
0.0997022301138885
0.101462922373893
0.101315183884873
0.102689468361659
0.0962285425356745
0.0949956219942145
0.0955179552206495
0.097309574384537
0.0939074983377848
0.0983451677598909
0.0893791937506855
0.104261777979481
0.0976529166042971
0.100248133304042
0.0940660445810463
0.092484681731426
0.0902852179582128
0.0975266649559178
0.0932977705291514
0.095988673483901
0.0886277286780418
0.0936695922254259
0.0877088395220105
0.0919430973123716
0.0880255621921661
0.0950280440636641
0.0883509842051613
0.0893743252730695
0.0888508285153932
0.0874140037867371
0.0875062930388506
0.0889707048541199
0.0871980953591467
0.0933575902525233
0.084749588885701
0.0901766965197242
0.0858069139864654
0.0917318723453595
0.0851740103810208
0.0928713363536519
0.0852907567210017
0.0915959643140157
0.0838373091613206
0.0864221576574249
0.0818374597507037
0.0910300939553973
0.0817907630688293
0.0855898200310926
0.0835003911342418
0.091915730591737
0.0835181311361705
0.0844050247949414
0.0828623591629625
0.090977109967939
0.0817217641620021
0.085732173835851
0.0749528551807877
0.0846797939682893
0.0820975051109974
0.0848266698664155
0.0758056599646819
0.0838508678723922
0.078617285451413
0.0852994212485175
0.0826930801056527
0.0806961150749607
0.0765659692076711
0.0859585374686788
0.0761633828992723
0.0779422153516556
0.0761270506712115
0.0793934731896201
0.0748355500720121
0.0816808746363844
0.0745700020459637
0.0805241218212722
0.0753672800190563
0.0824294068176583
0.0722497688886569
0.0818983819204178
0.0797001370863398
0.0790011295142731
0.0748603949387281
0.0773860957962751
0.0782734696512788
0.0800355423535819
0.0757495118295921
0.079145025695519
0.072638195035546
0.0789764209355996
0.0754186981765667
0.0781794543733521
0.0757185430064242
0.0799222162277154
0.0742210170426632
0.0758559078287758
0.0743896590384062
0.0791918770156519
0.072266609941296
0.0797294827262756
0.0749894560550574
0.0800976731627703
0.0704994136493415
0.0769801145564961
0.0751875625442118
0.0747183274334359
0.0754460590679194
0.0734782774973434
0.073271466554641
0.0756410013765764
0.0730214492836651
0.0759742573001191
0.0764072354627377
0.0721161473482326
0.0727104077429617
0.076455507322715
0.0705854455618662
0.0749116591126021
0.070504952211463
0.0737982318954397
0.0714811773175545
0.0765700098856536
0.0672065634079325
0.0720319473374927
0.0708995319476013
0.0753686544978706
0.0680820780116024
0.0699095049736596
0.0686393131309684
0.0700322731717574
0.0701786290099629
0.0723007356146743
0.065815842313844
0.074721299519071
0.0673482121970696
0.0700959565034059
0.0703605217817302
0.0687910528247686
0.0651783844936849
0.0667120772695258
0.0655397754718065
0.0707843396948988
0.0669739309848574
0.0694782127365875
0.0654338969732108
0.0725557332650656
0.0654782092816195
0.0683199901141209
0.0665359403428668
0.0702950079715592
0.0668313117920806
0.067702724020989
0.0634911067012881
0.0681793223840248
0.0635880793125678
0.0674335596848416
0.0661592277316006
0.0663853671026631
0.0604371545220684
0.0680756712304573
0.0612789279900203
0.0684413814079838
0.0588362659479905
0.0634619517240812
0.0634517005284733
0.0643836785156315
0.0602472730127772
0.0648725534511571
0.0632078751976592
0.064035303459147
0.0621369098797528
0.0661810252768387
0.0617069505111432
0.0610680613864916
0.0588404460652242
0.0607570502966777
0.0591069286839892
0.0629910294479566
0.0594202627071012
0.0655853763142863
0.0587553867273365
0.0652854746761856
0.0565183621208173
0.0607948918455297
0.0573547457449711
0.0594546112974641
0.0545782075032085
0.0572434756204113
0.0524138922300947
0.0613345170630022
0.0577387432742102
0.0587750141191631
0.0540058758915454
0.0583909591678259
0.0544094336228212
0.0577756787089051
0.0524254764990563
0.0575059043192752
0.0544925482060389
0.0574701845838086
0.0534523609831735
0.052789327040296
0.0558174749093462
0.0571555916905891
0.0542309556243895
0.0590288711566736
0.0500854621425504
0.0557725525435053
0.0479109202503729
0.0559224697098539
0.05049289244175
0.052180796657689
0.0547807878080095
0.0513211882535523
0.0549451772330963
0.0537313667197044
0.0501513300135227
0.0547823490698623
0.0512049588412683
0.0528103893124824
0.0505734391747095
0.0537439981245771
0.0505809575171954
0.0563654093875903
0.0525284897137169
0.0571259810386501
0.0469576235619745
0.0503924096223557
0.0499240438126619
0.0524052961857725
0.0482790122253096
0.0540944883490561
0.0507731380820658
0.0516847357016638
0.0506292312557003
0.0520114277657392
0.0491388559822116
0.0513690349095933
0.0469065158786205
0.0493252052744888
0.0472406461367403
0.0512987103078242
0.047126578828711
0.0507859828244956
0.0431065360254927
0.0483334425063188
0.0461957492797171
0.0491798176911198
0.0485359559424235
0.052590535906669
0.0484402771112519
0.049664482155191
0.0475997943365658
0.048524439770774
0.0484195070784422
0.0521328314659791
0.0443087497491222
0.0472364598423174
0.0436861962243266
0.0468464648503706
0.0438822703488273
0.047504467616695
0.0454335847001719
0.0457479999703315
0.0424059488001319
0.0443339231007279
0.0439250307573702
0.0486511302065928
0.0445741271305522
0.0435771071366547
0.0427482801693943
0.0483178642974596
0.0456333214225298
0.0501476301600712
0.0434544579096829
0.0450672499613359
0.0420477209397863
0.0467388749981128
0.0436730357195315
0.0462985096441126
0.0437390901221852
0.0458369598540746
0.0459739447410579
0.0484403523651349
0.041879361904748
0.0472879818071275
0.0443218129213622
0.0464073334489254
0.0426880670697299
0.0464220939976874
0.0423108214610044
0.0446280409049259
0.0446630434489265
0.0444122383609952
0.0419872904025854
0.0451204220350014
0.0392323353190781
0.0455911458285634
0.0412058571178099
0.0457519624569301
0.0427425867918613
0.0448487779138908
0.0438334887574827
0.0444464395997867
0.0429235484406948
0.0470080214031125
0.041147584440824
0.0387292199024748
0.0422306483277788
0.045788508499897
0.0426275775535765
0.0446619476082565
0.0404047447522262
0.0431605103410856
0.0378662741411599
0.0410976358359078
0.0398078003041222
0.0393387936104698
0.0360856025788252
0.0425745877608705
0.0377215078563159
0.0444912762928746
0.0383942146585192
0.0412672666232289
0.0390822498025349
0.0420654395078259
0.0395762844186251
0.0426988230726549
0.0377951753349697
0.043051732219113
0.0395351511555846
0.042956526923965
0.0444217026979353
0.0410991543650297
0.0420555472964224
0.042948729824677
0.0387593639676825
0.0403416885455712
0.0381253288921981
0.0424837215792268
0.0402165752984381
0.0449252730209606
0.0405515265835546
0.0444367669887041
0.037485326170274
0.0385532702934877
0.038568350675074
0.0391891051998797
0.0397575503480284
0.0399746808669497
0.0383101549579609
0.0399243092256327
0.0400824106209421
0.0426102026342428
0.0395275178283851
0.0365580426826967
0.0386479298051517
0.0395758177023171
0.0358766130537792
0.0405685836380611
0.0334640276507573
0.0377780975700271
0.036541241371986
0.036456371070576
0.0347014988240892
0.0379681447440254
0.0347396731031594
0.0384852905777699
0.0394956766357508
0.0371836411616805
0.0357795481455265
0.0363119159595664
0.032847480986244
0.034100207732928
0.0343467738739192
0.038053232884102
0.0368351353939004
0.0375909079173111
0.031340497533828
0.0364149424628607
0.032903827269656
0.0359591432351467
0.035696413987831
0.0374446747685574
0.0334993600128263
0.0362059246350945
0.0327973673955922
0.0325803575856818
0.0320180853030481
0.0357423552691914
0.0295485917139909
0.0350212004344395
0.0331040932773742
0.0343607461768244
0.0340165814498371
0.0343652647218505
0.0317673323000616
0.0341074938983779
0.0325094924864621
0.0343207113377161
0.0333038561110735
0.0361885914751636
0.0324561090852958
0.0349672494941219
0.0327433857071425
0.0339422299878053
0.0324756904925877
0.0320421941767521
0.0314681117427057
0.0344282939682013
0.0311860799128968
0.0316282397929841
0.0325984039214944
0.0342873915595368
0.0318284490273152
0.0329794036420604
0.0279727198866184
0.0340030571066677
0.0318507681536597
0.0315598945284603
0.0330759366680245
0.0306688505455493
0.031015871443825
0.0306818011548933
0.0301463327285937
0.0339065485965816
0.0312343083429786
0.0300107693742427
0.0288774123379978
0.0314824161729339
0.0274514085149404
0.0312892845025626
0.0290592249127194
0.032914852779996
0.0274468425654437
0.0298046094131769
0.0262934944114734
0.0271110795387784
0.0289449612610491
0.0314122231657376
0.0295611443540066
0.0312038117522226
0.0301504437981297
0.0318018005719823
0.0269966725420983
0.029187597544992
0.0308302799131878
0.0305877348010716
0.0299540050954664
0.029166268691225
0.0277719237971515
0.0278315857386627
0.0278620692129459
0.0319872150018314
0.0256825904221294
0.0305511685032621
0.0264153393418203
0.026968317440012
0.0288109048673005
0.0296364406371121
0.027955803829252
0.0283302415035442
0.0303990069821962
0.0313147115953977
0.0298065270452752
0.0327232389564086
0.0318960842767766
0.0301936440534317
0.0311294945628284
0.0320858436439249
0.0325226309315329
0.0324843099109629
0.0282763599575069
0.0302419569006748
0.0280804986782896
0.026101606503124
0.0230917429236121
0.028536612907968
0.0305029221634849
0.0327982948620713
0.0250168874863881
0.025916527333373
0.0295397045923054
0.023776195010897
0.0243033815404224
0.032592768333739
0.0266504811264869
0.0236779953570886
0.0272897230563869
0.032629068030742
0.0275040034593392
0.0287741565713014
0.0252542945528152
0.0286733046598844
0.0268029786300031
0.0270763780660342
0.0308588287771715
0.0269457695012142
0.0263505749191178
0.024991478827785
0.0313845285539248
0.0216084606810017
0.030263398979156
0.0267070735244051
0.0277943059294324
0.0214820414726369
0.0315242155930908
0.0274974595771416
0.0273648885234029
0.0208897560277271
0.0288280536902825
0.0160678466896396
0.0302454774950312
0.0163243766939065
0.0279471990225797
0.0206406612607413
0.0389542295469685
0.0219988687027799
0.0385572509023923
0.0172098179948142
0.034688388042489
0.0193299695984866
0.0405101193007111
0.0173340900199684
0.0347957037351977
0.0173445027123369
0.0389414719435441
0.0246912728820659
0.0282343250695775
0.0259580840444139
0.0288315188682205
0.0371660561136948
0.0200252620938592
0.0381094307798317
0.0175582971894149
0.0377650337114382
0.0156125859140877
0.0404305916703441
0.0158150569398948
0.0391548438106003
0.0194452556561103
0.0332641823819892
0.0221433427831734
0.029720896969972
0.0267925021019602
0.0262123350509838
0.0267637082879284
0.0228669006294
0.0247538427304761
0.0277156417371881
0.0235720037979781
0.0270256469926176
0.0215464215124125
0.0296131174908342
0.0200214698404181
0.0254088987821412
0.0204461491560781
0.0280559767906587
0.0251403663566053
0.0253832191937011
0.0194117697055445
0.0238204530791718
0.0228985212610382
0.0259040235483412
0.0209865210574837
0.0266056111267735
0.0223292621444264
0.0258421055407189
0.0228495715326182
0.0228113311294226
0.0224191372224193
0.026137280300039
0.021935271816063
0.0256965295200324
0.0217817483192276
0.024587169689979
0.0210628576092214
0.0246021546261326
0.0226178584220407
0.0253549317512992
0.0233272883384122
0.027483165004637
0.0241669463119808
0.026130697267532
0.0222347706209531
0.0253403786387023
0.0220075075239511
0.0260196467805855
0.0219888349098575
0.0246354821846934
0.0233490224772826
0.0262971830508654
0.0240182502415149
0.0259751972667369
0.0215358111469269
0.0231522465754397
0.0197381809046062
0.0263133399365698
0.0219243858268493
0.0237608374386191
0.0218773935682135
0.0259355161997619
0.0221547039552877
0.0242332951479631
0.0225838740978345
0.0240457446064889
0.0224462621431378
0.0240065753345099
0.0232219712099985
0.0262768444639043
0.0235552776162222
0.0254213640340653
0.0229167224811099
0.0241730877233423
0.0220770239221031
0.0233996767039855
0.0225828706707293
0.0248627299855258
0.0219709675274898
0.0252498712668908
0.0226515126678913
0.0224299352764895
0.0209793188479862
0.0238650527320617
0.0231338977201367
0.0233791577125814
0.0225435245901117
0.0238186987679895
0.0218234896800115
0.0254390592613654
0.0215538470901438
0.0232397805196494
0.0228381432263311
0.0244787958908421
0.0214398131117269
0.0233906586435855
0.0223788867753285
0.0249285068053006
0.0233628409960021
0.0236105245450718
0.0222191268043167
0.0219028997596756
0.0216480827816379
0.0263299849288021
0.0225698545445566
0.0224703605315944
0.0222383161211656
0.0252780335791649
0.0224958358267366
0.0231576580855496
0.023842237617001
0.0234878043458645
0.0232748676712807
0.0258470076953409
0.0210683671669356
0.0250497277663277
0.0229561545317132
0.0236611055734953
0.0232092201779473
0.024159476276299
0.0221052199401922
0.024332908776856
0.0226443837331602
0.0239451054112259
0.0215953553030876
0.024869711508576
0.0238532853090019
0.023701670499616
0.0198308420265244
0.0225218183708957
0.0214517602303103
0.0227001658401946
0.0199425396440771
0.0234836420306378
0.0212654604958352
0.0222537675596894
0.0224147991213897
0.0221696072267742
0.022428673026057
0.0237376521494224
0.0219672009362604
0.024339175568779
0.0197299282849838
0.0230072213907857
0.0232172096404175
0.0234516878267841
0.0230149750307434
0.0250022166451104
0.0207868725459625
0.0224383943058669
0.0209706512666031
0.0245099241662001
0.0227844442209162
0.0223309611421508
0.0215462311234446
0.0230708654680508
0.0217403672980732
0.0232789176949999
0.0223283469331033
0.02521850301179
0.0230958635886551
0.0240214189249791
0.0230885331537355
0.0210285559724293
0.0215372958437642
0.0264449993726712
0.0229122409256788
0.0212914398841188
0.0230471647247291
0.0246483952834033
0.0242040883647268
0.0253354715170431
0.0245290712443389
0.0246025948547394
0.0219034488120933
0.025434741139022
0.0242748365475332
0.024416932997131
0.0222678527889763
0.0227341913687457
0.0213673062685032
0.0248545455710793
0.0241071712874785
0.0222291748106861
0.0211406434528452
0.0230540223892862
0.0230820365925629
0.0238320199986199
0.0232697331828695
0.0248035516826792
0.0216033851124884
0.0234748307594609
0.0215575232234451
0.0250365625843053
0.0236539325861342
0.0242743221725117
0.0205696270318012
0.0206028483574313
0.0203553096497463
0.0235268146702049
0.0229663562977307
0.0216061051356826
0.022057132835505
0.0252012207448882
0.0207727408303433
0.0201422289684761
0.0185861433116418
0.0202264920750616
0.0218352389477076
0.0227847036537097
0.0223728221645954
0.0226638890855433
0.0222326245813688
0.0233955393357986
0.0223241018441572
0.0216085049932991
0.0180798298871058
0.0206011668829926
0.0212986523796722
0.0240895570896845
0.02285787144163
0.0233080084155308
0.0222093939245853
0.0215977738261558
0.0206747695645258
0.0218261619494693
0.0221847950423333
0.021992803238544
0.0196228602818183
0.0222630806329821
0.0230122363870147
0.0226966006981183
0.0197821728035731
0.0213963829465969
0.0223456100656878
0.0241182628487377
0.0214724065598844
0.0208888758656157
0.0203173643992056
0.0207731403500004
0.0228460907477117
0.0238071573535229
0.0204849600964611
0.0221077740736287
0.0194353936472094
0.0202524978002471
0.0201077913711382
0.0212886234322042
0.0212396587331357
0.0209760070461891
0.0210669457039487
0.023954663391374
0.022623637343306
0.022928048987785
0.0231371013321917
0.0243900066704281
0.0220043255977904
0.0205354060323774
0.018510820145391
0.0187419208626758
0.0189140859226871
0.0190052252515911
0.0208694947467002
0.0238301785641632
0.0223801436906626
0.0234717802334583
0.0211963330637262
0.0201581902430959
0.0201452285033807
0.0206192203358605
0.0191675682009187
0.0212236148873549
0.0220201319490501
0.022406646045305
0.0220213961233001
0.0200754625018618
0.018898973093623
0.020480128925232
0.0196922442714536
0.0197315743816864
0.0199344084658868
0.0213828666930477
0.0207047886453393
0.022170399814886
0.0224659385983058
0.0206682116499077
0.0212141814874298
0.0222468415360965
0.0203291699814514
0.0206664980440435
0.0206340205574825
0.0214443985212347
0.0200465890633215
0.0209586650601058
0.019802404251868
0.0210186471481722
0.0229431624896435
0.0228397942564866
0.02372501450288
0.0227533948336734
0.0192964161857539
0.0189931147109267
0.0198621650392671
0.0205360944618807
0.0216167633581308
0.0230015737762403
0.0195600388171543
0.0208210535486972
0.0204077085039811
0.0190626070598456
0.0185493814203078
0.0204212075578201
0.0215677924473346
0.0196268148295139
0.0194648665267175
0.0227191614243538
0.0229483292829237
0.019547726469291
0.0166703803208479
0.0202258873101777
0.017672417329487
0.0175009252883166
0.0190627256312349
0.0178478866819033
0.0177937260205967
0.0187534801218777
0.0192846427403121
0.0208871311904246
0.0212609792395982
0.0208163072193349
0.0179840048933311
0.0175822904484602
0.0204010516022345
0.0186343765113179
0.0170370134957689
0.0205535355556357
0.0186835339908074
0.0178260873879814
0.0184816948502434
0.0190137965988579
0.0163608891611669
0.0216202291713688
0.0261841435322846
0.0191764110946751
0.0196863136296721
0.0219797433903809
0.0203224754437886
0.0210000394799123
0.0198496223811405
0.018897147114819
0.019099313679452
0.018817929686894
0.019666602325621
0.020221599616426
0.0182541426377765
0.0192509338544255
0.0196041215407455
0.0169177585630583
0.0176585146168359
0.0208024218989039
0.0198598629382001
0.0172725806045883
0.0168162571150253
0.0191189910373006
0.0175377351806304
0.0191797256642786
0.0184483534259385
0.0191002566831334
0.0217659640019492
0.0215544170228825
0.0194351235789183
0.0164624330707378
0.0177135653079865
0.0181664890063024
0.0187577599314022
0.0172986335108968
0.0174773661857199
0.0201045353535541
0.020358214432886
0.0172699566819467
0.0157326855345368
0.0200097338921062
0.0175865924572289
0.0152496573386591
0.0198209201070867
0.0174499329104465
0.0173196423791808
0.0201442243406605
0.0172603358974391
0.0174032875965085
0.0174969773581512
0.0189860111670759
0.0209971493620301
0.016335733582866
0.0196915661412632
0.0256092958707666
0.0212703771355242
0.0162060077091307
0.0158732881135136
0.0192851882172654
0.0185397177486306
0.0143490380887602
0.0177164635282589
0.0192999362818703
0.0192468213772783
0.0198577971733386
0.0176547575305716
0.0175647337163262
0.0170276755178822
0.0162680727606954
0.0163095841619371
0.0160799953945309
0.0179121750712022
0.0182099203969483
0.0156926497295196
0.0192894919995044
0.0286236452122521
0.0198478271322608
0.0191055712386333
0.0186951488324048
0.0155172776392384
0.0271091274788248
0.0229846917032887
0.0184729373326128
0.017297900228036
0.0154038389292466
0.0175076067543723
0.0179154185103265
0.0153232022962367
0.0199601724125014
0.0192521024781754
0.0182840757817904
0.0214207325132094
0.0198198830620609
0.0166700201767341
0.0166570854676579
0.0147807105359119
0.0171830726436246
0.0181544331786587
0.0159998299124141
0.0177190896804986
0.0158891393258467
0.0151847046735942
0.0199975007155743
0.0146387257244265
0.0184776851223061
0.0227950250822103
0.0160156887970503
0.0169674509540466
0.0186399057053954
0.0126896087411708
0.0195542110122014
0.0268611170881942
0.0206571782771777
0.0179122763510059
0.0187282385169762
0.0194878653312179
0.0201702509890909
0.0184082984269513
0.0164126191598043
0.0156234255780201
0.0185941780979505
0.0181955714397456
0.0163607336592964
0.0179594017294699
0.016503604814745
0.0165279485768053
0.0160730285411698
0.0190987146644407
0.0184193961327959
0.0167506430362187
0.0179303161369597
0.0172425033379575
0.0217772952853943
0.0287415264957809
0.0287910731067068
0.0230423668526014
0.0214043653879186
0.0191728192422569
0.0175470390983874
0.0149517673268449
0.0194777165073661
0.017187616229861
0.0181504631514632
0.0190454516153271
0.0197684434240215
0.0170463996014523
0.0155317026016382
0.0161068459984812
0.0186343374874096
0.0174454360654719
0.0149567112482922
0.0153654608153513
0.0153941045901989
0.0160705393082361
0.0166058942089283
0.0195493097850146
0.0215292863110109
0.0205544328989422
0.0105360530062589
0.0324952527821565
0.0331847105055524
0.021371062798597
0.0187556395815644
0.0204622594314205
0.0169662846405002
0.0168600670815745
0.0170567057858777
0.0214912979239829
0.0169122483039009
0.0174662862966578
0.0176070372539118
0.018950799354633
0.0192092398982186
0.014264876517095
0.0223182992546232
0.0337524092882261
0.0243282476468388
0.0217078495175606
0.0137623529830808
0.0256329166607123
0.0299805198775796
0.0223804149334989
0.0185762566435676
0.0196741785526259
0.0177806059893042
0.0159353048673242
0.0163102377446449
0.0170509552571863
0.0192323511416397
0.0178789640130932
0.0180670278990222
0.0172051410253335
0.0173220563983512
0.0188927320038218
0.0169905766973245
0.0248946930171501
0.0238024298658599
0.0170720013467302
0.02147777733919
0.0197217724051115
0.0156000465698237
0.0175943526603417
0.0192787942094422
0.0151596696488108
0.0227760918474399
0.0262140255143945
0.0220966582628167
0.0276864033008689
0.0258084134071685
0.0172450268638666
0.0197827260979058
0.025304648379067
0.0284878113403412
0.0117466703077484
0.028231168426161
0.0315797359081952
0.0377734257089214
0.0286557190715814
0.0246647760396259
0.0189814512266194
0.0209506345327246
0.0160823107710682
0.0208076426020607
0.0338477678092662
0.0211125832738758
0.0225363056164591
0.0110810349072001
0.0273164390256825
0.0257971795135805
0.0246131270249383
0.0223468924479276
0.02063404621156
0.0186955935874141
0.0339276073062854
0.0164090287041265
0.0183670517139536
0.0247560656125308
0.0406267728270378
0.0448166285362398
0.01938465800664
0.0162627028896204
0.0331388084329866
0.0255488614674977
0.0242930564526132
0.0179796526971219
0.0248655005701743
0.0153964922593075
0.0269757740586685
0.0378774765392554
0.0235738343831101
0.0243565204983981
0.0223921044657357
0.0193012235413796
0.033011798714031
0.027233286227338
0.0232076906913977
0.0227556760503854
0.0211466694274821
0.0144635144125738
0.0646898111665476
0.0284573748683071
0.0392664608484089
0.0338629086330962
0.041410838191143
0.0278501053784959
0.0302714442101543
0.0222789108498352
0.0378052310988137
0.0344717280010704
0.0315345040155223
0.0159983953554823
0.0408130162270103
0.0356488153621645
0.0295187849458017
0.0297041385012189
0.0251183713782171
0.015394560932903
0.0466802568982297
0.056020591286885
0.0524233962824977
0.0288035110345661
0.0309242740870545
0.0425001236449604
0.033308496857087
0.0252282216891446
0.0270419329778792
0.0280181089151403
0.0305898150530415
0.0257854964505771
0.0355080903198497
0.0294625621547902
0.0345256078484832
0.0216514487619946
0.0339916996684397
0.0320837443121861
0.0636782506306661
0.053037640051533
0.0356877466381067
0.0509136814269598
0.0492533648124686
0.0428203001890368
0.0323437474422946
0.0299137428847208
0.0408222546635931
0.0410688505906455
0.0355991523106264
0.0296169241412807
0.0492032595847114
0.0396341528753291
0.0560878747585165
0.0440624943620387
0.0477065083870287
0.0348990829155746
0.0421636386366654
0.119605705241977
0.0569989606798543
0.0640904794329895
0.0396017811753782
0.0637820794381652
0.0849901452646817
0.0680092341709842
0.0562085988324312
0.0597341981844661
0.0513660699518154
0.0613566457853521
0.0590512582345144
0.0645769828299016
0.0706575551127907
0.0724649936508958
0.0591114321365695
0.0765648650323864
0.107441714843424
0.12026846790557
0.087324890546611
0.0799898465808687
0.085328068590917
0.0963876689589918
0.0813772222256463
0.09134461797818
0.0740120917305444
0.105875480328933
0.118210461475169
0.103137614283551
0.0917901961394644
0.100883913826009
0.118035584718295
0.0966318049378485
0.143824261141886
0.113796876804377
0.122173828784273
0.103887017246335
0.120346185351627
0.111579503773146
0.113329882279855
0.126221464356168
0.135075577822239
0.126205035260123
0.124390454197567
0.123472764830485
0.127987334635756
0.131143011493719
0.131168432586513
0.128677846824282
0.147393710216478
0.141540234290592
0.26051560796716
0.146217643159511
0.146372279181589
0.124768767338864
0.144860214220522
0.146075865878405
0.141028940276747
0.162406978840581
0.146824123513665
0.134608165311935
0.134857005644506
0.135646407927152
0.136242443611719
0.128328780154284
0.138735997889793
0.127200262068854
0.159569806653465
0.114757281084029
0.177016014474218
0.156464213615294
0.144722045732159
0.126049834554839
0.134348154309
0.126789078341636
0.134491995380936
0.117071921477742
0.137979154376565
0.135829074927363
0.125279391707618
0.122165950542555
0.112133732617397
0.133311582165899
0.133921876202497
0.121962697633182
0.121917637933283
0.107156902700905
0.123771719950112
0.0947550680866452
0.133180770866751
0.133689096916773
0.117460369282098
0.111185209098726
0.108153228800295
0.108336107920711
0.108017491393799
0.108436994946271
0.115885622056945
0.106556422257086
0.107227583735494
0.106260773836053
0.107923036665325
0.105588080767373
0.101330484741419
0.106582212358737
0.104333397418811
0.106973876822763
0.103419790468846
0.104179584998272
0.105005230036749
0.10481902521356
0.104658312303728
0.103378531692498
0.105491070898883
0.108393703867193
0.105208513654899
0.110656562783508
0.104124198497248
0.105756571664878
0.10341023138588
0.102845788629471
0.105101479287188
0.107582970919001
0.100931299518389
0.10695147863756
0.103813488804572
0.105878845215574
0.0989553472885103
0.10016441174397
0.103860615140447
0.103981384814354
0.10507534102561
0.0817880764555014
0.15658060963878
0.103790436062435
0.107668773207727
0.093653515411154
0.109472469007597
0.0970039694112075
0.092822392079701
0.134407438755102
0.111710374510745
0.101711396017855
0.0951690188662809
0.0893597968830622
0.112076269095066
0.096404290173724
0.090902964728297
0.101871059885723
0.0756714749948652
0.130409570668198
0.0915834330691236
0.173036539664096
0.131744622866995
0.115659349650894
0.0865549705205787
0.108469981532681
0.108531644196865
0.0920270948650651
0.0977892004131348
0.0771752934164951
0.129314447535495
0.0966965142420631
0.0986394706727386
0.0868056712536042
0.0885175714294362
0.112945996569469
0.116603925021307
0.091834501425377
0.112971640447972
0.111380778311637
0.0975795927610862
0.118701163772773
0.141167710233589
0.107062181539139
0.0821132353757177
0.0871260575568505
0.0771066086336142
0.0815000072806599
0.122357880026368
0.0851259733383822
0.101754527553309
0.0784047111449602
0.0866699616977407
0.075392203514541
0.0999992814631965
0.0796835859782455
0.0927096395876375
0.110675726560579
0.072271226643957
0.0986576674545663
0.0771387018350816
0.115838048525714
0.101774505768485
0.0929520763716549
0.0617089611852285
0.112062525218326
0.100717788951862
0.0824524201122181
0.0906734432714056
0.0650792811795382
0.0760677177376585
0.0852706285231326
0.064124794058646
0.0907487471167105
0.0833446270235969
0.0832079385504753
0.105839155738344
0.107695809967649
0.110970493342578
0.0743186680674383
0.064144835180628
0.0655281685810521
0.0625183828226228
0.0745236219016035
0.0486665772674974
0.110695376742865
0.0620684206004942
0.063568613570565
0.0930301175536485
0.0724451152720661
0.0673147272431782
0.0647995974431557
0.0618018839494528
0.0610584295255928
0.0742292138707021
0.103692266467395
0.0680509621297286
0.0869034417762383
0.0850975260418056
0.07512961471721
0.0744801644750255
0.0737613641706181
0.0726649010475791
0.0734444913930116
0.0861293721693072
0.0798833917814638
0.0761627444122246
0.0844984101750089
0.0684081376725593
0.110108567487161
0.103673900865521
0.079166568394544
0.127174848024783
0.0869624191665333
0.15449826715482
0.0957870729898396
0.104561379619749
0.0969154381866508
0.103336636900683
0.108219646047331
0.0921567305064035
0.114950409011191
0.138307621333241
0.102538032264107
0.117107864714661
0.103084349912959
0.121179232545094
0.101330634122037
0.15462660042108
0.0981799503218754
0.194368981537944
0.133547830363828
0.14377007721904
0.123440042361624
0.117447285595336
0.133047441205601
0.12348354951714
0.126150328429597
0.120051658279883
0.128305344234555
0.146295891386818
0.123605944125966
0.136474157148094
0.123771810568687
0.132170985675697
0.124672452799896
0.126788694265343
0.128375408086567
0.130063133064783
0.1345249750281
0.132859317235525
0.126356301536071
0.202542144690113
0.13286048043674
0.149569862480394
0.129035135725991
0.153579919568069
0.136621632599881
0.144535996684415
0.162857626135723
0.149899458718623
0.147219815589169
0.151076224864173
0.144572931654219
0.148285491197777
0.146247347476111
0.173501156135135
0.136559910291571
0.174515688516091
0.129135935970388
0.20670136472202
0.166693025655175
0.172915294726189
0.167267684667608
0.159714343026584
0.162385535099078
0.155947501936109
0.156237978199682
0.161416808290599
0.164793775995971
0.155983342933913
0.159564516334752
0.156528344400454
0.164363028232047
0.157354973231217
0.158477355899907
0.175320601115333
0.156292287992798
0.16192303220776
0.155195527296489
0.160888172887222
0.145064677554845
0.183778150164043
0.159876080925838
0.165609883764297
0.154678162009941
0.168759171251869
0.171747831385363
0.166816140549601
0.149694141228509
0.161527559189057
0.148361117356912
0.165115543823987
0.143812482004235
0.171039313298503
0.176443678172727
0.163098732683875
0.163043262658954
0.159381052187283
0.160522204673589
0.160666706344497
0.159493695074361
0.159009257866797
0.158979637740638
0.158739798769884
0.164457874527925
0.157760460953896
0.158373810791124
0.165752103764881
0.177023218612468
0.171469562643552
0.153966720196133
0.163568372072067
0.149978818443828
0.157573603768337
0.153512177574194
0.15857981013089
0.145017024991694
0.152303552335845
0.145483545989525
0.147727198953157
0.166775091464471
0.139968271941141
0.160681297808808
0.139196030326723
0.143082892312443
0.137731118099304
0.139853751740868
0.136793587210258
0.136444604362841
0.140557516526299
0.135115064086843
0.135307269436844
0.133111598028854
0.134820956554252
0.133487124778803
0.13454130150186
0.12778156764843
0.13189377305242
0.132419102839682
0.129257232516508
0.131113151458295
0.128817176955372
0.134459472466114
0.124340853987269
0.140784474247545
0.134158353293166
0.145172637229702
0.130955767962945
0.133555744680122
0.13442367563166
0.126526193479436
0.130438984904205
0.125836724979955
0.130790027414888
0.125722483574035
0.130926109480998
0.127068706423746
0.13178222010935
0.127677504682579
0.130436330894691
0.124155380255706
0.130171865424796
0.127114397724725
0.129680094244457
0.126177178696494
0.132499928829863
0.123568296999105
0.136823926969566
0.124839640993465
0.131709062226092
0.125819514844387
0.128231267780973
0.128502200656693
0.128343760157085
0.129912548662283
0.129372104967468
0.12657380485144
0.128372384488497
0.126775243213589
0.130809490361664
0.126199105273578
0.125725158800596
0.123642421475758
0.125141459942592
0.121288744075859
0.123805113000179
0.120445986229484
0.125208440126652
0.120405261032182
0.119987399343102
0.117927680502031
0.120145343459955
0.116318621501627
0.116589414445298
0.113087168261586
0.115668345783689
0.112229193584985
0.116651786709842
0.111487523602449
0.113451222153884
0.113533554490879
0.110768948770316
0.108864646034867
0.11039319062278
0.110822872582412
0.108171929605128
0.106528061491386
0.108215969039367
0.106234766094892
0.110794837115815
0.107217337479884
0.108031842526317
0.1096875373444
0.112138847531897
0.109573763553153
0.111139823171598
0.111306412892152
0.110980492174875
0.111061143971596
0.110920514139964
0.111839555310632
0.114355353568365
0.114614537768865
0.114230941966807
0.115030168658085
0.114565137079481
0.117144969411155
0.116349828028873
0.114814463582452
0.116022941023436
0.118052997916932
0.118384982780504
0.11695922918738
0.116347227700356
0.114036791589293
0.116055388393584
0.114909431827284
0.116099178429735
0.116665976445426
0.117344425832899
0.114723814619264
0.117024345877001
0.113098495893442
0.115449381080229
0.114716395879627
0.115537453444718
0.114479008478827
0.114774691570763
0.113500428443248
0.114558014941805
0.111209342867631
0.11225733161573
0.110333394521528
0.113175221228639
0.109234503077963
0.111037714239522
0.109374429783693
0.113737695440662
0.109873966919404
0.110534400787167
0.109404527839675
0.110797273411026
0.108724291519265
0.11077785750415
0.106360985362311
0.1083298813416
0.107482910271806
0.106835095723182
0.106261428084516
0.108815221208969
0.10580110391293
0.105843597811073
0.105318124975188
0.105042981860693
0.102138056728716
0.104915246195255
0.102243290918628
0.103454393708648
0.100665369649325
0.100950168270431
0.100463646449877
0.100723838536635
0.100104992354842
0.0990076241888764
0.0979181445430391
0.0973081256403906
0.0969301778766092
0.096110615814524
0.0957305786485627
0.0974827614378781
0.0954007037396015
0.0960134432048928
0.0942312110954771
0.0950552153148388
0.0946617031563092
0.0933963530997812
0.0931700311686457
0.0938510484168751
0.0935756431554816
0.0957283867273177
0.0931529130725975
0.0925132206559401
0.0916517325988618
0.0895847423885703
0.0886444231619201
0.088562090350998
0.08828958432447
0.088362192107256
0.0855047016213347
0.0875183526051483
0.0863148194099957
0.089190734756732
0.0893073057641922
0.0916467521097392
0.0922254940481124
0.0959213859118046
0.0988069744170177
0.103377703747019
0.104880942343955
0.109731294834517
0.11248996151558
0.1189544843907
0.125837403594616
0.131455152303991
0.135484154431877
0.140068377334222
0.146711237313478
0.152202003124884
0.155995494408824
0.159489957470333
0.166738066483987
0.173113853563534
0.173381015810592
0.180614868288948
0.184162286453638
0.188440778598089
0.191137992941995
0.197141484977613
0.198311996726625
0.203965116817505
0.205648473292348
0.208851704454737
0.210528299148945
0.215270701625488
0.214483138280397
0.218022673036239
0.217193951225737
0.219160077555757
0.218818567810808
0.220960440910443
0.222686161138588
0.223692218797795
0.221498513291904
0.223211459717387
0.222934685408347
0.221564578935133
0.223366585078577
0.224427983746074
0.222866655519837
0.22660450653388
0.226553475025514
0.229146988000646
0.229557869286509
0.231864183110995
0.233818659344442
0.236030777827992
0.237144184161764
0.238957163105411
0.239981831313849
0.243045873144613
0.247684892939261
0.251665579125698
0.252795829563316
0.252793577375545
0.261291063020034
0.265706155699386
0.2658428906854
0.2707528952534
0.271143705049773
0.277163443959424
0.282031033299173
0.284006740460274
0.286601344323245
0.289761880294696
0.291408474682385
0.293225928803399
0.289686919812015
0.290015439779603
0.291055940600422
0.289662476241634
0.291031853448021
0.289978199590774
0.288619263001019
0.286782083861898
0.286740443506751
0.290683072963831
0.290867769489226
0.292146268716913
0.298802496053531
0.300688639775685
0.307678996690657
0.3119288550451
0.318031237656836
0.324537445840141
0.33033983653434
0.332289418048651
0.339800607140753
0.348075470935166
0.351729849009306
0.356603385442173
0.365746202781653
0.368571652998381
0.376697206583842
0.382548711234349
0.38282369384207
0.392879707742488
0.396679805419304
0.402526291956264
0.409166798838367
0.417132323025258
0.426351558542088
0.434105125495767
0.437252340103331
0.444555436583489
0.451847060058754
0.461303732836584
0.458910535821681
0.466770391945383
0.468480919704568
0.479634685106237
0.478532354690542
0.480452734773515
0.479495095894604
0.484213878918938
0.48605577072837
0.482079798901461
0.483076688800235
0.484500938120634
0.479727528490051
0.479678092324393
0.4735435035298
0.469578733736844
0.468385881721077
0.467029845422205
0.461365390550323
0.464564598215894
0.455429177574367
0.457439876989749
0.458984012730004
0.463828152326376
0.4607380908221
0.462252972565485
0.465458604128889
0.4677461460818
0.475442386907304
0.472772940955623
0.475352419685334
0.480750519657804
0.482179754650424
0.482237825280957
0.48711600913693
0.490267165009054
0.486828172050489
0.487076899974528
0.486292744646808
0.485092870221633
0.489124186974388
0.484973991016097
0.484860463800922
0.483673993845099
0.485899292426664
0.48280457520531
0.476354120138396
0.47714102949407
0.485964130785665
0.47333184634482
0.46501738167159
0.467906631943019
0.462860668347099
0.4531376771109
0.45091659584715
0.444817758684859
0.442605431757329
0.435576293623493
0.439789570084544
0.434211341511099
0.427267195263808
0.41793939180871
0.408354816455773
0.407397131691784
0.398337530454815
0.385190702759455
0.374864207479361
0.368171864265023
0.361817427196643
0.350424082968529
0.333576226654092
0.324161256446699
0.311591731984985
0.300055623436393
0.284907384625555
0.276142776469489
0.262744300315733
0.252394546425203
0.247629829446462
0.235990139429807
0.23315014699912
0.230405230202956
0.223135395574152
0.219463436173195
0.21851121043431
0.215801497811051
0.215618065679293
0.211348609769723
0.211346405132977
0.204434885329114
0.205764982371696
0.204667459265964
0.199735864502596
0.196267645106807
0.195183758483365
0.190680891021625
0.188329244431206
0.184330765061081
0.177645661706321
0.172308790211334
0.165706909971146
0.164254293783394
0.159654270805622
0.152251894804356
0.147091158601157
0.144592881471568
0.134400108883581
0.127462657679801
0.124349289002737
0.117871479003826
0.112276177246829
0.106026834597807
0.101955864573544
0.0987097121415572
0.0961706239446583
0.0895542661439859
0.0830875339489004
0.0801006581120105
0.0774868711714247
0.0725647933070654
0.0715147228245209
0.0688565994844871
0.0703369789174938
0.0650230016012216
0.0674306468921468
0.0649145659066186
0.0646782956982793
0.0610396624377078
0.0611252948547284
0.0591510737780891
0.0606434553400525
0.0618661992579692
0.0597009682100263
0.0610785448821939
0.062574828140852
0.060886541791449
0.0592973412904676
0.0609220747490112
0.0644271219108498
0.064237884183548
0.0625600882782882
0.0672342315093809
0.0663563279603524
0.0644620753687879
0.0672463317337945
0.0603510612147872
0.063332503879845
0.0631909725037783
0.0639312819749364
0.0650842589852774
0.06009905337846
0.0599533537866332
0.0605293462723893
0.0593508222269741
0.0595175949539714
0.0571442132091532
0.0603156000146382
0.0592295210360474
0.0603728800397245
0.0628939527133315
0.0614228480182376
0.0640409226782424
0.0639296852206497
0.0626030854562752
0.0665347359528857
0.0654884939545351
0.066827545903342
0.0688053367765813
0.0672016769831729
0.0696659623147933
0.0679213095800339
0.0678506379737323
0.0673914809426869
0.0670458637078176
0.0714089541486456
0.0685418659412662
0.0704817911396591
0.0732239823120763
0.0716258736355077
0.0699127790137775
0.0713597429987995
0.072322962203844
0.0743591081177677
0.07263714694226
0.0769205219929291
0.0753532705620026
0.0773966970958466
0.0797169563152338
0.0829088844907613
0.0825302352702956
0.0868435777423082
0.0854110977053717
0.0902029770381583
0.0916207428359738
0.0933746053046143
0.0976527918763929
0.100218542026723
0.0932559670832728
0.0999248231938932
0.0943846514084385
0.100158094207482
0.094447448335456
0.100616351632233
0.0953191931631797
0.0903497173438116
0.0843180751513523
0.0877438345634565
0.0872026313335981
0.0853014829588583
0.0852834664754912
0.0825492256275652
0.0795203428468074
0.0795335418938623
0.0823347203524907
0.0760031255602298
0.079890595612355
0.0839295387986135
0.0787638522953421
0.087630610982864
0.0791537043000957
0.0807825149508977
0.0816607996639653
0.0813694946345051
0.0764482141179046
0.0767675189574261
0.0696352864910959
0.0739906870942062
0.0711035058075658
0.0756146609197095
0.0720713777189801
0.0779634677155305
0.0758589201827027
0.0722110002085253
0.0709522968089413
0.0759718366714863
0.0698490193605756
0.0677642558452975
0.070804631947916
0.0707105437154168
0.0670131328637849
0.0701042457306279
0.0640063057108366
0.0635819919755276
0.0644029677375501
0.0657157040877778
0.0618876635491783
0.0684818397937334
0.0607513690639118
0.0618951751079817
0.0653747662981054
0.0662621709505361
0.0571158973993038
0.0668136041009042
0.0616295146582364
0.0647154346719814
0.0578490159318116
0.0560628900681665
0.0629862269474242
0.0644043805025821
0.0583470791018795
0.055316735963355
0.0534276851450912
0.0570458944182883
0.0554572067670799
0.0579409185257312
0.0497899392327432
0.0594888195479675
0.04997897998203
0.0608849028738868
0.0536335372979305
0.0551434477212345
0.0498544983113603
0.0609871552949881
0.0589170631340697
0.0634463469174101
0.0520298388472482
0.0638909498120334
0.0567783798961512
0.0582473669655867
0.0509243596653022
0.0591797082074168
0.0610183381971831
0.0628045159869155
0.0588957202435836
0.0679414662303322
0.0557868915273613
0.0654773822942048
0.0646482245684508
0.0622803913473362
0.0693014835634455
0.0713894025316492
0.0619282489745863
0.0712768378419861
0.0642559405268659
0.068498692488211
0.0765411686566395
0.0822024377139595
0.075885405136884
0.0784175025174863
0.0837630550721241
0.0856686644247594
0.0798525002726102
0.0873476375011448
0.0815603216911724
0.0921170953796171
0.0932332441992741
0.0991403769719368
0.0955230304941432
0.107092804063159
0.105705599029147
0.112300790611229
0.101452752124795
0.116618301525362
0.117619565019888
0.124763168885811
0.114565348007023
0.123260805578993
0.114622920154068
0.115405912746061
0.128911105442506
0.128173796877579
0.11528913245025
0.110538847801581
0.110756265539817
0.120409648589369
0.102377860209908
0.113767102788211
0.114297809822091
0.110372522787397
0.105200460237102
0.107160197414675
0.100286953598773
0.112922481702062
0.087607434930475
0.101286293127747
0.101600726273284
0.106302936789523
0.0906663533055092
0.108416611482429
0.0872140041230097
0.0948511195323124
0.0997047191663946
0.101803690714878
0.0937469135054435
0.0911883376400458
0.0871300153630068
0.100898620125712
0.101510565172027
0.111524800618187
0.0867521874144584
0.0955738987430636
0.0933856319613095
0.105528436902723
0.0716800598879042
0.0918326611073561
0.10074011905949
0.091417032888968
0.0894886311360879
0.087643130674183
0.0792893102648945
0.106039928739983
0.0973831539480416
0.0860533407459265
0.0705949281492133
0.0886875719514261
0.0871536935352821
0.110042359030826
0.0742334121431107
0.0911686401488839
0.106918566376851
0.112786481977498
0.105366096741477
0.109817276680521
0.0895453737181046
0.0940552755612211
0.114375820798513
0.108737943625569
0.0841544631791253
0.120719971283199
0.0858071281790994
0.101544155189177
0.115699782198648
0.119888873810673
0.103912626893777
0.124792891746907
0.0933681227511462
0.119163891971136
0.116315298908005
0.117703983718158
0.0976732643473357
0.132330796958575
0.114085505924032
0.13374835596254
0.121764514640439
0.142447890563129
0.133223124522084
0.135950136959172
0.131901080937057
0.178391550910117
0.138665642545134
0.157752375659876
0.158290664047157
0.123109014774844
0.13875861698658
0.136602976597549
0.102609254969356
0.147865909108946
0.153475059395665
0.178238796425253
0.123309672862242
0.11740811714184
0.13336118806938
0.124009919696568
0.0946487441851784
0.154288510227018
0.143502569055169
0.125489728504254
0.136804014638291
0.167866843468944
0.12230694871169
0.137099935407315
0.160442176709669
0.165486586765218
0.112435022491551
0.120746788192332
0.127654846996936
0.16626627064395
0.0954910045874058
0.156718088772436
0.123366846182504
0.163550654938983
0.125207025752959
0.0834918788479973
0.15173139546779
0.180615637115591
0.111432036613587
0.130317802151648
0.109778088371093
0.204254633191508
0.170446980450811
0.14981540815438
0.136370434140459
0.142997213689301
0.0608891164163464
0.0989201962219815
0.134775366670229
0.153723365049082
0.00702284712540289
0.11354347093913
0.1865571611678
0.132937142546361
0.0962730739585306
0.252995640332266
0.162945384795258
0.179911103285622
0.160508154969503
0.147131296887531
0.25859334349192
0.268357027845441
0.262367923314147
