3596
4000.36533379555
650.420452594757
1
2
2
0.0847517746556015
0.0925101676003389
0.0909118336095337
0.0896296797580057
0.0977108520055072
0.0907989987529846
0.0870852379270076
0.0933413870279887
0.0857787977154338
0.0945501435860087
0.0886830907586149
0.0904700158347947
0.076213694194538
0.0796359626243215
0.087778787698585
0.0931160089397288
0.0839407970869922
0.0874480216525255
0.0933219507293585
0.0846109794837474
0.0794705700347776
0.0818957007616195
0.0817548138570588
0.0787089325442957
0.0811314108760116
0.0900935770107247
0.0828164735213588
0.0844910830318409
0.0913109758192672
0.0974738140422877
0.0919142971287421
0.0897362698088997
0.0842743305480082
0.0843297296947754
0.0860505652228352
0.0925246604178498
0.0890356320839774
0.0856276277582282
0.0837215193332758
0.0975586086115315
0.0917638232081775
0.086138119433494
0.0797960559123071
0.0935047807832963
0.0850988198306762
0.0844120776602941
0.0862447518575928
0.0825343490718441
0.0799724380717633
0.0890787038243818
0.0900169254559568
0.0855358017128351
0.0924086053199013
0.0933928881033023
0.0898670925380248
0.0970867529190705
0.0870127171693564
0.0882087854950271
0.0885629737095881
0.0792228728638324
0.0959092806435986
0.0990331549521421
0.0843743357039056
0.083200150867853
0.0889408714819048
0.0831419165215596
0.0776225938085533
0.0817110474825284
0.0774221670340631
0.0812312543676171
0.0777715831960152
0.102325857558122
0.0897077063052185
0.0825054337281305
0.0837855587493755
0.0878033843245092
0.0879040022242875
0.0778741491445068
0.0707897351276972
0.104934618353045
0.096005646990084
0.0758605640687475
0.0857852508985739
0.0788674734417311
0.0892651171437016
0.0988980032812948
0.071664102240325
0.083109554622487
0.10008264599752
0.0889337913101784
0.0890249979571711
0.0823323609848477
0.0777357953942925
0.0840683908878157
0.0764534763345075
0.0777000847577621
0.0751099244304542
0.0849528102894464
0.0721749528872711
0.0962076637739671
0.0798758925194296
0.0941032473361005
0.112912075191247
0.0684237185866074
0.128278191923603
0.0810666334322434
0.0733152547918318
0.126888308108152
0.0814184847518005
0.0827166828721429
0.0771248821707728
0.077452458915496
0.0818719322169021
0.0944185703360852
0.0588237592827432
0.0979980979960203
0.100641343522496
0.0823367863727687
0.0764988951423075
0.0792115546014103
0.0521004549340724
0.114539948108911
0.113428696656228
0.0749314223423599
0.0882239501621594
0.0872229505641678
0.0718479946389199
0.10452182830702
0.100712843607042
0.0846231858376902
0.0753312070561843
0.0832698945054905
0.066179470134628
0.0673658634203289
0.0972069364387366
0.0782738242990722
0.0771804683743746
0.0591815061138256
0.0922593598296334
0.116199658652709
0.0911209652546034
0.0775300440672418
0.0611080547156185
0.0717202742244872
0.102525046159248
0.0859268611911092
0.0694174384158637
0.0847942907010817
0.0771212843976001
0.0808328873601753
0.0705251820484803
0.0622515296086465
0.0989299356558377
0.0938979569107878
0.0328665877945344
0.108768673983863
0.126182749094296
0.0764755326115752
0.121001852892268
0.0681039900564381
0.0783385434670801
0.0705421577786477
0.0868557278678409
0.0668651209451519
0.0801542798069081
0.054732757256493
0.0768119130043065
0.0988666330844943
0.0713034114285506
0.0693715449423302
0.103373348860123
0.0731137630940794
0.0462135277449816
0.146817366605271
0.0869818482196168
0.0716566328788052
0.0922570779644406
0.086534545124836
0.0648973259412019
0.0825650565165406
0.098149453461188
0.0662930059491778
0.0735489942327905
0.0711807912350956
0.0771434631541042
0.084998704814692
0.0684415310885808
0.0760497024626999
0.0721974289202775
0.0500856848826637
0.0854292024321766
0.116487036098709
0.0982484020118858
0.0736467451207777
0.0825746909515834
0.0396713430495082
0.109722564160134
0.0987562471383669
0.069408187033764
0.0664293806678914
0.067901164210878
0.0711843468163364
0.0724539820806533
0.0695916878969611
0.0678714660248735
0.0443522026052089
0.112633962957039
0.0831419716245429
0.0728701099910977
0.0701755191173906
0.0652904685377634
0.0537988118060728
0.113666286825317
0.102350321040001
0.0788468039186299
0.0759527419303766
0.0602407169880075
0.0696544122883819
0.0888053470972628
0.0704296191344769
0.0786122023558197
0.0693712357946924
0.078361416579467
0.0785656199310121
0.0710274303251505
0.0695040400998741
0.0682072996030963
0.0724202630377626
0.0754397344306008
0.0688841773834201
0.0760786226195269
0.0720111074590054
0.0745843469826733
0.0649579441809149
0.0659729962025371
0.0787568835934741
0.0962739252972616
0.0740208223760227
0.078205724350067
0.0654643001059188
0.0721700537516025
0.0706842466642224
0.0720196151491648
0.0692490051161914
0.0680872401356934
0.0573641260169377
0.114023395228803
0.0764197485535241
0.0816922283461052
0.0570951149997806
0.0955042154007576
0.0854719661912937
0.0781959796250489
0.0650121766262772
0.0767500884341368
0.0681975297355621
0.0707564726554611
0.102743715911332
0.081161217598706
0.0576771648367885
0.0886627765957047
0.0806002150385165
0.0727334342787494
0.0688336484045051
0.048158016411929
0.137657420519883
0.0742406912031611
0.0591270116177534
0.124853475111394
0.0821467420662248
0.0775758400575266
0.0778688831936786
0.0510890052918636
0.20433273701946
0.124151422524361
0.0775251113888358
0.0740613092408285
0.0956495342968847
0.0664320645446652
0.0756778393112383
0.07745690835705
0.0805580831956711
0.0984598401736846
0.102906026836135
0.132611074588322
0.0578235016637847
0.0996204303847225
0.110133516522712
0.0875876949664711
0.0835888514386798
0.0740520992875917
0.0691365287013124
0.0947014616840033
0.0930969496992152
0.0919773663768372
0.0896975457796113
0.0703646107211809
0.105693255479642
0.091124577795491
0.0738966092794463
0.0815938053918179
0.0917513000853504
0.0704349816099173
0.0878647189407534
0.0864295302267055
0.094087632935602
0.0764183306343431
0.0734132068509358
0.124826715805216
0.0856277631596531
0.0833156024577236
0.112154451381215
0.0880429946921264
0.0814478834097021
0.0855514810877799
0.0912266827232064
0.0890062408445241
0.0786808362553704
0.0705277224445516
0.114087989720069
0.0937314370936387
0.0912429499227416
0.0904759917697595
0.0829123408215264
0.0909725348745254
0.0874237919199665
0.0883581916241679
0.0845990446373783
0.0905396675994544
0.0851872665372686
0.111313440346023
0.127288093591193
0.0647173649906179
0.13189593043038
0.131686564937903
0.0868986499702101
0.102017117648245
0.0965230551754818
0.103298465459464
0.0932278955887552
0.100483425953622
0.095551432129373
0.101741131297775
0.10949913390798
0.11286879811345
0.104360263327207
0.100907227007263
0.148953310008258
0.167619662265435
0.116191673032084
0.110795249905067
0.0817549969917297
0.136776305239915
0.134130991391926
0.132485855023961
0.1381814822874
0.107535155210297
0.121694120450525
0.117856017507044
0.126700882305732
0.112062776997855
0.126120851937923
0.111996648654808
0.123916693030456
0.126255917406154
0.131656469249365
0.108709248018589
0.123436787719932
0.165153276297364
0.139472657376908
0.127794138163142
0.141840321861376
0.123264041376695
0.154579641299205
0.155670228893565
0.186668197609044
0.183172790131678
0.152641426264676
0.185527360348187
0.145546024388019
0.157562406561721
0.149366433597833
0.165668723038486
0.157182141634541
0.15834999374782
0.163929185381028
0.15570053937296
0.155988173651312
0.176198897270176
0.172591348023314
0.177178438463392
0.163184100984874
0.202183467099136
0.190250212369872
0.198262707950072
0.1750119407789
0.199983623514391
0.219314808270066
0.226057083224004
0.195677938264995
0.198195475601674
0.201768865658575
0.198277310230865
0.207091264458278
0.20745303545696
0.214244261667857
0.210870102284324
0.235115161151595
0.231970494240787
0.231451943174499
0.24304331184655
0.220178998722626
0.238442583664001
0.237547520316184
0.243497422153041
0.273525230237868
0.25342844518568
0.241702366830096
0.270536758483817
0.276172248934185
0.254159036470298
0.274085455167114
0.237231182346604
0.268424229393067
0.257602690887534
0.269897179630081
0.263753315708811
0.286394973123596
0.281381258695173
0.271941583959846
0.286557785453412
0.286208153994203
0.289348303378494
0.309641714787121
0.305214360715249
0.298323815539543
0.31450127094073
0.298381910583494
0.319988670501549
0.306997653817843
0.32398018041827
0.343565834629015
0.315828311941408
0.351927625304543
0.327348472421352
0.334076291630834
0.333804158199236
0.352515634665819
0.340007954386205
0.358774392655776
0.359166150692002
0.362151629052204
0.344150496554285
0.375270236217917
0.359120492473496
0.365127526095042
0.378298657172907
0.379516060089695
0.369048638815037
0.392932550446429
0.38555212504118
0.408801660125505
0.409819515755676
0.430372741813193
0.422949209165321
0.433385669765909
0.427084441987617
0.428833074593909
0.417763508809567
0.42362074264257
0.419806936424689
0.438683727848834
0.431600826836726
0.453592419321665
0.4502217410919
0.457784824180312
0.465354763968819
0.47199615300677
0.458640637928015
0.463095080799809
0.478691343247595
0.465148808102514
0.490051657649292
0.510718451914362
0.486183579530741
0.514278397642539
0.511811999543416
0.540182439226936
0.526167902503503
0.499613924739897
0.488716781588426
0.539242131951659
0.561401158899646
0.547705891699309
0.528836128088872
0.570381679532455
0.546324939966831
0.575266399524338
0.557234362896349
0.552883916559434
0.571080662563852
0.579480253901584
0.562453171314608
0.584382727556238
0.577182730117333
0.600070779241587
0.623295313037948
0.617631355394391
0.610786162856531
0.623571837515721
0.600148368623203
0.633833117694439
0.628999868007164
0.639185802131184
0.622573205686409
0.68430045315129
0.622272920528501
0.679110618215917
0.639308416203789
0.650513501534251
0.659509964094738
0.665500361456695
0.664065680486447
0.666681563535871
0.666105039871525
0.694444993836475
0.706234334942156
0.713228705968244
0.691216004769035
0.740876910461135
0.689136566187712
0.765566720697447
0.731590461900476
0.735875435861632
0.707262704833787
0.747156787329308
0.716864147222135
0.751440773205856
0.737911876854869
0.740242287553453
0.767486502615596
0.796027613905719
0.770089322463956
0.809897853008117
0.787579808791575
0.785258505645105
0.755634544309548
0.816568606566074
0.805739241895086
0.811894468184325
0.841618197436283
0.858528526446167
0.876620136868805
0.840280185632842
0.855195695527366
0.846125899856771
0.817318399649811
0.925344688486992
0.864009830842485
0.882421515923338
0.815137260871065
0.864610080130539
0.867383273362454
0.921534669676911
0.934814780920161
0.905541763153672
0.906879411126997
0.904487976534824
0.848084841030536
0.938533575188337
0.902963534301252
0.918580067762259
0.90646118383073
0.928046922882744
0.895282956687026
0.934931883224208
0.984035514019056
0.973637614673954
0.929669756473223
0.95636874208117
1.03080301447851
1.06545069827563
0.991573557158219
0.999283578184449
0.950355723165835
1.00069796194766
1.01116127567627
1.06421068162702
0.953108392703623
1.04092328938634
1.02059129745664
0.99611569513632
1.00507206530591
1.09315176682869
1.02115335552409
1.1068595371205
1.09879499328213
1.1175617142691
1.04179014996353
1.08969377415594
0.994754482710852
1.00261650461052
0.960712691200583
1.10775527554269
1.07356034945997
1.04498627631431
1.059319811632
1.25884933379674
1.10809983586332
1.12072215278573
1.03689070554796
1.22471030850372
1.18027791000302
1.14978716060288
1.15905106797818
1.2189471466126
1.14375304939797
1.10086137828661
1.13215902374863
1.19796607911974
1.09171492889265
1.22217464598887
1.1536622212229
1.18569318412889
1.19462586863787
1.25657550257648
1.11943808434463
1.22772871872806
1.15402353141961
1.22177941166543
1.14723867622947
1.29008196088935
1.22969283019414
1.21195140185939
1.18351063016746
1.3145924989408
1.21850219727344
1.20248675757686
1.31554922149504
1.34834983744693
1.18121845291435
1.17368484401154
1.15278760145474
1.17036413508185
1.23393110770921
1.28949196250123
1.19720475328418
1.37414314313995
1.39238596324501
1.27719820744299
1.20519789402022
1.30902941184869
1.30906097919575
1.34929036271707
1.28559123554178
1.29689009464489
1.21201945994247
1.40909552350864
1.29569627715752
1.33298893735948
1.27288309711752
1.29313936318925
1.2760293559226
1.43161973078311
1.32631559228457
1.36713260096418
1.26175935736199
1.33479155707946
1.30651371272659
1.42831538133069
1.42343809288364
1.33341262835841
1.29129120839909
1.39524893702722
1.29599709446357
1.27832609316532
1.32134211511646
1.4092764417634
1.39080928644097
1.43833122487557
1.30375279030219
1.37877363087509
1.32234438072504
1.32990250801688
1.36582189764679
1.38129833647821
1.43563320688422
1.49515514037745
1.38308743204935
1.5056420371449
1.42946453314428
1.40991249497487
1.36107657838026
1.33614066770431
1.29730729271455
1.30405681156465
1.33738909071589
1.34311363042315
1.4304809998153
1.59655509236954
1.49288868728662
1.38610415672679
1.48894718330015
1.5132975568435
1.35750340850101
1.48982062690977
1.40803234204588
1.36025390820903
1.49403120166383
1.43433232795363
1.4375030853166
1.46086861840298
1.40751098938077
1.53454159231772
1.41026749246282
1.37081893033101
1.33364273216552
1.44050149030356
1.45031604729523
1.45592013841376
1.37519569144611
1.47648178733209
1.32187828892407
1.46213847407149
1.44149633928121
1.47178149211515
1.36245730004816
1.34696575114803
1.57143644280767
1.38143284156369
1.43841211680604
1.51445604711756
1.41366453802422
1.50747817349177
1.40104721772496
1.40518971077117
1.438761455377
1.54826285203073
1.36360986344879
1.30555234027631
1.40886372933817
1.39866652605487
1.51093127183169
1.55994538985052
1.40818869152612
1.46440155048556
1.59966341173535
1.54275720127238
1.50292495340775
1.48047565417551
1.3979331119023
1.4354228246695
1.47837462092584
1.42879768108293
1.36105579316693
1.4840147003302
1.45499756456445
1.42329999895003
1.33653619654667
1.41465332211433
1.56498941190487
1.3728334392554
1.31917149889797
1.40092280488148
1.4050440370035
1.47398270424601
1.44670649153107
1.50019140849877
1.49926280911289
1.50000254846416
1.64704118771247
1.47325746560352
1.34784583785356
1.52203723267416
1.45518606272253
1.3964418447267
1.55500805311817
1.48451294008502
1.40798689765204
1.4721311972308
1.39356148508649
1.38309514395086
1.39848888381343
1.43498562174483
1.52720305558137
1.67280622257492
1.47524250064325
1.31811791359378
1.36111553768989
1.44272443978732
1.51280439663916
1.42742629764416
1.42833250751083
1.57267013838908
1.51317441926494
1.4056937948805
1.46689481176609
1.45737942133668
1.42308543775056
1.50310911704324
1.42290566162585
1.33439000700114
1.38474980058352
1.42285901610108
1.37633736126003
1.42120276987403
1.41790866566672
1.46372177239127
1.45757914029317
1.36809007267781
1.43084553896059
1.45198625091463
1.33119069451789
1.30036683975419
1.42043733189363
1.41939160376996
1.38731880864489
1.34191375318383
1.41970787166881
1.38996234132966
1.25697963763927
1.3189367513744
1.43400475330053
1.36615284444171
1.32226565554996
1.35208577310019
1.26051313547988
1.35725741947482
1.35681268843235
1.30856660505687
1.3949300731183
1.38559694150859
1.40154999050922
1.3395503228975
1.27346361723963
1.29016300474274
1.26964430204955
1.22152350023753
1.30778373233895
1.34271032057638
1.33815325357868
1.31659248107633
1.30363436987639
1.34720215491612
1.26688433395142
1.23853822756535
1.29950499670566
1.28424063786503
1.25883913276873
1.27322006279796
1.27743847380598
1.19508870399269
1.22174805115139
1.27110067973827
1.26152624373463
1.26063748117519
1.2105296183596
1.2105690985837
1.21621067152077
1.23028732182219
1.27299293937461
1.19254846364222
1.25073532360912
1.29744072074718
1.28916014039151
1.22155979269324
1.23646979475638
1.15493368413115
1.15496935570519
1.27559824245388
1.20574822387273
1.17655244313099
1.19556992553545
1.21726629810533
1.1823259111051
1.17033529653964
1.16690100683256
1.1449837492815
1.14813399899505
1.16045499789625
1.1974917364348
1.13680630835943
1.12072219694688
1.11273155568026
1.11162391292259
1.10180730581011
1.14440151781331
1.13765435790852
1.142311460467
1.11866884354094
1.10826939330865
1.11004255263845
1.10230531352924
1.11055483079648
1.10000023734855
1.05141498106778
1.05137822213907
1.05400584451003
1.07172082213036
1.04671841598295
1.03706415351812
1.022534955247
1.04996682442867
1.06159221785321
1.04120737021883
1.03843698661418
1.02314504267135
1.00523288165444
1.00064788535203
0.987072380758482
1.03238074107736
1.03077377403031
0.997087294808974
1.00041566903102
0.99593607678154
0.979788660328035
0.979951959271325
0.960837549210011
0.974838037270735
0.971825402365353
0.988599959093491
0.956978938640656
0.958639986362618
0.926356670210651
0.941623136172457
0.951584456499977
0.937230360012015
0.918472538870964
0.931267789534549
0.928327752014837
0.932164687821424
0.906048839036418
0.911706551349679
0.897589444444183
0.911021053766399
0.894751392070425
0.896116561697001
0.891829751578386
0.876681449763867
0.874059839566385
0.89047271402559
0.884268562812013
0.883770410903442
0.855660304595183
0.856347223423655
0.861688100727753
0.855412937261144
0.828278319420927
0.83427573693317
0.834164553470108
0.853333126486899
0.833048263339086
0.833251231643331
0.829486279394201
0.814597201862867
0.801111901645716
0.821743824277
0.807549033541363
0.790323960106805
0.802322298903444
0.80618023941368
0.797223957570238
0.811368825266906
0.782420610338154
0.792429552059344
0.783476643411574
0.776842476949078
0.767217393037125
0.760170153551049
0.749090288993707
0.76398801530261
0.742719294685569
0.76051074277115
0.73707002075418
0.740076202180848
0.733809877200828
0.72721903568324
0.718328459481551
0.720718917075853
0.707676609401117
0.721250911669409
0.729645891789585
0.718626557353384
0.699965022475068
0.718191312205639
0.701380337009122
0.701026131532335
0.697484438954417
0.70039459257092
0.701269557952829
0.690960402584235
0.673900633076986
0.692431510201437
0.661486654963509
0.684246691255365
0.672869227026693
0.662545592709596
0.661265183945156
0.656382509207637
0.64885068316199
0.655908342692071
0.639651504229247
0.647277060978086
0.643668036627884
0.657553661523699
0.652951750078918
0.644268211504442
0.618379266269266
0.628505335719398
0.613577203871604
0.634306307329227
0.621556876784997
0.613389576225442
0.616516693978904
0.626593482362846
0.604998603156901
0.605769334002452
0.604097975756839
0.614644674192011
0.59783304269245
0.599413328291322
0.593657532187283
0.59366195631977
0.571394995278994
0.578604277384127
0.572270544874507
0.574797188566189
0.551012800534868
0.573533249809065
0.550318460862109
0.569518452940301
0.570814521082299
0.567970887921303
0.557320860453067
0.553323752520267
0.545343962873935
0.557728570747908
0.544652652073105
0.551296750625763
0.541385277326115
0.556920012694023
0.538158734803583
0.546292375147581
0.528558018753709
0.520944584268199
0.525264978880573
0.530956930859928
0.517701557918568
0.523213166186473
0.518951569355965
0.521789531100681
0.499407145217886
0.516646877356842
0.504351906574537
0.50665096774474
0.499923147027895
0.510174448592489
0.497108690076137
0.511990063142391
0.496958061479652
0.501642423667741
0.483891251673335
0.498637404199501
0.489682066177942
0.500779833998556
0.482098273818703
0.486513714006424
0.490207537722787
0.4885227730497
0.476211206240957
0.486352522373472
0.480209695286255
0.494318184379059
0.481007587418249
0.47825386201007
0.473053134890796
0.480221600200793
0.472389419366598
0.478749774305398
0.470386860768102
0.473365277406073
0.466391744881249
0.483421742192352
0.477571827077237
0.482385298269501
0.476891743446387
0.484992804880843
0.464747964088319
0.478700359886175
0.476849905071803
0.475668075954613
0.474892080642395
0.484066417255486
0.478565385135023
0.484506247066131
0.476377716203676
0.492443509563181
0.481388830965388
0.487164823021033
0.486089379566347
0.490385427090508
0.4979702217624
0.51334984450525
0.489662677981782
0.501757023613018
0.501341574966246
0.517762440129366
0.498476428128116
0.517597090633462
0.507322099579943
0.511333862872205
0.508319318843828
0.511952651019047
0.505537700465566
0.521827819086607
0.506629054421462
0.516129725929643
0.511170735608242
0.522195869359492
0.515209245775781
0.522821718602816
0.544274293161395
0.537448436829921
0.53424519573161
0.547785934357637
0.548918136514638
0.547771794801192
0.551778881818206
0.576239232035765
0.555710262083672
0.562034469231787
0.544297885696905
0.572037813309784
0.56835693210521
0.576625439719618
0.578325916577208
0.597078266302248
0.59537052944944
0.598333762642882
0.591068194036462
0.596692431859122
0.589488300187168
0.602099927822108
0.58899029640788
0.615964275900666
0.606541765276328
0.614677739953756
0.614132143062544
0.620187248055526
0.622626311040354
0.621390403141236
0.624126578063022
0.611710669103831
0.610339848389884
0.632882482380505
0.613458731915365
0.620091547960508
0.610178382252661
0.620147708621774
0.599038317670303
0.615318786083824
0.593012914336405
0.605672913354159
0.598059173084665
0.617716499516743
0.60252146794164
0.610220274787791
0.614788818027446
0.608920456772655
0.610632341549521
0.601945956919967
0.594384272077927
0.626321444688569
0.615895955853679
0.62224289496079
0.614860912202024
0.613904644364467
0.608142280592043
0.621003550935925
0.608215139931582
0.619180861292754
0.614465539943153
0.630118028225846
0.606309419264815
0.614040251777613
0.602170827210265
0.61288261314583
0.623673241854246
0.623432149881033
0.60742579266802
0.629417541591984
0.61359670487863
0.626010232609216
0.60849080865113
0.6200886141293
0.606862627572999
0.608395031094641
0.601542062838842
0.60865497953488
0.600627058569464
0.6222531630185
0.611122847064718
0.616812400081388
0.607146774561152
0.610126513206023
0.598108549257624
0.617983083329716
0.597014585314358
0.593558086261735
0.601010234798362
0.601425046354547
0.58423573197838
0.600061214993777
0.586643209690275
0.588481137471582
0.582492134601983
0.580447124135134
0.572946365176484
0.562742456569422
0.560361023454417
0.568189909887738
0.552147923203196
0.560641410070803
0.553257855789959
0.554386250252328
0.532180433074945
0.540997127557035
0.535513003873256
0.550629763719016
0.529289751145577
0.529383030155116
0.51420918068174
0.527079924506736
0.505940962278476
0.515351193688258
0.503813808470974
0.499959219440076
0.497735315395787
0.504936406151342
0.486305526712695
0.496721270579928
0.483068302174786
0.488996186393943
0.478283773095607
0.492232275975397
0.478805541651294
0.477114634484557
0.467258847992916
0.47233718740473
0.457425767048472
0.469207182272361
0.456614433711447
0.458355298254107
0.454278967876381
0.464185694539926
0.448791349821287
0.457495806406688
0.445522702108594
0.452046925159643
0.436376606975541
0.445565690142839
0.427819359517009
0.439640273855096
0.432126245121994
0.44076220291666
0.430776042235651
0.438468210786867
0.427141527592719
0.425798634714266
0.425164170021248
0.437814348616221
0.422224844343609
0.424366892140688
0.423124816036701
0.432813093498944
0.415322312157419
0.415395422433086
0.409632179721924
0.423880945614492
0.403893246789351
0.4195746988035
0.410385652425439
0.413300338719525
0.404368410734627
0.410674360195951
0.39499975067744
0.404444332691208
0.396843032353476
0.394274075115053
0.399784571764933
0.398125784598418
0.388126503219995
0.39530282921881
0.395464711173096
0.397434712358204
0.382332657796139
0.388684182495585
0.38321639004077
0.394143162539288
0.385520492738112
0.392019169025929
0.382680736802672
0.38800821622728
0.37851379318976
0.386152658871317
0.381843108101342
0.39404323241506
0.372495386039372
0.382967135021051
0.373557616039732
0.385210788033918
0.37114251726982
0.380495757401694
0.371270511945145
0.383199370601999
0.365043780083786
0.37399066848682
0.361692439939568
0.374344330245645
0.366716079653491
0.363950792480808
0.369963084780082
0.369645014342198
0.356484422260566
0.362717683292974
0.358818358243017
0.364577831849475
0.360005518160244
0.359846854669792
0.352515204043084
0.364749063242739
0.358613828836169
0.359602351939946
0.351280403950401
0.36228195674157
0.345240950360513
0.356671407602642
0.349287596676717
0.358041389614031
0.346119707103227
0.356254800248651
0.347225767774352
0.359634537378843
0.341582100169832
0.351857155171208
0.349765708616934
0.349839613610694
0.345522294412632
0.345611021591051
0.336867245642985
0.348202052444785
0.342059123162314
0.352002050199514
0.341862521995735
0.349954727981769
0.343960607397728
0.344395285721475
0.337800929371102
0.343242676186174
0.33618830874659
0.351663416087497
0.33305844917391
0.344306497005624
0.337589609981448
0.346015874925921
0.343792164128055
0.351888724261624
0.334979456959864
0.336187807877405
0.332302950779393
0.342749983500495
0.333226335603652
0.337216439258799
0.331872693105208
0.343543704177838
0.331891130680685
0.338521751516654
0.32797054445866
0.343555906195671
0.332218835965418
0.335885676989996
0.332148583356579
0.33546032806164
0.333383487088575
0.336409464248725
0.334693729738558
0.324827838582965
0.318339961187446
0.333573614701353
0.323221205949165
0.329350663299118
0.320619126007388
0.327276062996555
0.319652570068085
0.323895702284038
0.319245471350396
0.322961491321113
0.317321790328039
0.321590881386785
0.318825091205779
0.32589759293799
0.317111023053303
0.32503193644092
0.320557648714504
0.325192625878691
0.314260144232339
0.322701124479995
0.307997436144073
0.316632731546688
0.317218160323255
0.320773292191079
0.310151044261904
0.314096419098362
0.310290929313608
0.321431814415521
0.308490619322233
0.309909971570504
0.30918403242967
0.314297029081583
0.299367488158043
0.317632987359646
0.306309770059172
0.308752748497917
0.299714209371732
0.306445034247287
0.301992578864809
0.305370959965024
0.297429919928686
0.307328236653189
0.300160869288033
0.302418404285003
0.30040105614131
0.297983715867444
0.296290249130258
0.305626072384115
0.290260230718722
0.295949902465986
0.294884639243526
0.295175845312537
0.28973849648774
0.301510998908664
0.28885261141688
0.29053335434297
0.29090815225309
0.298085235658349
0.287274465068997
0.288201989500295
0.279276264567662
0.289743263193173
0.280980730013765
0.282415601093074
0.279406301874365
0.293307650828511
0.277703235005189
0.288826221086955
0.281875445395474
0.279508785581104
0.277210209112592
0.27934557083523
0.271562609396064
0.276074482197049
0.271420608073467
0.284358709309608
0.272403654664912
0.276720106125867
0.268224538136266
0.272024455560323
0.267129145710228
0.267731102026599
0.265706542687822
0.268448089763463
0.265817320546743
0.269862969754381
0.261936082169039
0.271049955394732
0.256900654473748
0.267213117824521
0.259700274799232
0.263241149281536
0.261339532746344
0.263234548555429
0.257584245898861
0.261348448173592
0.26019203692097
0.262137831124257
0.258230199059813
0.259896554188202
0.253259530712434
0.257789503450387
0.251687162563723
0.257408257973367
0.254437707919582
0.254837513613703
0.252601927083234
0.253968273135315
0.250541849311403
0.249967612322554
0.244286948601382
0.253694397321926
0.250355503459178
0.258075460023775
0.246215647889959
0.249500009647218
0.248501891759926
0.256001872871134
0.243832166979206
0.243377232757838
0.242930770305761
0.246875138876747
0.241168793696492
0.246613409404516
0.239091283940253
0.244898473300554
0.237697840856429
0.243825665918073
0.238931210594324
0.243796147594335
0.23530114144082
0.241304949424367
0.237925044158279
0.23408486667019
0.235708797126428
0.237511218087396
0.234099972595705
0.241362859889621
0.238494381884315
0.233062163009865
0.238765100366998
0.239002542016977
0.22888097567997
0.239495689686968
0.23077375303887
0.235623992610736
0.22968138392949
0.236170789373437
0.234823169726419
0.236076359938222
0.227757281884952
0.23328096833502
0.229306548903275
0.239319647430389
0.2297641547213
0.233643823866985
0.227687858502021
0.232448712217288
0.223407750981743
0.230287298473977
0.227489824747856
0.229684039608858
0.226704964733534
0.230102752356004
0.227789196965493
0.228366910233097
0.228143868720283
0.23332725281989
0.227861141033612
0.229862358443287
0.225705715340853
0.23016772301693
0.224066483153433
0.228685462311736
0.220993955966361
0.229817683893514
0.219189184762686
0.225403036221205
0.21733696628298
0.229407763548762
0.221522896972969
0.220537706117138
0.219544932328917
0.227465571891735
0.222248762416043
0.221789529576285
0.221455883463494
0.219833912520082
0.219023166591477
0.219514795988867
0.216448473794439
0.224172146599659
0.218867247202171
0.215176267702743
0.215938896804686
0.215925360989919
0.212812596278588
0.217200624798133
0.213397220972624
0.216952537521412
0.213493664157196
0.220317921831974
0.213401146419904
0.21492948900477
0.20906970110606
0.214060604571212
0.208346534275075
0.212457329706931
0.208432406182594
0.210925688004922
0.212651007303693
0.214248769472648
0.208710012312033
0.209318145768446
0.211284582046878
0.211380133155407
0.209165348426942
0.214763986362506
0.208697461329325
0.212787836513163
0.206766273397721
0.213451169600351
0.208901697138978
0.210551139294233
0.205589133338149
0.211011012420309
0.208932087488747
0.211708967084015
0.205573002573717
0.208759313617552
0.202934500594919
0.20824642291922
0.202447631435732
0.206383251462594
0.202573750216061
0.206036200387928
0.204856089301663
0.204790183822948
0.199149704568852
0.204999184185793
0.199537615704235
0.203535336467968
0.198007243269505
0.199759694297708
0.196646619152237
0.200804251260251
0.193610791970395
0.200497226536772
0.193269616411922
0.195756429725529
0.194456147056889
0.198385709718949
0.195386930236659
0.192695690795425
0.195398400563779
0.193510736342946
0.192043161860257
0.193519783346833
0.189143821121805
0.192053777158336
0.187887399456684
0.192550188766443
0.18519388280948
0.191452422658765
0.183493469280634
0.19062759631383
0.187685229668599
0.189428109620723
0.18440905699928
0.185011553092964
0.186514052783641
0.184282906736238
0.184297006131167
0.190536311162696
0.181307194557266
0.182224205591659
0.179981018369104
0.183492134907418
0.180218239120822
0.188527638075044
0.183526255668151
0.181748639931292
0.180257940927184
0.181838121939547
0.178344404415122
0.177574984002099
0.174979271497417
0.179531096543599
0.176849715519386
0.180363749718541
0.176457681157814
0.179354808357932
0.173384248361212
0.176716089871189
0.176179283887018
0.174521702304582
0.173028394572966
0.177009555626922
0.171403358469837
0.178744077926929
0.173876849614466
0.170647084697961
0.166299042413415
0.17394813773327
0.170198055165686
0.169121122784985
0.168640036628654
0.170882119578729
0.16832430086654
0.166053450213194
0.163324248058074
0.169115747527086
0.16763209409639
0.163067527328981
0.16331701661414
0.166369847405687
0.158547633424205
0.164861594986962
0.16000200733741
0.163013917206075
0.162033677686381
0.164945351201277
0.160189696864756
0.160086676256483
0.160814948622904
0.160508850230868
0.160494987017711
0.162280166071853
0.1603682888962
0.159682799910598
0.157244376841453
0.160366477036167
0.159227760719069
0.158555304024344
0.155736825076565
0.157003569229929
0.156385457066004
0.160178261232285
0.158202054814328
0.158747083898042
0.155490418216511
0.156117283984577
0.152512402241129
0.158136322295184
0.154481746292616
0.157625251809222
0.15439114441407
0.154894725914741
0.151719199149735
0.155463567721851
0.155670781559598
0.156122508915697
0.156064463835956
0.153434218263258
0.158593172090378
0.155899667097781
0.151158493935459
0.154714433975823
0.152494487601886
0.14997093425918
0.146498437675798
0.144933442741983
0.146784547880986
0.152537799561756
0.155195088762159
0.1491583944462
0.143263828920648
0.143991013767044
0.149177359007979
0.15395514269027
0.141341176076727
0.146008816857492
0.147602447974902
0.142773750605898
0.145466478702
0.147130168896185
0.143741908193214
0.147725696043076
0.144191694324554
0.143895533164931
0.14798308863201
0.142328982295984
0.150005990764366
0.143539761903826
0.148357127931443
0.142362306903967
0.147726785976312
0.140035210744527
0.150694777870514
0.143853886330521
0.143638244613484
0.138780535278707
0.149171053981747
0.141941399379252
0.146115154866
0.137217333900291
0.145648068732049
0.135414158430408
0.147637825836476
0.134202213978733
0.147811370599196
0.132627995480866
0.156741056437956
0.136394955714804
0.158644961885783
0.129437536720629
0.149597087984297
0.132364144184352
0.160222102636895
0.129648475958362
0.154568297387523
0.127832264101891
0.156679258661522
0.133782150652157
0.145530979569697
0.135739905267668
0.146426602931803
0.144228421773391
0.135205066705745
0.149861919962794
0.13314087510356
0.149238278896735
0.125541725310822
0.153680904321275
0.130232976899504
0.153746692189967
0.131673775642091
0.147282152740857
0.132185385713007
0.141755518805093
0.138562599939177
0.138951770241532
0.138208209582055
0.136489859784276
0.135677541233721
0.137480967590702
0.134647760323027
0.13938090522029
0.13346868634696
0.140102477711
0.129367137136999
0.137149377115721
0.131146109546115
0.138037638405697
0.132471867067076
0.136493243762445
0.127757553781834
0.135351181136081
0.132113780085541
0.131067624784311
0.132108824743876
0.13991166954006
0.132790512417473
0.136079403877884
0.131860345223635
0.134744005678846
0.13114996512666
0.135809186682223
0.130218742367856
0.135272737402811
0.132855710332395
0.134045239043269
0.131753884389755
0.135698764797827
0.129713263018815
0.134179657473725
0.133718678944456
0.132850883888553
0.129772065171736
0.13377195471226
0.132572750847239
0.135518377445222
0.132786923088576
0.135055181844653
0.129641881445732
0.136661874073396
0.132136583040237
0.134836736245514
0.13482688748883
0.130722505719053
0.131142777901399
0.134520163263401
0.130142544029283
0.135733247370507
0.131638044676439
0.133954153929916
0.13085007765234
0.133858045148648
0.131060190072562
0.13470441524987
0.131926845831695
0.13164549548303
0.127993579323249
0.133791884033067
0.131666452808077
0.13526193153843
0.130724684087469
0.134342641419612
0.131989127418091
0.134350103711907
0.131829574018396
0.132054220565039
0.132146839379583
0.132992786501623
0.131486053520907
0.132244543422457
0.129194733715703
0.131292500782637
0.129070688182249
0.133037029883422
0.134454412098234
0.133987165028137
0.131252000230856
0.134328828436297
0.130363253304549
0.133206480098489
0.130348402820323
0.134805909673348
0.132384577286352
0.137319348814635
0.131263235809604
0.135480214893179
0.130051199562219
0.133135084890454
0.132877862282142
0.134890471030611
0.131117243630699
0.133029042856748
0.131387627954877
0.137926227033707
0.135316910672226
0.135393124146751
0.133905257355781
0.135835590536988
0.131338382533088
0.134897750661221
0.134719942113704
0.136974485753139
0.136077611782219
0.135579542994256
0.132599255325057
0.139292300809577
0.133863684397126
0.133883239851371
0.134692886630314
0.136667871696937
0.135236886185339
0.136905193658504
0.136388724660889
0.136347711170818
0.133640098917737
0.136929225996059
0.135252987983251
0.135402406747462
0.134056882815967
0.138006835146272
0.133202464986892
0.135102202510923
0.13444259859841
0.137665223616957
0.133912389246468
0.135993881971441
0.135338521600999
0.13580884390711
0.136346514562755
0.13802544904649
0.133560348771376
0.137345739621879
0.136498579273712
0.135268940236163
0.135727057094341
0.138792491945176
0.137298756866709
0.139608841205998
0.133085110203294
0.137772969352164
0.138296917369179
0.139427910792187
0.13573091274962
0.140861989071646
0.138684487319774
0.138505853050711
0.140247206018851
0.140710306479419
0.138269941528051
0.14073191619733
0.139555288413747
0.138827418179841
0.137654134233681
0.141133241485625
0.138097617408692
0.142901966094449
0.138639837820806
0.140839836569078
0.142082259438312
0.141451623092101
0.140787187880502
0.142244641808681
0.141020941907101
0.141077564061967
0.137402172991775
0.142122224878935
0.138259824551094
0.14086774662897
0.137270258302604
0.138695767932723
0.138836621508106
0.141821052128961
0.138666955504577
0.139727057551746
0.138405272403039
0.138677986022531
0.136920981455437
0.140083975287617
0.137719061683747
0.13699326951986
0.136514738075102
0.138635303085601
0.134069960407352
0.139126451058194
0.136060824801511
0.138455659676357
0.135369462288973
0.134114127682111
0.134623781655862
0.136963896449945
0.13458500825576
0.134177936008245
0.133578341826412
0.136989658247438
0.135363021708845
0.134449846402432
0.130948420851182
0.132523787488939
0.13305687193438
0.134993090349636
0.134183067887032
0.133844450508471
0.132768351825016
0.13417748956952
0.13213706714073
0.131880382744804
0.129925605757938
0.134513447440803
0.131375194692206
0.135406258310187
0.134898274557469
0.135457248931358
0.131695348767929
0.131892331666081
0.130377545694401
0.131576862256698
0.133112969073666
0.132669718913212
0.130715238371272
0.132570646812389
0.128410574851332
0.130971884711058
0.131020961892746
0.129554777936771
0.131984610849701
0.13309118977353
0.129476946581873
0.128416814293295
0.128634812712066
0.130354518238293
0.126427674778628
0.13029022574146
0.129259449131687
0.128480380479151
0.129294580253786
0.129752897433573
0.128181488740848
0.12635571706191
0.125685510607707
0.129126468164322
0.129994788362971
0.13120582494289
0.127188788714177
0.130242152896633
0.128259228144311
0.126524312302914
0.127095561903444
0.127389453035631
0.123796430629465
0.128061992449321
0.126924818470075
0.127792666809752
0.126478271233663
0.127788550423417
0.126996169373666
0.127993535310136
0.126684987331856
0.12552764630588
0.123585727202431
0.12464390714909
0.123247519952774
0.123966268124921
0.125192179964253
0.125018492199425
0.125471827718081
0.125801693071726
0.12320863118999
0.124138272929531
0.122228708426175
0.122158856444805
0.123216839234869
0.125696109102734
0.125141736592132
0.123897517962003
0.123632414979318
0.123076388911835
0.122215575659472
0.125025687407511
0.121777115835762
0.122046379487839
0.119725183937052
0.123608796220995
0.124263885815556
0.123695516904621
0.121976397820419
0.122685974059487
0.122771474690475
0.121050970143464
0.121091892979864
0.122077445148223
0.117367737719709
0.118960026853981
0.119106610026726
0.117997925476822
0.1192481577724
0.119307737518152
0.117032047751496
0.118635830784132
0.11704588210479
0.116013966012598
0.114244872071665
0.115264678034097
0.117909755849776
0.114877481777912
0.113839677495259
0.115127874768003
0.113749848764389
0.11332448467723
0.111274246923804
0.113027416979288
0.110794407055984
0.11186215224359
0.111574415933142
0.111265550644289
0.112003953765005
0.112056478051684
0.10968926413423
0.110262832826155
0.109345556349246
0.109479692383256
0.109099099675509
0.110017520371794
0.108826252674432
0.107964316350324
0.107309371725058
0.108232407868968
0.106172716871704
0.10655791013067
0.108379979443356
0.107126185221603
0.103810920895629
0.109169635683859
0.114793014580053
0.107469972027435
0.10474227954605
0.105468999365366
0.106899194107967
0.108290551497773
0.104636545781255
0.105375108307018
0.106133548792455
0.107757043464697
0.105964006743721
0.105000364807945
0.104297294170228
0.103371436549336
0.104813688970663
0.102492127487191
0.102047167362587
0.105323586873547
0.103584008460312
0.102879666329572
0.102150124368242
0.103560154756383
0.102392444486701
0.10134890139244
0.100290725153492
0.101852135569524
0.10576603588119
0.105119135932175
0.102436837040241
0.100470989836805
0.0994326722433626
0.100897820344797
0.10181941637506
0.100170685817287
0.100282345636161
0.100656131818878
0.0999724375471415
0.0993601152849244
0.0986573712988939
0.100585262826684
0.0971317777074474
0.09731738935482
0.0996225261916895
0.096574591894948
0.0954055203389926
0.0983893867923526
0.0970921164210018
0.0959748603735255
0.0963645799307907
0.0982307636496877
0.0977695006983677
0.0933798672666312
0.0971963546341957
0.104937176847924
0.100093032357902
0.0953905089321619
0.0937400608703348
0.0946686567808556
0.0940203234552634
0.0934883032501663
0.0960492754812988
0.0974194055419157
0.0965693498060616
0.097783228695598
0.0944470804240984
0.092891522089037
0.0942844019692987
0.0941059068224467
0.0929416759191469
0.0932125571511799
0.093622402549769
0.0951533860233749
0.0925970776893649
0.093544561869224
0.103051282747052
0.0976911852198264
0.0936577011256071
0.0936150129819886
0.0927513341716987
0.102923851093458
0.09808223896793
0.0949596659734662
0.0946434543055177
0.0914410112385165
0.0928297002838498
0.0923042451494637
0.0913114953948332
0.0953952627465316
0.09443430728494
0.0955141358577601
0.0975101528005619
0.093450349974959
0.0919256157684111
0.0929744721894408
0.0927186406865952
0.0919992161119089
0.0945400433712934
0.0942991145491728
0.0897129679936116
0.0910636683534726
0.0927065946043351
0.0924345860816535
0.0890246788109193
0.0934622048598306
0.0969280254575107
0.0926304468556188
0.0947744835025361
0.0928378251506369
0.0871072609051343
0.0949034382661338
0.0998485913479431
0.0941621488018616
0.0906188886135468
0.090836852441907
0.0919628239780861
0.0938245732272246
0.0928488604310547
0.0906983986618975
0.0911520208620625
0.0904607868979483
0.0920604188184919
0.0911230270202607
0.091376728110034
0.0913707273486424
0.0890100460877869
0.0882631845666736
0.0899148439030685
0.0902303230614089
0.0899689488131851
0.0912553977954337
0.0893100728191461
0.0933728731478056
0.101157982099942
0.102353349253519
0.096886474606395
0.0940855791416326
0.0907737342423281
0.0899372234079084
0.0890740815450858
0.0910625619292296
0.090807702279088
0.0907522293316546
0.0914310862197927
0.0913917383899101
0.0892106900144429
0.0918368277987805
0.0911405651236818
0.0888077030153302
0.0889551868057679
0.0903294064051249
0.0887932577847827
0.0894631340774178
0.0888498674440538
0.0898584815778832
0.0935190013783717
0.0925565752479908
0.0917204241132228
0.0831989022594218
0.105323878073418
0.106396726303024
0.0955035139452807
0.0929050967621305
0.0926516742764061
0.0912613703885137
0.0903234886563852
0.0902902579735891
0.0928840855729505
0.0910662724661374
0.0908116992043212
0.0898848751920374
0.0933896862763191
0.0939156286414347
0.0895367507820418
0.0982014234440001
0.109958251840523
0.0980688269378668
0.0956033461831998
0.0872163910542672
0.101409792900023
0.104454857669445
0.0948700383574467
0.0958587711334629
0.0959252417519122
0.0912979585972329
0.0914982215245949
0.0924757090785453
0.0933457579276389
0.0935617061876982
0.0927548556225185
0.0955336627287246
0.0936011690952135
0.0934533549606661
0.0954761867760267
0.0958011277865196
0.102337481110977
0.100608611150311
0.0938776455794059
0.098359614752449
0.0962667539926991
0.0922058211631866
0.0975234517995384
0.0967699348133407
0.0921369795367151
0.102055104075971
0.105264984408336
0.100772817299804
0.106972770290086
0.105088456558292
0.0966195176641575
0.0985296324686095
0.10186226795494
0.104125602134533
0.0914858467577934
0.107458869883394
0.115198028583479
0.120318352547545
0.110575752376658
0.101301790613182
0.0963374181890573
0.101099149752268
0.0981701873082917
0.103944342196548
0.114617292061679
0.100142824844094
0.100489436797069
0.0963426401482593
0.110055028749525
0.109612110222322
0.105528234477097
0.104398516238267
0.101583295432738
0.10214287232593
0.117552631298026
0.101802326903383
0.103126587055384
0.11521265957262
0.126170515368796
0.129792019687556
0.104856820100904
0.103707170535924
0.121764240360636
0.111745337587974
0.108576767606167
0.105582507564391
0.110262682032058
0.102929013861367
0.115871802102996
0.128839814176242
0.111812632156246
0.111401772849622
0.112733663226753
0.109291119267679
0.121748369397578
0.117870190804527
0.110604408522829
0.112379692301266
0.112944150661881
0.106906931927952
0.152215768531708
0.12443692901087
0.131996462998327
0.129008123003132
0.134672171609326
0.125379849349118
0.128382772014907
0.119744175308943
0.13293048845124
0.136402122812811
0.130067978818474
0.112666333858654
0.141029351690211
0.139781377894853
0.133619429599445
0.134128425685334
0.129270605687245
0.123709135277836
0.156180058744361
0.167894079828393
0.162890366462945
0.13807326802058
0.143354006384437
0.159240288421265
0.15113654302593
0.143831891114919
0.145534317421677
0.143044677427178
0.146566939606968
0.144846922663279
0.15688349408712
0.150647560851826
0.156909556965097
0.14774298391591
0.159561913143026
0.163087654784728
0.196626529209076
0.185200748021701
0.164934278499267
0.18082045193542
0.188899276891701
0.176713959622933
0.168484418678487
0.169764338608177
0.17857819487398
0.180816746788137
0.180373827681952
0.172873168960822
0.194559534486989
0.188265981007389
0.20454075072198
0.20060039509362
0.197910291721186
0.185814508075558
0.20135322896832
0.297505554048174
0.225409832979624
0.224621493927113
0.209386148228226
0.237060212803417
0.274115246269832
0.243975979637693
0.236274108019575
0.244471963659215
0.240065150413455
0.254156611412799
0.257813225438471
0.269504264412199
0.282805790300081
0.283175555583513
0.274212333239194
0.290844766183244
0.343015858260605
0.35289133990973
0.323570992777219
0.318448420033684
0.332187720831107
0.342025769016463
0.333072039684796
0.3511924595908
0.338071941799658
0.366991647274013
0.398140461507128
0.384705247623653
0.376605508712357
0.389523564317881
0.417396066665937
0.396234256892225
0.454883217085565
0.434197368764826
0.445293444463815
0.430660700841429
0.449481204269622
0.447826859632088
0.452571490710683
0.478653507045441
0.494071393408337
0.479680606871207
0.492058456581579
0.488319345006091
0.496421256263553
0.504697120854044
0.506403557997578
0.496684041069381
0.522865902439546
0.536188865841743
0.669513981772899
0.548883870847811
0.550740769235626
0.520024656237849
0.54853686137354
0.562402293173829
0.547463092959003
0.595052201624398
0.571972228875792
0.550963630907148
0.556230570148233
0.549846348666706
0.554903318110827
0.547831382954833
0.561081206127452
0.547121317971344
0.587937089709897
0.543123265664926
0.620138377154437
0.593408426109486
0.577372071670154
0.560200154732
0.568172041837778
0.552180413626891
0.569596912359296
0.552633569339606
0.570831925911462
0.56717427366215
0.563097638542166
0.558558055958698
0.547549530631553
0.561087104354617
0.563415270613359
0.53270581991343
0.531594616881948
0.523383021033579
0.529894335346435
0.500157211434764
0.539444216811759
0.544276636014291
0.517880236564211
0.501335102855354
0.498041736937539
0.499741881241573
0.506326641627631
0.499637213639411
0.506747111102284
0.499666585279872
0.496599867091491
0.493891034804932
0.493604080326512
0.481404261121478
0.483951665679361
0.486004241154725
0.492534506265194
0.486571159648933
0.482298528067631
0.48381999996443
0.491525879236905
0.484235061919875
0.488715453798099
0.481409960957711
0.493321244586758
0.486439534766491
0.495106866621444
0.497923663039554
0.485539458581108
0.484648821456134
0.489883940668993
0.483792036909981
0.485392876232396
0.480006730828765
0.485330998312037
0.484798705998877
0.485206780086284
0.481963979802727
0.48710882273015
0.48997047656207
0.482536999873913
0.479913903065281
0.482895113060438
0.455074253378861
0.5420079266465
0.484842432024428
0.478991726973872
0.456585645955028
0.468468909026135
0.456540424953596
0.44493593791564
0.48814740136728
0.475945942510511
0.453193039366981
0.451284200581923
0.436177675404589
0.462801602254589
0.441435715398849
0.435634946707847
0.437579528230673
0.409192612614465
0.449306882820934
0.43508370448841
0.507968944924625
0.484830073759806
0.437318364699894
0.403684445767132
0.43416077167445
0.43666598462
0.408476260298515
0.406494366316776
0.385761285204739
0.435198737753943
0.407827841314966
0.404984992666364
0.391322536773453
0.391175140676249
0.404691448780578
0.423408610984288
0.391176551444151
0.407541958729695
0.39884217654367
0.39500256915751
0.417331898952256
0.447622786278644
0.398779313832682
0.363619014369674
0.364522238786607
0.353213960480122
0.352678855319741
0.402527534694403
0.359954965513714
0.371421182356533
0.346125139652832
0.347828147451762
0.340337556710886
0.367415844128591
0.335386819536689
0.348839962341336
0.37264471969377
0.326503667687071
0.350974995233363
0.331098081618999
0.383687257076738
0.365940819711662
0.343469670155673
0.3065964918628
0.353771182554656
0.352672349140724
0.328857899005111
0.339490495927638
0.307659637578122
0.320206938324365
0.326950055474563
0.309414418964573
0.328757314200308
0.321143924469817
0.32119935077997
0.347124620736611
0.345103808075802
0.348394552993891
0.306902565871376
0.299230186768119
0.295757573949903
0.301211857077261
0.308466587435971
0.281879180722875
0.346740843779804
0.298958264771221
0.295255049549896
0.334844661372934
0.313895702362605
0.305465685097061
0.304566801179716
0.307022928156571
0.304542324391988
0.332072172036423
0.354236231342984
0.318927128286816
0.333110969860166
0.34743761383427
0.333319923979715
0.333196814775639
0.338807156443053
0.34230204535509
0.342597034283593
0.366256798043876
0.358646562166956
0.363561148793573
0.370473023786426
0.368159841838715
0.405744760135901
0.408372898894767
0.377002261172072
0.439608372858859
0.401161326739347
0.476128119271366
0.428812795033032
0.432477530623176
0.43439278128285
0.444510097946348
0.452502403427992
0.444566887645902
0.471685749284807
0.509563628390225
0.467157325744065
0.483119967585195
0.46985132749455
0.492890007989552
0.475041275341084
0.535617332943261
0.490232055478254
0.623076273745974
0.524918492744903
0.546192056047009
0.517506129788898
0.511552629687166
0.531099948923478
0.528628321708483
0.53162134263081
0.513898839402954
0.529961807344301
0.563395565266703
0.531389058078869
0.547027125070635
0.533420339006844
0.545523298263982
0.54048211619598
0.548586794284576
0.541783889896776
0.561496922807197
0.559593380077877
0.567302842562352
0.541691517828804
0.661851024696541
0.57246807896401
0.592115902039907
0.575250596277315
0.607303828344436
0.584701554923405
0.590936358394397
0.627670950227664
0.618657737009031
0.604591572294204
0.621053099925873
0.616030064520498
0.61468953384662
0.613085924795671
0.668175455172821
0.620377117266435
0.664459925662742
0.60935430382713
0.712354000948278
0.654770926547699
0.664399090705621
0.664207171792133
0.662339326592626
0.652227077831222
0.661385249002844
0.662058422848344
0.668513335714896
0.662815915722836
0.672242191944094
0.667746382602589
0.663955905165198
0.678405656519633
0.67574231188119
0.669453441162545
0.705639619954911
0.660240741334529
0.677965061861344
0.664587830274887
0.678975953795736
0.650070927066392
0.691141876890094
0.683049616116111
0.679781838686337
0.669355152073666
0.682373117623188
0.678108254655362
0.683062769486518
0.657833583745263
0.675092157903619
0.664632008459319
0.676427645401981
0.662373511696912
0.682169023167561
0.704759943076793
0.687765544989308
0.680001165830342
0.682379450480207
0.688725699410719
0.679686410665279
0.6918029759504
0.689421433198403
0.692500849424216
0.698631223490685
0.718224001472183
0.710141061113535
0.703116196073269
0.717450981655667
0.710279069587574
0.72770280257651
0.702493193023341
0.704426289554357
0.695993796138247
0.702899704886536
0.704423400635505
0.701496099910291
0.682336159405293
0.692338822756369
0.674663184898903
0.677798393802364
0.704734390899945
0.661122296779603
0.689237293571251
0.66390506730626
0.66121283988804
0.651808383081232
0.652958021171408
0.641756759578904
0.641395307616535
0.638505240146149
0.636993031542414
0.630815887811519
0.624527948939635
0.631396059518603
0.617084148280389
0.638250658968248
0.621592175157176
0.631163307591104
0.620390022702162
0.625197087096553
0.624164749971985
0.617011558318539
0.616336751598827
0.610755372325059
0.627313114326219
0.631002046603121
0.634208618362183
0.621960081047876
0.629125605918786
0.623082386366506
0.609020058017829
0.617995991817337
0.620596840623383
0.62383760186951
0.611821374268482
0.614682323204679
0.62009158561517
0.616538931544279
0.607074580922088
0.615171704812607
0.611958992974722
0.60978576282472
0.60615981283204
0.613965396000514
0.610441189209925
0.614244282981884
0.605607596778101
0.620407717272881
0.605762721859458
0.616047647584615
0.610459296076216
0.613082472385157
0.614978870377072
0.613643753718975
0.615061391565248
0.609525638271175
0.612376772739556
0.607486444408907
0.611050604238191
0.614093229953993
0.609625988000289
0.607858282804108
0.603148925810139
0.611987186392387
0.6002785422656
0.599699810666946
0.591369074992379
0.594223088403438
0.583419771431227
0.5882716776791
0.578936051866366
0.587993725543189
0.572462315897581
0.570616148357337
0.559858676001538
0.569541668900154
0.550740103322911
0.556666322347275
0.554387571118341
0.546931583464727
0.544498439108302
0.546075894919146
0.53784693926692
0.545931016856481
0.534577079756473
0.544286471747379
0.53811966222765
0.535324059204399
0.531427927425307
0.533098367263375
0.530777003443955
0.535334446105615
0.533663843377784
0.536040219526521
0.530323395508377
0.542424142292538
0.536714925380588
0.538256860629123
0.542451809612371
0.543417835476854
0.544089396145903
0.548695658797532
0.551306101731067
0.552158334788097
0.554495188626461
0.557631144185769
0.554394646411206
0.558598812606414
0.559693356991371
0.563121118277247
0.56260255803765
0.563865694074706
0.564521577471538
0.566225089209729
0.566371003088443
0.568294447737827
0.560827507442301
0.56051043252332
0.563982846750329
0.559867233216051
0.559175857130712
0.559087670825121
0.556615259300938
0.55411357776218
0.553706590131924
0.552897771353493
0.5508869934896
0.551686884622599
0.548923714457462
0.551109146221024
0.545873787333283
0.541151071057814
0.536196044451647
0.540323285391614
0.536756323860402
0.540683298905907
0.533958466447478
0.532062868111599
0.528547777679193
0.530559414342661
0.528414134515795
0.526322776714832
0.525613471955853
0.528955995545014
0.519804659051763
0.520251288636676
0.518999786685663
0.518326403237593
0.515310834041072
0.515120007136704
0.512280591389996
0.512738836313646
0.510258858494919
0.510216460846089
0.505527705959346
0.504874665963825
0.500904721716718
0.495524332579288
0.494097454990596
0.489277782236612
0.486615757387518
0.483938446368272
0.48043332799656
0.47771627995972
0.471244528199734
0.469994841821873
0.463086472408626
0.46401788047964
0.462588009891355
0.464569153525057
0.462760815411003
0.458116207729331
0.457360261401581
0.458301342432579
0.449647362107933
0.452898796336319
0.451664494730105
0.446158722221875
0.442698845477051
0.444883198569786
0.437397215839371
0.435449744713784
0.429619116046911
0.427151852978353
0.414454179640001
0.411201941222868
0.406719048981236
0.404712282981272
0.399537169430444
0.398316301950192
0.396523328567702
0.398855674722366
0.399852842830749
0.403903882380157
0.405949097499382
0.411494527324412
0.420566139842264
0.428171132395061
0.437353511555292
0.450794903498601
0.469707044298094
0.486020930061456
0.49857546711218
0.518409008942446
0.537187622731389
0.550240006073107
0.567754015851007
0.585820878564038
0.602111666670854
0.619993124336241
0.63693125320238
0.656444290709891
0.667546273565819
0.684394742061718
0.694684677421153
0.717679870730588
0.734082037955525
0.742339864710401
0.761523475565093
0.772553729346404
0.783172536457529
0.798554917067625
0.805352327893951
0.811518349110014
0.823705533189396
0.836827050261849
0.837009907867504
0.841922695388894
0.837143638829921
0.852718406425816
0.847455384429584
0.850491480931575
0.857334656370571
0.860155540704583
0.860246615580353
0.853438983436811
0.853936767857444
0.862526762111366
0.853083552997673
0.861963696964034
0.862160490721383
0.868796740426197
0.870435877045912
0.876559873003069
0.882023986124098
0.890000992234592
0.892769387471615
0.905176141458932
0.909793739792046
0.908613129418934
0.924230068502775
0.929407961753793
0.950003275034168
0.930893953320184
0.965400918303342
0.980420867373433
0.98291688861995
0.986643325263961
1.01171430868047
1.01350431727739
1.03168678377822
1.05162267388998
1.05538867130182
1.0465218639246
1.06721245709523
1.07692774776763
1.07135608103016
1.07974480926754
1.07567136158685
1.06989229981524
1.06814792752596
1.0701159121619
1.06122722196792
1.06428763883697
1.05097249044758
1.04697044967819
1.04905975847172
1.07469590233806
1.07819837353408
1.07917089193952
1.07377874401301
1.08790470921624
1.1173642737388
1.12919720801073
1.15131744282225
1.15772049076027
1.17491398119278
1.19519775427378
1.19864037146106
1.22980457092884
1.23688501503014
1.2452774779413
1.27336637247285
1.28615244825451
1.29012932546263
1.29912894359564
1.32742202074604
1.32140099215733
1.3490515696065
1.41344065625929
1.39526167408604
1.42260394345584
1.49474666098266
1.43994510034229
1.49774892721181
1.52883963930761
1.56191131292476
1.53261040872788
1.57973553540023
1.55680251247047
1.63681495417536
1.60442676012404
1.61399439127651
1.65490175547299
1.74682960365764
1.70110231918279
1.77774992651212
1.62256203393955
1.71339492162183
1.67260314426877
1.70427435690338
1.75100907799732
1.84020731560918
1.66976813658254
1.84430398358383
1.77615669306134
1.75458656621713
1.70591048463498
1.73563519047488
1.66459603484303
1.69005423044204
1.79100290660862
1.76615718997952
1.73761482534911
1.80704320669653
1.67483183238726
1.85332009053237
1.73980562844758
1.75417547668622
1.82080212941897
1.86170856955488
1.78457307640649
1.85264609344811
1.95677643310783
2.07633753486234
1.8117071150156
1.95443019161038
1.79265375594988
2.07288903001343
1.9815850613642
2.1965720230857
1.96104071826897
2.03992365733454
2.00505028954229
2.02970285673241
2.00421343903287
2.10398818297755
1.95782256635516
2.27000430959064
2.12030977631489
1.9255339766997
1.85886895087464
2.17588923275827
1.86213933839754
2.244473382195
2.03226178759584
2.08979005102136
1.91067835889648
2.21744049395734
2.59117503096092
2.33771982690278
2.16827079704123
2.10389576585756
1.81411013366409
2.02806744515947
2.02787431460531
2.0273447746485
2.00873973141188
2.07565822660289
1.93404871326928
1.87181930086231
1.79240605859016
1.79290406381843
1.6929976211585
1.7296229864484
1.640295362065
1.68608548669121
1.63089084204051
1.67970471938382
1.63600828250465
1.69303236104207
1.58186190132712
1.66192276294275
1.55603528817277
1.64852330309534
1.61503391374644
1.55038807030154
1.59681648913925
1.57640767747931
1.55232991622958
1.62836630909234
1.56427048758541
1.57694639016824
1.48876464072523
1.51277657908438
1.47894153697751
1.50722882573218
1.40770351418341
1.49741953655515
1.38461141789117
1.38338557870998
1.40235231704644
1.36678091941073
1.28763723500131
1.24373285545398
1.18999620817279
1.17648868533812
1.15016625454568
1.14010112879429
1.07805797671757
1.05656127095473
0.988540468959907
0.97721725626745
0.944546714587832
0.913956902383657
0.875755187554095
0.834195886626318
0.807758814279885
0.785499941977706
0.760352617085062
0.75973420534758
0.736776335567421
0.727364364465082
0.708480898064212
0.702941976130793
0.683364516571093
0.683497107846453
0.668896196136155
0.673194488645429
0.665668265363077
0.667275149632878
0.66498972708209
0.65225718077077
0.653154151183582
0.662235137763657
0.659310821647134
0.659017068424861
0.65682063855917
0.66164185855401
0.656921365890685
0.648040096325544
0.643409219225027
0.645558444574644
0.631195560122935
0.627709426767604
0.63250919819094
0.621349454080371
0.599768871003143
0.609993931632127
0.612482747863758
0.607316325498652
0.5999696605124
0.596047104349453
0.594559159861214
0.598441296427779
0.606798499886128
0.60643450012419
0.602124854559567
0.620078445176386
0.607684602093429
0.62001783453123
0.621553419317593
0.622983755690493
0.615703130691257
0.627025681220995
0.625459442137352
0.627826479715373
0.634344308708458
0.643273497594954
0.642219339316348
0.64108838472322
0.647059949538772
0.642030565284678
0.627724610791935
0.641848280850164
0.64108858708431
0.628036869785288
0.63442095708411
0.644654177067869
0.64447267299024
0.661136753008228
0.661698558455312
0.660749065413704
0.66452153800772
0.680871615489994
0.688768551715131
0.711821006525689
0.722164716888851
0.735569879859581
0.744980111471465
0.774718590263429
0.775607273291402
0.78726130479784
0.803631889942839
0.81050347587029
0.814350273034742
0.816072911260606
0.805700242576972
0.826353983731152
0.788682104367416
0.791663960063324
0.766068765861395
0.782148483924401
0.760433787895598
0.741019746197289
0.740706948751934
0.755536336785882
0.732534235998029
0.753985388188186
0.761709243823151
0.768061202559661
0.735174544482434
0.757430734893117
0.755312955854298
0.754461065845481
0.742663328483821
0.759176788754262
0.743985218634066
0.745496147960762
0.723564915621772
0.732162397962128
0.725088067122635
0.728164726566874
0.712193948982769
0.727776365351659
0.712954170207067
0.698455417867734
0.702452930935216
0.688168795980769
0.688529754657523
0.684621420950093
0.670755914952662
0.679076145333781
0.669087273612784
0.671792898697472
0.689647733053393
0.669593276884038
0.625464549301575
0.656168268841037
0.662065226740749
0.656255251522814
0.654126423902305
0.641627163031788
0.630044052082547
0.652084814915198
0.62793025903908
0.655484747193058
0.635140906443126
0.638387074023775
0.632734537501388
0.633802131501381
0.619676369751176
0.636601255580669
0.608623746726693
0.617997749525983
0.614985053726724
0.610736053821303
0.611064987738385
0.628832908887677
0.598991063016296
0.598975169520176
0.608502628051587
0.609023970886023
0.589156424209897
0.601020096700207
0.60505400891123
0.61210042476804
0.598258386226571
0.621598337516281
0.600546338921944
0.611582071252667
0.607517785968945
0.616584301588344
0.579922364646473
0.615589027020888
0.599280364056707
0.629718248678859
0.624042958813697
0.606144148827706
0.606698381677388
0.635142819982008
0.616043962473384
0.656398900702115
0.634305124044513
0.630922880081205
0.644293197470028
0.675190398876245
0.647924716925474
0.655755253360651
0.664173725204643
0.678041013452837
0.668108845054025
0.712692225321987
0.676674746961056
0.703112225423023
0.733832035434084
0.702825830240447
0.723203047306078
0.739818014744405
0.735527705228359
0.761455517906748
0.790957398749334
0.850060932410207
0.836970158052551
0.909471693958722
0.854889624514852
0.886131741852945
0.935784765718901
0.931887062721261
0.923668042693742
0.904034553048559
0.91502843413877
0.95088999247484
0.921431055098071
1.00191604268784
0.925472707052857
0.989079213678626
0.975907054103607
0.947799642159664
0.902853561840846
0.947624653186059
0.951164573302219
0.982611697253057
0.936220788095177
0.958369577112686
0.968240986617406
0.955376959035961
0.926644314995691
0.951258959091187
0.95634953801737
0.998735255824008
0.912238053318318
0.893428855958719
0.91408816684595
0.931631680809545
0.924430773598758
0.939048900272977
0.930624247151805
0.879682956186775
0.85084627647356
1.03006892279468
0.868351938331867
0.903748436151258
0.922647672044338
0.911853828862705
0.90566471336228
0.881972856747423
0.903490133657986
0.833227641826007
0.856524186038397
0.931397583025275
0.85516138503079
0.898092685364468
0.878548496650856
0.922047953784496
0.919646179618623
0.892441297275673
0.88745491135275
0.86200630813754
0.877119191420396
1.00317588763376
0.937686322293965
0.936351420427519
0.888131008247037
0.997260362928519
0.889166887765265
0.89091306059987
0.961504193375509
0.84113595244776
0.863898733860633
0.955217783465414
0.884926768267973
1.08126951362103
0.956648780329713
0.92568479316811
0.899575342629509
0.903120813526129
1.02612867727709
1.06060545114653
0.934962996664509
0.989200134572645
0.948400717076206
0.980305790183955
0.940575492080826
0.971882633674983
0.994753844185488
1.0955924500673
1.05829712486939
1.30443698249376
1.02164145216226
1.20938898803986
1.18494720207088
0.983322402256397
1.14725912554191
1.15585355247852
1.23685543241179
1.12211122816026
1.21716267879179
1.29078817932954
1.18124490780143
1.05014090876091
0.923801316477793
0.956877682687743
0.987467972481769
1.33288793723257
1.21393584436947
1.06255253248053
1.49346372120129
1.1735885625897
0.904259656609795
1.11791196626512
1.33146425901896
1.18663483070274
1.08558276990651
1.25897184495437
1.09802497419894
1.83215512352735
1.68551890771131
5
1.8643342682127
1.0249791273275
0.907035813052265
1.16443208319014
1.06460659628937
1.25711394189927
1.17482971109463
1.5942641697578
1.2045560690711
1.17040160673173
0.825983625199091
0.767109487614587
0.81442504941294
0.97710604657162
1.05954140568278
1.68970012356912
5
5
1.16969403996905
1.25693300431526
1.08174234258167
0.955017732709872
1.41150316458584
1.38579800867059
1.45559230595757
1.06652926921167
0.775998743209982
1.04742354610463
5
2.19992728449983
5
5
1.17748143573986
0.821494427302057
0.808732534619922
2.2037974459307
1.50187694353725
