3596
4000.36533379555
650.420452594757
1
2
2
0.0872603743019433
0.0925913327398882
0.0879336807883729
0.091798306163876
0.0901126990385733
0.0861080069806927
0.0908133622425297
0.0934609057283857
0.0886161153394649
0.0922368704010847
0.103177182773476
0.0961893855279907
0.081814436491598
0.0907461981089588
0.0980372987590315
0.0865765017855767
0.0848393959321738
0.0854550854888272
0.0911964027756378
0.087296779145227
0.0948759769507838
0.0907000121313737
0.0884225162295627
0.0867079138945448
0.0882068318253545
0.0877465561077282
0.0829330984041374
0.0898660946730546
0.102625838120302
0.0997579329125789
0.0936689524623688
0.0885398646876269
0.0945089296803301
0.0896738174220964
0.0854772599117967
0.103373546225019
0.0887819247960262
0.0929705499199545
0.0844303598682423
0.0960352515628762
0.0980590949908759
0.0941856315703506
0.0819703434393443
0.0953657671663393
0.0879642276904207
0.0902990673569336
0.094174562617614
0.0953905315981627
0.0851049126433761
0.102941438833735
0.0987847771337977
0.0837831553506194
0.100959826838397
0.103555522618357
0.0940439569224349
0.0952121075158307
0.0779796873953344
0.0858945907728653
0.0910423547715509
0.083431845504658
0.101243493529386
0.100801255031332
0.0902314906763979
0.0920116249955071
0.0895528020715466
0.0924057961072819
0.0880142105402129
0.0803944188834322
0.0864221666952052
0.0893300813279167
0.08034923222072
0.102822675558805
0.0989963159631474
0.0970072462249385
0.091437698660844
0.0842304509989424
0.0869133165764254
0.0837109504674992
0.0777461965126873
0.104214289077163
0.103763930211965
0.0823567748156694
0.0992301186314059
0.0809294023631172
0.0847639796914875
0.0956742144057986
0.0740389102544314
0.0919474693159089
0.0907403387650367
0.0969443099465258
0.0896960406512212
0.0882505923582558
0.0857525600539707
0.0913942936561773
0.0797429272774372
0.0777888542442601
0.0797760198874602
0.092683553821448
0.0713667074858566
0.101325966406696
0.091906753124331
0.103218566334701
0.109404530192682
0.0793396607212756
0.133905809363853
0.0829630771086211
0.0837325872514438
0.1305605491112
0.0889414420661388
0.0813423707625558
0.0890068878991628
0.0898758441864361
0.0863124625352532
0.0950186488748863
0.0721093632790381
0.112442195191094
0.0937876200410642
0.0920516930158919
0.0814063034428237
0.0863760200882824
0.06435439934056
0.111584709369921
0.103427562622404
0.0770037716100775
0.0915129535665631
0.0854410896468427
0.0780033481719675
0.115553045562772
0.10235039384686
0.0915956799326716
0.081375230331807
0.0761699807460153
0.078914908963187
0.0857940374594458
0.105114435301693
0.0813614527887803
0.0809973771988046
0.0619063663831084
0.112470215976389
0.115027242654644
0.100191940902626
0.0783948468452525
0.0721849366313252
0.0793797021263181
0.110120873733815
0.0824072922029475
0.0860898378421111
0.0919167046912906
0.0861825884341371
0.0842229598906496
0.0811872868977824
0.0756608598859696
0.101402936989306
0.0900171639586797
0.043515920112866
0.147329812251135
0.11813344008801
0.101390931771106
0.11955963375392
0.07855489262809
0.0869183110270108
0.0749266587513233
0.080758774724844
0.0711664036283406
0.0803886762544436
0.0779868098125226
0.092599913692527
0.105584399502754
0.0833138492535291
0.0929613573308953
0.107153723409572
0.0735386721279652
0.0599074641853398
0.13524779567572
0.0919821413786428
0.0802059251333581
0.0966670419261355
0.0970844421725605
0.0737572021690511
0.0937610969755385
0.100168619674239
0.0792993562491913
0.0830836642172041
0.0785094512452074
0.0871655180872091
0.0852490260459962
0.0846878537955831
0.0797020771594303
0.0736412308127598
0.0648096477739179
0.0805705734471841
0.122580350960717
0.104580039127396
0.0840048718170165
0.0783943180330119
0.0561744045937665
0.118091447632801
0.0987659052240877
0.0806438524212553
0.0745959007619754
0.0770165040793845
0.0752267371892233
0.0705851724835058
0.0776286086262695
0.0714452912006173
0.0576772936950573
0.126532411048157
0.0859412151285218
0.0801238877056937
0.0821254397768734
0.0776873865104762
0.0777800835646339
0.129512257783639
0.101013630505914
0.0822617774650323
0.0828061596854233
0.0718713047544395
0.0856935297561923
0.0942495646193877
0.0783688759980928
0.085377014234762
0.0766961095641698
0.0777233870634981
0.0886692788182009
0.0829248655373532
0.0792855526033212
0.0801719347027588
0.0802773659900855
0.0833596206594178
0.0731735244415995
0.08948671634569
0.0819134141882319
0.0749608516683467
0.074713834492275
0.0776313076374524
0.0855481447049116
0.0920019473374458
0.0803176070778919
0.0882079676774145
0.072069009035998
0.0816960769339169
0.0807585959956248
0.0832289205056288
0.0802787250203602
0.0832850361161598
0.0715528916494011
0.112632020201553
0.0865978430694681
0.0806371469793084
0.068853185599993
0.103330730050915
0.0871719246672493
0.091938071422982
0.0850373261102123
0.0807491485848612
0.072998914384865
0.0751646569434924
0.10937285350077
0.0886649928829985
0.0699020108693869
0.0876893094499492
0.0858028287477937
0.0855849497987131
0.0734633090983287
0.0643496208975905
0.149603359171513
0.0806092238014989
0.0696868390546522
0.130898963217191
0.0868797913167999
0.0904741050995307
0.0779857330737121
0.0566909601066414
0.1968507826516
0.134190474123336
0.0796710552914989
0.0839442792495873
0.0997614757182622
0.0791937065767693
0.0869321132848997
0.0806102630419104
0.0980568916190485
0.109286902954308
0.10319745621689
0.132850878968969
0.0760066362489247
0.125268322131228
0.104231701101695
0.094826259957895
0.0806125121413168
0.088063405673758
0.0727730376663461
0.0965860680565324
0.101621664787483
0.105562656007572
0.0920647694663844
0.0813017514820433
0.110333717922202
0.0979603316320578
0.0818785450768779
0.0905819374561406
0.0946475150264756
0.0820423556241755
0.0910011510017006
0.0891914423163555
0.108583616052516
0.0859596828858764
0.0871441566008161
0.141164694198998
0.0903190118602862
0.0862534601220907
0.112080796255333
0.0990136109645007
0.0919878153452908
0.0895800265196344
0.0939261480768333
0.0938294411610561
0.0907573398527744
0.0751937346234205
0.118984741115761
0.0991450869548539
0.0969422830351275
0.0894347025520296
0.0888473229615053
0.0926301368410339
0.0898343499907627
0.0908376078526388
0.0989263113729967
0.100659742356942
0.0836490890949708
0.119376275010016
0.124755373400324
0.0812454444572486
0.14609218553993
0.124326815399084
0.101918083607015
0.106435689156073
0.10381380816145
0.10133324646656
0.102969293954862
0.103961532697317
0.108517117370282
0.114064375900029
0.11340706008144
0.115369591144968
0.109803625490508
0.105110371352654
0.144654522199552
0.17514073563924
0.134023272190208
0.11909213040913
0.0915233973690427
0.151043710548826
0.144742217028753
0.143809035761534
0.147970695864279
0.114478821398853
0.13209843999888
0.121798675800357
0.138444916767522
0.123358673962016
0.133279665068288
0.124115391944955
0.139540721153588
0.131531417826271
0.143872723698398
0.123057032493771
0.144720136055885
0.178828487259275
0.150564951380511
0.13824131706572
0.149123768747638
0.134917831936868
0.173041903281372
0.177417864377318
0.195213043732316
0.188573605276765
0.171952771667756
0.189900296552264
0.162752646452641
0.169574686638204
0.156685259190346
0.170289234361088
0.176120582473689
0.177480957250959
0.179641101253582
0.179719606946886
0.180342116542192
0.199688434862043
0.196021598573961
0.194309188204291
0.185853687374093
0.204919463910519
0.207039439639007
0.205339500256795
0.198165332416908
0.229520423714178
0.242006967206352
0.245653166356091
0.216299684826074
0.21707702158781
0.221864931690473
0.231546220903642
0.235223825886187
0.234766205909604
0.240017588974128
0.234507215681438
0.281456892100254
0.252677409971799
0.26531478053329
0.261835646276031
0.248273591234053
0.270366344048894
0.266056201808374
0.27478717907797
0.286399850891792
0.277029671585052
0.26301715128145
0.299780684426813
0.299575570795087
0.280706352867736
0.321295382597582
0.278841858670012
0.299282373115264
0.302164390129123
0.304612894776132
0.298266949455988
0.329019461316126
0.318515534571956
0.313673609130827
0.317533168885159
0.330277428107467
0.321545519386839
0.344957687578428
0.337170820894363
0.356830034052637
0.353245199784342
0.354812274418492
0.352045706505549
0.350437393984661
0.367449384071925
0.375252425461696
0.359968045807636
0.39986144996158
0.364514621217107
0.379998141478311
0.364959297826623
0.388373246242423
0.383895401402632
0.415655816552975
0.404406397682962
0.405566201644149
0.397600182987663
0.424955436685985
0.415893433668043
0.419399725730515
0.420729193121868
0.433076565496164
0.417956638680774
0.429659188355324
0.44236175482258
0.435046865751322
0.479629793113493
0.504347561248613
0.499649535596287
0.494962941528277
0.45101448592092
0.473916340849812
0.492947664540121
0.495220356278984
0.477207732734719
0.500721663783578
0.494873683031128
0.507576360620106
0.491627654900899
0.516963660818606
0.515287137200769
0.508785911772971
0.531788984005902
0.554155398589908
0.561617970443301
0.549975012907615
0.560881048786145
0.552830922196546
0.557139889526301
0.624527857167614
0.562773410565879
0.606332963882527
0.567357575137633
0.609701596290185
0.589373562715248
0.622966615801804
0.628440106647942
0.612555731729955
0.58762977011236
0.627833588848981
0.604221656608445
0.677464307919233
0.619583968931436
0.639594393504942
0.625066082558284
0.654169241814968
0.652453938658335
0.649394539687207
0.669779825734523
0.679498569571521
0.691229566283581
0.700216436134048
0.671805788959792
0.683314705866291
0.673485068813534
0.717860015524615
0.701758243137485
0.741954907139333
0.677392998678745
0.746661655164579
0.708480858347115
0.728935868859918
0.731248781650598
0.756846189404077
0.736052051050647
0.797611610852774
0.766549212588712
0.78815653085409
0.790676537361459
0.835188466336827
0.826483057063193
0.817384732158015
0.812787795828753
0.792785823441545
0.7542362619592
0.805052742699462
0.749325614106973
0.856067948726251
0.832018170662149
0.876874496961659
0.805593278150769
0.857408934517877
0.85806639345319
0.879910701031404
0.887027029083187
0.924456929731527
0.862807682571649
0.946960132930628
0.899100803159918
0.838037764172554
0.929978871192162
0.961491794782501
0.865813451042326
0.91704753985499
0.937636055085492
0.952641393855212
0.921241287222422
0.953206949206663
0.906992516068836
1.01856932672701
0.956882704178238
0.92285928972053
0.876237412672264
0.959390961817024
1.0089654384508
1.02318448942961
0.980872147243042
1.03547002094419
0.96465963278556
1.02736748661087
1.01897315136781
1.04820271159106
1.04364396500058
1.08877260757432
0.989705525168342
1.0332189348676
0.974545464345728
1.06593067259085
1.03785604382403
1.09242577876302
1.10434770500289
1.13802007620792
1.17743543498133
1.0627040623065
1.05727085157029
1.17986359870615
1.08338468441067
1.08957897149498
1.12626382878051
1.20727279361309
1.11324098171637
1.14713252635173
1.09300474595564
1.17946572531976
1.13968169451434
1.1277397505169
1.16187352316528
1.23905761542796
1.15482168236496
1.18028531333168
1.05817219467893
1.34730562761072
1.12061017108977
1.24403824706604
1.1239966407641
1.14303598646779
1.105607267916
1.22355566500531
1.16666665067997
1.2331724625157
1.25518617813876
1.24961319874889
1.17145519509692
1.21442573021881
1.20852912707233
1.33204831166752
1.30624975045749
1.27309137979279
1.26065114934118
1.34364298271599
1.18724203867809
1.40352285494289
1.29850923797953
1.33440399504031
1.371840075638
1.21547189008635
1.26177101503244
1.30731179840948
1.27930391807895
1.482215857054
1.34422786953421
1.36156440157157
1.2732171821095
1.41131262974113
1.30269868623172
1.45075642826164
1.39812392960916
1.34062742791641
1.30570938579261
1.49132443719584
1.37350292397441
1.33435515796207
1.33866768267946
1.47204372172575
1.24911650195011
1.33566442528715
1.39643706774496
1.44380916537161
1.44415123752188
1.63794558826539
1.46878782068135
1.37697490156066
1.40120973661086
1.4465847885598
1.34634475423606
1.49333251932609
1.47988387441685
1.51386941635451
1.4242915481519
1.51036412342301
1.42594801155193
1.55491816531167
1.42106458114406
1.5239819809771
1.5622629826437
1.67387047816625
1.51261217442392
1.65789424564886
1.57247660420005
1.73245377599043
1.58067933801939
1.79316942544736
1.35748566451445
1.46496896165966
1.55222899962261
1.38215232947858
1.29616811029068
1.57935538194741
1.42453617301629
1.63338956619286
1.41432598072465
1.50988578252402
1.54842301882001
1.98486305927607
1.63045786207194
1.48381980807553
1.42602720166374
1.50694111867313
1.51241047059621
1.56307729016002
1.75228024085169
1.65262770006818
1.44945338547637
1.63796110694381
1.67399203386604
1.7214679972922
1.62773641889339
1.73293793537664
1.49979615900283
1.58981490262067
1.83952816993216
1.69017437163787
1.60516843011354
1.61198689438503
1.4740972833392
1.53022305392685
1.65063915947874
1.56449393800961
1.56985976291257
1.64569280148079
1.44094310566716
1.53377417389593
1.56562103714792
1.60472206896679
1.455982064159
1.69291340594035
1.65774900363047
1.51719974246173
1.53265789702048
1.60742696144592
1.83404694325328
1.76446202927932
1.6469346805505
1.66881106960664
1.7174216862295
2.13008179003164
1.67517184982144
1.619599843583
1.80670044444006
1.65550928132421
1.59978318055299
1.60879123242235
1.61549773790924
1.5416920266962
1.55748126752964
2.0524435378627
1.87937860516456
1.72735340898691
1.62355030365129
1.58230572968915
1.63516152013635
1.74065622191285
1.48786348232616
1.53229735843701
1.59069491944967
1.55041155171159
1.64834019392341
1.63374544999228
1.42967356293066
1.79303133235906
1.59137197356218
1.67112247113148
1.64993194575936
1.64334575358633
1.68645318220309
1.82145382738541
2.19590651416061
1.93719977352862
1.54604503134258
1.64065674184146
1.60809536875441
1.64709341209263
1.60548072133209
1.61755667453536
1.76278216600572
1.90713931150602
1.60706024648839
1.65871817511024
1.59984540589319
1.74753677431094
1.80234596669386
1.80219016817463
1.6123407057047
1.64403131903736
1.82580066523648
1.51370293403236
1.51936887548732
1.9042576633515
1.72296544218857
1.72121760066007
1.67409146887775
1.7066032889674
1.7410031182418
2.03503309720738
1.9220371065395
1.65681095373238
1.64928578850423
1.68581683270315
1.50738155272113
1.65463806841507
1.697861659358
1.71212070919788
1.51668034914595
1.5237819772089
1.48017113355233
1.72603878747159
1.67016646517787
1.64944111200327
1.7450373326254
1.72774468222237
1.80681807218599
1.82234359020855
1.70579804267096
1.55984481201746
1.53658612802504
1.59754970278757
1.47637065907942
1.60749247317634
1.49223070450504
1.51533676929521
1.74452073480924
1.62486391379519
1.45921181404218
1.58315361644966
1.61759295829061
1.63097662381523
1.67761460698872
1.67960817163628
1.66935136182857
1.59530320992106
1.55378883614304
1.59219465425322
1.49113423823018
1.56296159574217
1.62963253403633
1.56886568356986
1.48115695597107
1.48556058744443
1.59689676959248
1.45625901825063
1.51014666774509
1.69119632821044
1.50962428543373
1.59896272634124
1.53239718280149
1.51751786516578
1.48330796904697
1.49198225728725
1.64216754103074
1.54692410050326
1.43249079591071
1.40309280920603
1.48014310619211
1.61178480153893
1.55324629608458
1.5432490874496
1.53250551816793
1.53477886506612
1.50226424367199
1.4433640035643
1.47382008307503
1.45145159674309
1.46430978175957
1.58736458769091
1.45774069508729
1.3831835320201
1.45866401955956
1.45469138729879
1.41814611207681
1.42981484979742
1.48329074765445
1.50660616587943
1.44315557263111
1.35811723706273
1.34791973444454
1.35995675693997
1.37724658133031
1.46480314418
1.45892584037607
1.44172388726189
1.34091190176251
1.35333367872893
1.38013326263684
1.30318543736717
1.41211713817084
1.44406781359027
1.40288489342724
1.42683626583919
1.32478795475687
1.31218886815049
1.34854789020607
1.31422287473334
1.37552464865719
1.31287256529131
1.25369899281369
1.3499531868794
1.27094338143567
1.24948018448674
1.31073375887155
1.25391604753411
1.25987863004531
1.22808720140884
1.2901548625713
1.30685643783575
1.27448001726271
1.34761795762194
1.31786764557086
1.28564487954039
1.296733539431
1.23442963435926
1.22613403910206
1.21254523847773
1.20835035704842
1.1919426986053
1.21981060014993
1.22091170404818
1.15243504146343
1.21005578965093
1.2115462372545
1.19696727970785
1.20618838500885
1.14757076498318
1.17167920819175
1.14876713690125
1.13583435401221
1.17958395186464
1.17868633800799
1.10569228721629
1.13332602779727
1.18354138847969
1.15316617585792
1.1360748357784
1.1335053305791
1.08380296022896
1.0942670710616
1.10511564082292
1.09831488111487
1.08324266035772
1.07284460249301
1.05711676951432
1.06386881489164
1.04555198319806
1.08428697255249
1.07206894898867
1.05075489720888
1.08140753964547
1.10638758752895
1.06067673573176
1.0336601351644
1.05502972170263
1.04508606288246
1.02066263054035
1.02545078405348
0.990989968336629
1.00935588547441
1.00168728781679
1.00401329270594
0.983024733893756
0.979156230372164
1.00428880128035
0.936258923424829
0.908985643535402
0.966757887514273
0.964297950153649
0.969794449151362
0.961914812641901
1.00082547459479
0.967573452910406
0.948644754653562
0.920250532791907
0.936004926276169
0.931155307328652
0.91979224565366
0.904597723675808
0.909632927621725
0.929941194914723
0.903287384407413
0.893266148982653
0.929277299430894
0.889854082234342
0.875638584034693
0.876090310629331
0.880136501222194
0.858678130428153
0.872451110908434
0.844090969925009
0.847832146241079
0.868645191281902
0.831170252282269
0.817601361827402
0.864073987338432
0.843996996920967
0.847246985674558
0.823000053408811
0.814256964001125
0.816064502537188
0.819715016790659
0.825760982859253
0.832889167194628
0.812245493320705
0.812047405752705
0.790160457654328
0.785471223571006
0.77865381757687
0.777755455804385
0.779185961566048
0.803909927880567
0.765397425720536
0.761431430364985
0.758972238470254
0.776415273927115
0.757819355888441
0.754995985151387
0.765323733811795
0.749851076272688
0.735751526190891
0.75690642567907
0.742476991729255
0.74295324073699
0.732384005579798
0.733072842124154
0.711969801943549
0.726608435044686
0.734338629001791
0.735230437753519
0.731889980022437
0.736928107839097
0.694181935271322
0.696901927680386
0.706076670752065
0.698182186737928
0.670678042593568
0.687958956001732
0.690000014045709
0.691919028216565
0.670470036467171
0.663481914316136
0.673580420469632
0.676620379457464
0.651209082832878
0.663255037009024
0.642331405578326
0.660110070967661
0.655698512168626
0.637467160018618
0.630982321314463
0.644462367946728
0.62958177542136
0.618675136072947
0.620842626849718
0.630803924626396
0.623374679817067
0.623669548503997
0.613681160251977
0.630371555881599
0.622329112620876
0.614685255109043
0.608095508675666
0.619833140561818
0.599018179236002
0.599348315386207
0.597305720569575
0.605693868552298
0.591542179074139
0.584468999689647
0.57751670969682
0.57859237302375
0.578768810602544
0.590006350528027
0.577475564310793
0.579334167871227
0.567329074386576
0.570012353998176
0.566082975518298
0.570361412985724
0.54504273520674
0.568428039184216
0.555510351924077
0.560094487555998
0.56146523346452
0.552771479588152
0.543994850687616
0.561480741521204
0.54134974544402
0.547387739011455
0.530987568315972
0.546884499044934
0.543068593776685
0.545802491046556
0.544636879443267
0.552010712348913
0.541653310790464
0.552538062034348
0.534109622248152
0.542441176588975
0.543135843425011
0.548614616291782
0.535395576489056
0.539588354262743
0.540517904478249
0.543524184477617
0.540364662859897
0.552242508385547
0.548881950211196
0.548169944880238
0.532646172566253
0.543810157216764
0.54270226271825
0.555249383491777
0.540779456240757
0.557414158233757
0.547299555831653
0.556605298698845
0.553969915120466
0.566304059600539
0.557160347572453
0.567074752411704
0.564886449359805
0.576365897964774
0.560556489063823
0.560948222474288
0.567139180018622
0.577950880268932
0.563442092983423
0.587095418960865
0.572690454632325
0.590567762275878
0.581685598888803
0.602230447911201
0.601238303340095
0.585849942153142
0.580118561182339
0.587525816309305
0.589752499587344
0.600059066898735
0.596925730873097
0.621020966640236
0.615443063695976
0.615163383121334
0.622320759410945
0.635901754007619
0.62166891006166
0.629517885189734
0.624842702265439
0.639997471887177
0.638798284415801
0.651491290383413
0.665936567055234
0.656742130060639
0.651415438407868
0.678243402201025
0.668617315757207
0.679899507204974
0.674933497024053
0.693784196828388
0.680277426806541
0.690845771189798
0.686156318929899
0.700957347820508
0.689300105119504
0.70514561356888
0.693334245322819
0.721228818729246
0.694673519763986
0.713533125962846
0.703010780763663
0.700201659432654
0.711126597362985
0.732408809724428
0.702547927082746
0.701291419928568
0.693620813068179
0.713175399301931
0.696451298428075
0.703940244366919
0.700827394465585
0.690703224184025
0.670497005866981
0.702441167836061
0.697042848682237
0.721732764165148
0.70312098018743
0.702844171324482
0.696605228998245
0.70683053509065
0.69108553048821
0.693762213806199
0.689282972801505
0.705585783231137
0.695126706098252
0.68964653397877
0.710003731878539
0.705591110979979
0.684184827023978
0.688277257219225
0.695769260892753
0.708819942090242
0.700120974756577
0.709337866310226
0.687059985242438
0.718802242308967
0.686324562512998
0.709569796113204
0.691603424962856
0.700269158579504
0.695511530582923
0.709652698737286
0.698417430408881
0.69725722019798
0.691381841838323
0.701698627142297
0.681665354498017
0.693099153409133
0.688141614944278
0.700870625850109
0.69830580131199
0.71827496564468
0.69821009291903
0.698048561825552
0.677473340561167
0.686075278823334
0.683408962444021
0.687481780513062
0.680770416965772
0.677229223181913
0.66382551884288
0.671485044196573
0.658439884244647
0.668173206950062
0.654211882900074
0.671814174241015
0.645784070193938
0.648414248855409
0.631343313689778
0.649028267609706
0.644699938853876
0.634294404128391
0.626267882878486
0.628292975603804
0.606188121576592
0.611315432987453
0.594816736561153
0.618285599729275
0.605276190961001
0.593188466372182
0.580160153248155
0.590462323461249
0.56702336044872
0.587113704266239
0.572163253873703
0.583003039793678
0.560726792265537
0.56570841758619
0.553881964843177
0.571012169775297
0.546731381680544
0.550896922735204
0.543322410474084
0.551957919302491
0.533799044226502
0.546692924358523
0.534048056734929
0.538691298496249
0.531901007293609
0.531353552609444
0.513477272894148
0.530066108307784
0.511623540990983
0.515555343296363
0.508978896891016
0.510333075607262
0.506800569994444
0.513323527098252
0.492827004201439
0.508065998191821
0.494574161551886
0.494402390923699
0.490025254482962
0.499204316711364
0.492421758890758
0.488667479915647
0.490164721177399
0.492466192785574
0.481056182741539
0.480066663837007
0.475452393172594
0.477038946328655
0.462139601001223
0.476260120085153
0.469307569939524
0.4732383424345
0.462627078438689
0.47225611972209
0.462577443959571
0.463725434230105
0.453471556591402
0.461179688777936
0.449473622296667
0.465088860620225
0.446955877567308
0.451623302035717
0.449665493486153
0.453113403168021
0.441311550796172
0.449114974322106
0.440590361097037
0.450137364955962
0.432358888623068
0.444098170332422
0.427826474840134
0.445022927725389
0.425206644373291
0.439021040746293
0.43154362663767
0.436604621183575
0.426386597857554
0.428055044074772
0.433204590225127
0.435211036571395
0.42053772926022
0.427511545576318
0.412223161661761
0.423650342819936
0.408135837781658
0.429706559270771
0.417815722830939
0.421731387042218
0.418445090645902
0.422373030520591
0.411983669307441
0.419365428212314
0.405100312736443
0.419346697504163
0.411640759861981
0.410312560529575
0.401722829438141
0.412240216340592
0.408139818563335
0.406747285496972
0.400529863746841
0.408791592122883
0.398863902008213
0.399477031647454
0.390522927097532
0.403105155852522
0.399990737290455
0.399136001611135
0.394445931392973
0.405338853717822
0.394104379772326
0.400332038068267
0.395351206423303
0.399511181833121
0.391317217483134
0.396852139420516
0.388806682647323
0.394346844596251
0.383602810462754
0.39538271783241
0.384409190586276
0.396944912329694
0.384123980847802
0.388429595702417
0.383600907765954
0.385759066066365
0.379613759643452
0.386953103470906
0.382351419323247
0.390056989602161
0.383390483302884
0.38962443212725
0.377823911598282
0.38511851494078
0.379499593916634
0.388468437537006
0.3740592338641
0.390622258769856
0.383647575238144
0.383608939570183
0.379625023384709
0.385137074013421
0.384264911437924
0.379870757840878
0.374751335610922
0.381822811826641
0.365980382093672
0.379909592271415
0.37205464527288
0.375240006392372
0.368740367513252
0.376396163605869
0.362850241849751
0.371407991628846
0.368746938216724
0.375907940037995
0.362134998384774
0.375798399035072
0.366349689441416
0.368937888925802
0.363982234950052
0.370129053986862
0.355291528133087
0.360615305064798
0.360948777914873
0.371449880450428
0.353961358062453
0.361397560017997
0.356387899161616
0.356004825027821
0.351587770023505
0.35438272754605
0.354954084331194
0.361150362831301
0.357878732221537
0.356073866387699
0.345549562767851
0.357082440124475
0.350713009024356
0.356017221541767
0.344321869703331
0.356996867496792
0.345422556020248
0.350345453794002
0.345789393662096
0.346375484366676
0.342449673967535
0.348574632661989
0.343993141331173
0.346155502111148
0.339540763815534
0.343625300427298
0.340486230723806
0.345334162746579
0.33201741664138
0.344145725396951
0.335010575012653
0.340474485481338
0.334480825651575
0.336885068999323
0.333149991742542
0.336049444105301
0.326792477307519
0.331846917419838
0.33495981740948
0.334433710558414
0.328005057339111
0.33197915820627
0.323411966649376
0.331243296360179
0.324353003317307
0.326128296639565
0.316309943144936
0.323948264415709
0.320766906581828
0.327724538475005
0.318336846857257
0.321377004987111
0.315392869281143
0.318095248555892
0.314404273688137
0.315375420847535
0.310635185268255
0.318418969881701
0.311696454806083
0.31044888842405
0.306895081233773
0.312107011417007
0.30068118172105
0.308909601410645
0.300984824462911
0.302904841505726
0.298508457973393
0.306504316597321
0.296783214319213
0.302038539689967
0.298048149986571
0.305923099074936
0.296163157085772
0.300688598967718
0.293476877532423
0.29821472504331
0.290576076771252
0.29377660457594
0.287301280101733
0.293904686270026
0.291608794192265
0.289396270435082
0.285964453660992
0.29143505524603
0.287124634449352
0.287016870149767
0.284627474434658
0.284976620606306
0.283916875739123
0.286039544746263
0.27882763944394
0.289594631336543
0.275484496466801
0.284667778005949
0.280881891999592
0.278297176540226
0.280059462569036
0.283338427459032
0.277144506279799
0.281096517024386
0.274640870434269
0.273038865092218
0.26954660380106
0.275875042887968
0.271341375514195
0.273913171392098
0.271545947241988
0.278292500318441
0.275109466688825
0.270154195723944
0.261760594063654
0.274817398578474
0.267032968769259
0.274947147933832
0.264513516538095
0.27034867315484
0.265650120256307
0.265059700027828
0.259251869302643
0.264370887380019
0.260390457864144
0.265245919835756
0.260752486897536
0.269593079944951
0.254502402234189
0.261868662986413
0.255168385954334
0.259623727543454
0.258199737765402
0.255166734274078
0.253094835851236
0.257609534586792
0.253616938177475
0.256582216200582
0.256091565720432
0.256492708178911
0.255965920532462
0.256776140889115
0.250465968885403
0.2527253305164
0.249201534548764
0.255150071874286
0.251228397483746
0.250415390760563
0.250634371304569
0.250802681947543
0.252438448672293
0.251409841465825
0.248796123848917
0.256196447467673
0.247723611403678
0.250916365693129
0.241891126767963
0.246244820110982
0.245591119615944
0.252275342018252
0.249014982372597
0.243062800707093
0.243073684500166
0.244432728916666
0.239654329076453
0.246590097242072
0.241476722558382
0.247071707980353
0.246642486282084
0.247109579611085
0.24143765902437
0.24631189706699
0.238196162987482
0.240396341774933
0.237660836429964
0.240883882216903
0.237044383314296
0.247466998954036
0.239666780340773
0.238110204819633
0.236575156989841
0.238055786979487
0.236395562431039
0.239115182327391
0.229835344738513
0.238976548819357
0.237833443061842
0.234696639226194
0.231725868968979
0.23786803243006
0.233086251327177
0.237710236699336
0.237073647611316
0.235002068210923
0.230584488748893
0.23646294442546
0.228824301464959
0.234800652078665
0.225777497231444
0.235019880135269
0.227699547209745
0.233608194988331
0.223871228525636
0.230624277564748
0.222806711909331
0.232595901678446
0.224837008529283
0.231320093596117
0.225010831097096
0.22952307810332
0.227038215567938
0.231260735197422
0.22340142540753
0.226590855714892
0.223775953165583
0.225921066296965
0.223485920928674
0.225503637932873
0.224974358213507
0.230790708607476
0.224876401255546
0.221849560645079
0.221343084408595
0.225226543793404
0.222491262761801
0.225801434672192
0.220182037836272
0.224651274271472
0.21760448700161
0.22618516374753
0.212328060912297
0.223655629172023
0.22228961740016
0.220597390900016
0.21769826978342
0.220601125336399
0.21211164527075
0.220050490853647
0.216887264609486
0.219268662445279
0.21316322695716
0.212897906205303
0.213754828399804
0.215649086054362
0.211083381545533
0.211587399914398
0.20705910943399
0.213122681991007
0.20857272836017
0.205345391995109
0.214280045558693
0.213827902734744
0.206908017104101
0.205937998890783
0.2047319381623
0.21063447056681
0.206072261032076
0.206501427691151
0.203025519588998
0.206493866957778
0.202647612196377
0.20474331237443
0.205512908996868
0.200407461491263
0.19696329549605
0.20328607299567
0.197267388322194
0.203997436664759
0.199466730422959
0.202727616428606
0.200266449206486
0.203585384245537
0.196115096838738
0.197678219284592
0.193431100232864
0.196548325919474
0.19382058524323
0.197489044113851
0.191146827930209
0.195371393080509
0.192549328320608
0.193652323167974
0.191068864994283
0.195904614759564
0.189861473405378
0.192796456543472
0.189552183511724
0.189601556166975
0.188190619581697
0.190934669525081
0.188738848403968
0.192407002889926
0.185515160551827
0.186871736295756
0.188186123614308
0.192410623754146
0.18859967974906
0.184942689058396
0.184035139530417
0.188285109416919
0.180475588772533
0.183048374915402
0.178129060412056
0.185398299662313
0.183459225992796
0.182701258373736
0.181038218779824
0.179143724292457
0.179752515812237
0.17722067497049
0.178944766210246
0.180379645356265
0.176602261045616
0.177041918311423
0.170889365984954
0.174840656193574
0.171597432341348
0.175449154126216
0.173799728246058
0.1759652272906
0.173389831868804
0.17566997586662
0.167963309364235
0.173096375070896
0.169043162018248
0.171767214582037
0.173823440348235
0.174301839193161
0.172033125029506
0.172008884953894
0.167899110940931
0.16629680805975
0.168810696099863
0.170835364573164
0.168364434120301
0.171501237247336
0.164899721017467
0.168423298209815
0.168206269518371
0.170185104255917
0.167809725092545
0.170920631865785
0.162559262260051
0.164512460641819
0.163634443454847
0.168305068351228
0.164408283310041
0.165753785535394
0.162865716297887
0.169646817099013
0.16486446992679
0.170782701828342
0.167342200895719
0.166604189688943
0.163492234158908
0.166007638141425
0.164038888363013
0.167044409076978
0.162280710761332
0.164839933760424
0.161934181746618
0.161274452798527
0.15239734082001
0.159650471962625
0.160611474550992
0.16373565577544
0.150179129520926
0.154110147952934
0.157471422337271
0.158958332320928
0.153064071130977
0.163394332436917
0.154653504096032
0.152906833261294
0.153621359671329
0.159991965363895
0.154127876434415
0.155230959840709
0.152098215135618
0.152451171198941
0.156645926527122
0.152560446413589
0.158448007740101
0.158253849071671
0.153671173550092
0.151449107883166
0.159519409617784
0.153235865408739
0.159317208644543
0.148586066947517
0.152227186288369
0.141122032112246
0.15475211323373
0.148642637487506
0.158319985577029
0.148065833518442
0.158029560328129
0.137630181287983
0.153529180370814
0.143419924337692
0.158320294686357
0.144645916038035
0.168013130859706
0.144751553782072
0.167924747908381
0.134515004134235
0.159826813165188
0.140976960285474
0.168437439094086
0.136794029376573
0.164467583240171
0.132033337557471
0.166125706658983
0.139744065632698
0.158543633230078
0.142771441125203
0.15712625155712
0.154033257057259
0.151056408709695
0.161077810108513
0.145185263486563
0.157819370089158
0.134529689384382
0.162046948689618
0.137104565427533
0.163949103859764
0.136575777914581
0.15541088669593
0.143547009972413
0.15096018701243
0.143511305357688
0.14457085704766
0.147674162422939
0.146075240770743
0.145211517174209
0.148253748133535
0.144891488287716
0.148231559348382
0.142751057321519
0.147973335635416
0.141713811814358
0.146523089630408
0.140927621172087
0.144113180543841
0.14049127015578
0.143523404603269
0.139831598806953
0.14415905558639
0.142324061648651
0.144261128011549
0.139690966470742
0.148566443172992
0.142378630141106
0.146468185047208
0.143070450207546
0.144274986892307
0.140840435133758
0.142225371000001
0.142448119699485
0.14476214375205
0.142306085723394
0.144817764919653
0.143253510533284
0.1452575631835
0.139526726121415
0.146464565432654
0.144616359729024
0.149833755893144
0.141020554900393
0.143929007246795
0.14108031233959
0.146788429870015
0.141437001923415
0.147345767020946
0.139934188369329
0.145103806939789
0.14116707479001
0.144731827337502
0.142824775006256
0.146137877908981
0.140399102335193
0.143390885955168
0.1400192228957
0.145256986394403
0.140219594574767
0.144638062275242
0.141351073342267
0.14470995772193
0.140270659693269
0.143591674382784
0.14083047108382
0.145209886544843
0.140091940411029
0.143678444061515
0.142535467248502
0.14392230200103
0.140186385974729
0.143658006125237
0.142929398038234
0.142316311542784
0.141770401594944
0.143779544999693
0.141685637522689
0.145525574727924
0.141676369940021
0.142680246146631
0.139814454602384
0.143410688810481
0.139500064828071
0.144962651759572
0.140974396207886
0.14489072890053
0.142477478536313
0.146536279715865
0.140353255150337
0.145434088323454
0.142437304167046
0.145098859416279
0.142626390386231
0.145596986446854
0.141821719093915
0.145417691894515
0.141497571459605
0.147028030769216
0.144155260600356
0.144164601416831
0.143362456969698
0.144720914826861
0.142370917983576
0.146142473122491
0.143595318181481
0.146218997690052
0.144626498102276
0.145794634033475
0.145138204403374
0.146491782867558
0.146176506837794
0.146956275461126
0.144857272402979
0.14761864476925
0.141802639534476
0.147027332618425
0.143616271340973
0.143650090085411
0.143748612270079
0.149113061806109
0.146341450405914
0.151148988558213
0.143570650669582
0.148026546015456
0.146237529430119
0.14755506824802
0.146207296064248
0.146920341150443
0.144111703303463
0.148504773120933
0.145251088936663
0.149149264299436
0.14476518420023
0.147625371399011
0.145143883580742
0.147003380705331
0.146536757692783
0.147388712690361
0.148402995481317
0.149286877074559
0.144579309968156
0.148994970204643
0.147683428404256
0.149355859198784
0.14589537188021
0.147795384514686
0.150063441776751
0.151374196328392
0.145241137087888
0.147665597379781
0.146348984800976
0.150467303643245
0.148794068648537
0.151419398136134
0.148904768785426
0.150293139452198
0.150825156710803
0.150109036321422
0.148094099930837
0.152256829525624
0.148898448173245
0.152344159729174
0.152693738297999
0.152626722862321
0.148829440096506
0.154460577337193
0.150973195944841
0.153258615284631
0.149293607422377
0.1518613453669
0.152388229655438
0.154167253464277
0.152413748717003
0.152852569827835
0.150243299850055
0.153155655601162
0.150717018604276
0.151347977842594
0.148560722751262
0.149782982210129
0.151115815677522
0.152181888428922
0.150089329622129
0.149631545451887
0.149775502645084
0.152580042700299
0.148987661704805
0.150567600599339
0.150814180476755
0.150740900646703
0.148508665380556
0.148575863704373
0.146069011546714
0.150099115225086
0.146167159004874
0.150226230094048
0.149189330826933
0.146389620006095
0.144082320631293
0.147972353082572
0.146659531118428
0.146397240941924
0.145491411944507
0.14990858448141
0.145368785812933
0.146552584489676
0.142029876318193
0.145124179176239
0.146216229078624
0.147605517273303
0.146083484632451
0.145205931940958
0.144304370227187
0.145919464943796
0.144795925793139
0.144237857102469
0.140650069969309
0.146639691528857
0.145429350883333
0.146321509729498
0.145558342874986
0.146362740121701
0.143705196797215
0.142125729952411
0.142364986768385
0.145549363424787
0.144659178205114
0.14425943983205
0.143877973890771
0.143727094973057
0.14119008680131
0.143455256925287
0.140781833661084
0.141343655450517
0.141332031897862
0.144613792221528
0.141396270031623
0.140272957124039
0.138904935510633
0.141276041762088
0.141848282654713
0.142758869193538
0.141771422738341
0.140615480351082
0.139176777403241
0.141544354466494
0.141107143893851
0.140473396888153
0.137689184211137
0.142011468536523
0.141645034087274
0.142237746233567
0.140518426421031
0.141134601548487
0.13973704692133
0.141402942010728
0.138559707829481
0.137757763581725
0.137299617269473
0.139189830204873
0.136741697515659
0.138156527564451
0.13807691637941
0.140554179296438
0.141866899598262
0.138814512363384
0.136624427195222
0.139037926624273
0.137522933622698
0.136989328150655
0.135279109646747
0.138765768874784
0.136413957924017
0.135792579180025
0.138877064607418
0.136792373922893
0.132570928190283
0.133910382944054
0.134661430771971
0.137380442735356
0.136157981484715
0.136477827339843
0.136509221510606
0.137304480428495
0.135437704608298
0.136579072569619
0.136300328555976
0.136488698330788
0.134271108464832
0.136970714643765
0.133183780934244
0.135647303609187
0.133447161840716
0.135768464367296
0.135002272147745
0.135048582962742
0.136001112758226
0.133625596704015
0.133040978682833
0.131740105167928
0.129410327720382
0.132112739090938
0.130637620516241
0.129973664386983
0.12982474619847
0.132134708223436
0.130386154509846
0.132526218573541
0.129054607489586
0.127939846492875
0.127504652050733
0.127022788818852
0.127012031859147
0.128131973460415
0.126864405728811
0.126783943458607
0.124457804620641
0.124483573761336
0.12369700124939
0.125088204010947
0.124695601628822
0.126237846538831
0.120742039448284
0.121642116027933
0.122715598101555
0.123851533935515
0.124772307387402
0.124212389054006
0.122607304546545
0.123536553900346
0.119662959360883
0.119378592934741
0.121743208147308
0.122234937590137
0.122691673040181
0.121258242538626
0.117883425449104
0.119719946680211
0.12040112460274
0.117106351776037
0.11538873226632
0.123160106202823
0.125587490415204
0.117817763748106
0.116630960267026
0.120663492693533
0.120196711891671
0.118785524807907
0.115689479089366
0.115438697700462
0.117960736870171
0.119680521320718
0.119455046941734
0.118707836017924
0.11572516983304
0.114862906872146
0.118050246010265
0.116680415774583
0.113098099147392
0.115746512153274
0.114534605459046
0.114030896914844
0.113604371457195
0.114663840576253
0.113852193262022
0.114166043244481
0.114487203767274
0.115629746481938
0.116889789991034
0.116844207315298
0.115234873990319
0.11322152746007
0.110949211683656
0.111475357326562
0.110661415377481
0.112518739867351
0.112682927441003
0.113084354126782
0.112087924303798
0.112380763250024
0.108866638637887
0.111116503956544
0.110234864154192
0.110119744413853
0.11225989698158
0.108504899012832
0.107550224797031
0.108339541309467
0.106863261367916
0.108878081126393
0.106941046287539
0.110659896800168
0.111336606505458
0.105312845204089
0.111511553131205
0.119356745904322
0.110469056075305
0.105966645947896
0.105371333827419
0.107696254847968
0.105660780951301
0.105084464080388
0.104242397878589
0.105995422395697
0.107457869123245
0.106760815662308
0.103351297456804
0.106949270917522
0.107739457867935
0.104224135372154
0.103655160437133
0.104697481842209
0.104330648841262
0.104418132008528
0.102598646569033
0.105893895587321
0.114904452675965
0.107590960897125
0.103123168921596
0.103885649311103
0.104184294654022
0.115992088706512
0.109329743328537
0.104157686298665
0.103650500689639
0.103084349838847
0.105042372242643
0.101423910125816
0.100459612872185
0.105435246002067
0.104988853875593
0.105004896126249
0.105316701785056
0.102858266784925
0.10267852312896
0.101633014755285
0.100980796788902
0.103567165546991
0.105310404355507
0.103313960345949
0.10121859084592
0.099772587564426
0.101858472432388
0.102862931137545
0.0977369193992
0.103485893649565
0.106089578450112
0.0970048211058458
0.101431225049643
0.104503716336571
0.0984178359028236
0.106467842514978
0.111267542383278
0.103042650467614
0.100394126553586
0.100985148342473
0.101766377458148
0.103251214625613
0.0999267109219427
0.0967880686860298
0.0961446210510288
0.0988391182173487
0.102772878262301
0.0992226571739288
0.0988011199782301
0.100774964130098
0.0995100669112412
0.0966643191418945
0.0988396677530736
0.0989985612355255
0.098291758255314
0.0994440117093275
0.0977868037190869
0.106332454012376
0.11340885987557
0.109130753455674
0.105140075492299
0.103248081988787
0.100111418658471
0.0994596046756368
0.0970838512021292
0.100887988372471
0.1018552556762
0.0985763589547118
0.0985352184697304
0.100471861724971
0.0969229901004514
0.0963474850102177
0.0962005080247789
0.0965867303355893
0.0995542584467515
0.0975812604789739
0.0965478813005673
0.098158747593011
0.0966458722335778
0.0976346054212753
0.103691759230334
0.102968679282651
0.0989384911994977
0.0929478713767396
0.112990498326502
0.113983084082463
0.101058898377271
0.0990457846006101
0.0993787947174272
0.0976013971499065
0.095801433874925
0.0988082106541378
0.102890577127157
0.0975627865685034
0.0992623124876325
0.0990966283632497
0.100791900362745
0.101975825943554
0.0974876921624633
0.107986983832409
0.117787164302021
0.105747165375918
0.101952049918923
0.0965112279051297
0.109843182352837
0.114217299832286
0.100985552374286
0.10125088556055
0.103094883262957
0.100732652175348
0.101667448512969
0.100216320707368
0.101276289735209
0.100443770630255
0.101673275792347
0.102259565448338
0.10030924569971
0.10136524221283
0.10251256905703
0.101803041024427
0.110037390453788
0.108924056898444
0.101307013009985
0.104226974877204
0.103917379596304
0.101109881613783
0.102676786724102
0.104020495994389
0.102636752277729
0.110208733288904
0.113714353788565
0.107449195805588
0.114221668470194
0.113867624627475
0.105835326078747
0.108375310109856
0.111005039588351
0.112303126897883
0.100022992826938
0.114444330054841
0.124093308503822
0.128974612872597
0.116906782752501
0.109721225523676
0.106897107326012
0.110433880335043
0.104767653152575
0.111590697593507
0.125629970635755
0.111658137182146
0.110845132916983
0.105541819023818
0.117595709810577
0.119514073780288
0.115298315352379
0.112430640721419
0.112155392163686
0.112518894950437
0.126058262653013
0.111440279002111
0.113467492445021
0.123432574977965
0.136897021735244
0.137401049191933
0.116675239368251
0.115195815371286
0.130540065760921
0.123051086628808
0.117787510538497
0.115358961518867
0.120489769077272
0.112756055748343
0.123898670142577
0.138791311074127
0.123032918546089
0.122302311773386
0.121784858887045
0.122760100408976
0.135746469632968
0.129873897381845
0.122871932615787
0.123024448830747
0.125100934278582
0.12250289703207
0.164778165904664
0.137394134715571
0.14695288195594
0.142374561966539
0.144377526047306
0.137133334317552
0.1404028415958
0.132757723176609
0.144558512213524
0.147841598479793
0.143873736671352
0.129983896498932
0.159022537419307
0.152235074548376
0.14614408612817
0.149366046374531
0.144729324066405
0.141362911780642
0.173020987398858
0.186191323031237
0.176971391725937
0.154347957294696
0.159941284776072
0.174799354249219
0.168163950110996
0.160212499405814
0.164755821143121
0.163181883505747
0.166686595634691
0.167740596078882
0.176889686938672
0.174755264889729
0.180351199968929
0.169696991446076
0.177524367705736
0.184580229891043
0.221779900374014
0.20204259248942
0.187211483441149
0.201841167638109
0.207427809226191
0.198161865118458
0.192908927867409
0.192072616650319
0.200444102069529
0.206185876584459
0.204733607147269
0.20036944984679
0.21943865346586
0.214098003661763
0.227309143700133
0.222773770470191
0.224040875464049
0.216720089703975
0.232306156715084
0.310657512644543
0.25706355527877
0.253157322547531
0.239303698374331
0.255319692924415
0.305534124939502
0.286685106098361
0.272971792883939
0.282382632367072
0.280608096803171
0.292488515338974
0.294964497146157
0.309732113784451
0.322423994599139
0.322346519727236
0.32012202091239
0.346933868230616
0.392789985279651
0.402371697182605
0.369160228848568
0.364182033697756
0.383320098337191
0.391790971539236
0.388161113726689
0.400744654047156
0.391417192483095
0.433295086214113
0.469312026933016
0.444556975851931
0.438829737314354
0.453276398346806
0.483316705668233
0.460472992859627
0.515523140755974
0.501507368265788
0.509499307967099
0.50196940074411
0.521055853874957
0.526374635785351
0.529187117168507
0.552974099626183
0.570413503319783
0.560250843927518
0.575513027580861
0.574540636425764
0.582062479550578
0.591455925681711
0.598389829299325
0.591058774747749
0.630753750952637
0.647372714633799
0.761521022750851
0.659531976965322
0.640886490668177
0.611708384125776
0.646415926687414
0.648540389987918
0.647207208241142
0.702384907134437
0.663598705072305
0.639201934212387
0.642877829599923
0.65278639307123
0.651113838227378
0.64446238101251
0.667596928869488
0.653437415692324
0.69623743991826
0.635700804868279
0.733809425486416
0.708138488975632
0.678852715466153
0.654209552995049
0.679744569617083
0.648958061068271
0.65847172592019
0.649710145073762
0.67768102249128
0.677371629533084
0.673378103475923
0.636760073986327
0.628711949198353
0.656136345248061
0.678182178856037
0.631780531142924
0.62557019141433
0.615161326393184
0.625214431121868
0.5844251212662
0.642415540463271
0.640684879456533
0.604010939824
0.589271617309398
0.586318947077911
0.588077005905217
0.593247420809777
0.574053358228368
0.585337112064699
0.576477538140209
0.573665652874094
0.583895975592179
0.575935734321009
0.567040706738073
0.573553390802852
0.582542180486739
0.569342257048316
0.562458212740494
0.575492724208957
0.5682035070414
0.569059949938337
0.571405150428488
0.569011729645708
0.574245515780594
0.578892466863688
0.577677930041582
0.571257610003476
0.571827301404081
0.56871004549592
0.57659036656061
0.573308238839841
0.58053462861664
0.581486511212846
0.5739699938141
0.568992192278036
0.569477367686633
0.564588389354013
0.563788636783557
0.57306806041353
0.564998529223587
0.569413758988862
0.554989188156721
0.565788533585863
0.548406765034368
0.640990284162141
0.569468323015795
0.564129677892986
0.555184027152367
0.552223517269095
0.538658895621551
0.53455360285184
0.586748621879499
0.566029891682427
0.536136745279134
0.529464666607532
0.520340271630458
0.540115425214571
0.522369531245522
0.512211432003239
0.517602231785421
0.492192795292846
0.551452930871778
0.525608559959229
0.576546384175469
0.561403835508128
0.518514684745353
0.479619432646552
0.507464953810803
0.520203287400228
0.481955840836965
0.489235946555502
0.464857895810091
0.513279347499346
0.483827289481889
0.470779930997044
0.465712335310292
0.460607653593809
0.481163380089432
0.489058471248795
0.454720363676371
0.483763425439064
0.462523511647823
0.455879919601389
0.486392480350177
0.5198721642445
0.460581144780684
0.429995424246304
0.436491572252072
0.420198715925959
0.424609530056089
0.459193547697798
0.426198923040259
0.432681733866234
0.406085402677975
0.41421439465615
0.398170647865983
0.43172620639478
0.392523505356039
0.410108620536463
0.425486355532748
0.387213193509128
0.407697342989901
0.395390398066462
0.430014949627307
0.424860273367681
0.39536385370809
0.369078435074459
0.426918008549997
0.406433135073479
0.388297348981684
0.39445525253408
0.361005246973921
0.372127511917763
0.37984956011246
0.35826250048524
0.377024703506851
0.376668625234189
0.376203287861841
0.402289095119186
0.408633340312347
0.410343802046228
0.352263461685337
0.346351563527092
0.343783488053227
0.349665265772837
0.351547272107735
0.332196898679874
0.396684531969645
0.347768800410731
0.339497715463921
0.379996147385579
0.363223476137494
0.35812750263165
0.353398125072461
0.353541335196272
0.361549586639578
0.376759697495705
0.404231796184824
0.369113299030627
0.389440633834239
0.399006730047453
0.389935743545916
0.384281185743581
0.389604871516404
0.392595528610189
0.405396613285748
0.423837712020816
0.410827106447398
0.418190714012172
0.429662746056551
0.421524443624655
0.46939511469893
0.470398572433109
0.446030758772476
0.501615060136589
0.481021918081165
0.545508821755315
0.49682601307154
0.501719009603616
0.503012929026147
0.512238312544798
0.527992247419173
0.514031081912696
0.556479663168827
0.581017090634874
0.542420100442153
0.560503441514084
0.543984003425954
0.578439503501125
0.554584879568427
0.614638927384938
0.553826261262847
0.675272446110784
0.602041671196243
0.62099983226221
0.596093899499374
0.594151449724961
0.608430547434412
0.609678854354284
0.609898031467552
0.610421333077581
0.619108779377584
0.649410807744752
0.604710418109199
0.628519591637304
0.611188784140498
0.636263542984334
0.628736767280584
0.633344646110227
0.629261502226037
0.637456962322795
0.645561474579595
0.643475747666166
0.641461140862597
0.765250200075287
0.653771326957417
0.679813116545498
0.661302417673341
0.694798723735894
0.669655070069944
0.688877177977667
0.712427663928033
0.704153240700172
0.699513875640077
0.720819453552654
0.710829533023781
0.724644342516608
0.717293786223467
0.763639623427857
0.708231229568227
0.751119005066353
0.706354107294344
0.805173811796359
0.788243202451779
0.753849791494003
0.769062292429883
0.766784180842906
0.762426322022907
0.758743208904624
0.752239014912759
0.765706863327266
0.770641361067925
0.780373437657654
0.783179060346786
0.776928467519156
0.778749440036933
0.771878188438765
0.760482948170544
0.809350377174069
0.762743213737234
0.774802703773151
0.771808589018918
0.778389847401711
0.744194705560753
0.809030189848441
0.775784826959682
0.788027731542462
0.756915308537666
0.774174103946619
0.782046429689418
0.797776646688167
0.765579458970252
0.779190225531969
0.756116404917593
0.781512967765945
0.773712540075717
0.787837290729088
0.815345820338453
0.796531631724122
0.791451275325516
0.78974062484137
0.788588958257996
0.793995607007103
0.78291347096928
0.792125536239895
0.804794629736723
0.807968869176153
0.815472437009801
0.798771744648499
0.808911838854245
0.802151656839262
0.831642240580316
0.850532262562259
0.808476271785665
0.825775142225219
0.810288675728501
0.804468853871148
0.811352857923967
0.788914090667013
0.788567531519588
0.786105057326567
0.785532735756759
0.795936576253555
0.806133902133471
0.757798587854232
0.78737199738089
0.751717649792099
0.76083717987369
0.746624657663028
0.750350208971728
0.732580020928373
0.738341590101481
0.742288020791133
0.723387512152604
0.74161900580384
0.727422403099651
0.727081303636366
0.717599245542478
0.731201269986455
0.713562967800092
0.711371697342108
0.711653053366533
0.71187373330116
0.706048723489594
0.704528751736285
0.712005680532242
0.700019503440478
0.70706316821119
0.719675254071902
0.71905863636836
0.713377664071395
0.710356698487613
0.708867414388861
0.708557315070124
0.703660653112257
0.707328727963116
0.70598720304329
0.692393560087905
0.70605543768393
0.695096678595416
0.707920107265995
0.700100383874002
0.704984735725393
0.696372515308702
0.704394477100781
0.692885251484797
0.709310353392773
0.699698784072586
0.716130476100563
0.688580728368849
0.702195401765685
0.698578309550894
0.700429595550206
0.707197483448298
0.700670018213767
0.697479963904075
0.693284517491933
0.705425077480178
0.70255110384538
0.706709166662064
0.704077511465669
0.69924042352258
0.704841310801165
0.691945678419568
0.697354277890702
0.693953593167751
0.69276135527843
0.686084534906789
0.690420251565084
0.686004770870589
0.683279801274182
0.672480534600762
0.67781609262025
0.664626596337544
0.660330382771596
0.65664553174191
0.653100368588998
0.641592604063191
0.643554715472528
0.629470956172834
0.63491270355086
0.629610155839233
0.629984233484309
0.621741314068059
0.622669094121348
0.618012963387602
0.620784395199706
0.613762945799538
0.6131169985575
0.603058075810952
0.606921560000639
0.614035312489742
0.616925874953443
0.606498675583789
0.611103678938926
0.610430442458989
0.618594222057859
0.613147616798538
0.608887830438716
0.612060025406233
0.621979024319432
0.621659326264328
0.61890511442725
0.620780105411442
0.628901787739053
0.624468291111658
0.630756750105761
0.634011764421418
0.632582992018307
0.642182208489706
0.64074190329603
0.638961417366839
0.640015476858123
0.650276316864593
0.643254886280562
0.649198077873077
0.644883881221415
0.646443991804627
0.642239986936799
0.641630415604077
0.64775803101705
0.647735011922667
0.641777429774804
0.637547162594004
0.639552995511296
0.638614356584229
0.63576700297199
0.635182661763715
0.635801449400103
0.627767051079484
0.630141810359982
0.622447395296374
0.624439266203174
0.619796603430938
0.622110267557288
0.618854289104484
0.618471908233907
0.613200550360458
0.6164162708648
0.604223015072084
0.610512957734805
0.602953804477647
0.608109276467082
0.601755616789016
0.6023604036708
0.597539550219875
0.596156099781035
0.591686947666264
0.595304504795132
0.588150454345403
0.595998533062376
0.589038207292588
0.591725439466265
0.585971246959939
0.58103525819506
0.582449558849723
0.577573655206083
0.573535699770068
0.574861445008714
0.568410759290964
0.569599741429437
0.558353497155756
0.556419571968085
0.553525947048886
0.548925342432378
0.548484819316798
0.545177672569249
0.537614195055678
0.53172236021947
0.523986989434377
0.527492704069792
0.524367306073055
0.528535550370891
0.524686060471682
0.526106377182613
0.517460164931136
0.519231207322112
0.516669341481568
0.514576058103306
0.510452103561037
0.511922746721933
0.504104330428132
0.501690096899531
0.496789475217577
0.492774639456785
0.487452956083533
0.48054956022354
0.473343362505366
0.471867278266248
0.467505416600181
0.45474677418522
0.454380419772004
0.45147947149311
0.449406096180103
0.450222421465356
0.452405072020002
0.459009040842513
0.464612799834153
0.472468024938858
0.47754944623273
0.493412013433793
0.505437882451324
0.518334905402842
0.53756500734676
0.55305010951201
0.572300249277308
0.593699448989704
0.612996831450917
0.632813678078018
0.647826134160501
0.668169214838498
0.688630506601496
0.711799908227986
0.729730527827807
0.745980910679545
0.769025483348193
0.783246063383109
0.809678845692079
0.822784759606523
0.842798794206371
0.849900733783799
0.866705817688865
0.884986022576103
0.900116287697471
0.920212307084898
0.920225477720956
0.950529228270981
0.93666092198351
0.950659341815652
0.959842901631483
0.961070447006021
0.969291344092782
0.975570557829037
0.973658252546929
0.987826746906534
0.980129459543663
0.990368892664449
0.972503320117021
0.986393797596087
0.972775345590954
0.991786917765116
0.983177961039749
0.998583496328327
0.987032951020743
0.98852514022387
1.00650375258197
1.00151200341127
1.00756735943508
1.0090634769223
1.01669306249075
1.03689214487167
1.03870626830429
1.04125944480215
1.05951339886186
1.05118955700078
1.07336192764673
1.07287180499426
1.09997792328903
1.10905094714309
1.13140755358411
1.15278215428243
1.15984301620018
1.15771018445871
1.19272496684523
1.18234962938524
1.20614772032614
1.22286483766315
1.21127550077793
1.25766961016055
1.23548686804267
1.24036304524805
1.23858036623539
1.22824758033131
1.25745624818274
1.22728259196409
1.21745458112588
1.19856818763214
1.20165248902212
1.21758121821782
1.20047507828981
1.21444952675508
1.23062016288017
1.26701897622368
1.26602934300874
1.25989434015805
1.26492539073605
1.2901565111236
1.30400927720744
1.28595157644477
1.33860705133094
1.33009790429332
1.36920841935276
1.38793328202674
1.3957747880125
1.42958551967027
1.43380529556219
1.45574649919986
1.50723524320323
1.46851853058955
1.52906075509539
1.53277752659724
1.58406572089483
1.58953569847526
1.63896012641151
1.65232453882274
1.62687668344626
1.6839088725902
1.7151784306212
1.70082755314979
1.74421808522436
1.78372064056904
1.75849459798672
1.83953156948034
1.88345159428556
1.86234544895146
1.83190062593269
1.91047225662987
1.90414257890786
1.94517395213128
2.03478915132965
1.99198558943246
1.94272458051402
1.92146998130056
1.96382176299542
1.95934836557245
1.86046210092721
1.90034354548209
1.7743107803362
1.91629884775317
1.90243231167162
1.86122987944717
1.98983453092261
1.90470140260978
2.02377681988777
1.96707702178615
2.19395716873154
1.91392193532731
2.10696469135262
1.96420101749912
2.14376616701959
2.12620656522436
2.07675794175932
2.04451831223236
2.02784974942829
2.03453934190266
2.16318334347395
1.86326583959755
2.09638859038631
2.02403271799798
2.23045327400376
2.04464460717836
2.34452088653561
2.3099429164228
2.13621825238315
2.2509887886105
2.12403165741956
2.16179868718415
2.14308001429792
2.13299926074232
2.16641666614951
2.48982355769805
2.17652155842187
2.51081697469808
2.48490547998597
2.15977085749985
2.51773458496474
2.25482000238475
2.24458101509762
2.18867389680624
2.46272538183215
2.32954690123636
2.23408373916166
2.32860288946089
2.68465726822835
2.39802748806718
2.31488597628511
2.1351393474796
2.31399216839692
2.11438461839094
2.17514903001074
2.01843574039935
2.04031211263086
2.29087870011973
2.16432417542648
1.85653713933449
2.12230241224923
1.88937967818595
1.96392443472409
1.80981926230571
1.87369325054265
1.76960949789874
1.7971048822492
1.7335658945192
1.73548895037609
1.68177093564354
1.77354998150177
1.71351998154433
1.90107543272077
1.66055180678158
1.80027141055636
1.72285898202066
1.62083347588561
1.64970454972254
1.63816496457051
1.63884707772625
1.60456145477745
1.6326559950244
1.60253795948336
1.4849140423931
1.55241859381745
1.4919035981604
1.48902457644155
1.45820071322595
1.45170030710803
1.38957501650102
1.4092378801664
1.36737354146669
1.35050001041244
1.27257519271705
1.24545098054519
1.19784474155816
1.17526174839416
1.12593732307447
1.09918179399654
1.04838002599711
0.995895159278585
0.976747979915379
0.957785162753101
0.900567328640912
0.877172195987319
0.848505284023233
0.832120498027116
0.804750701122375
0.809283695275019
0.784183943868877
0.7700987112743
0.749916609002703
0.735047411200792
0.726606236815981
0.716508046555961
0.700604659507762
0.705412133851452
0.708042615486567
0.701389125320754
0.705254441721331
0.698684784953618
0.697955994307961
0.702786867285137
0.704909166333009
0.713155165836334
0.706856443997302
0.718474369642134
0.697273877724507
0.697339646754915
0.693070694320332
0.694988452986808
0.692859133584374
0.670561059798488
0.672969697212885
0.66530194023861
0.668845807184897
0.663103935882075
0.652134100442703
0.650933576640718
0.641978839713253
0.650114547227128
0.649608204751641
0.651922431498245
0.646031788568566
0.65558270438958
0.658117618876863
0.665174011717132
0.656026864292403
0.672155764914575
0.658000184003705
0.665979821391813
0.670499343719997
0.676245224889746
0.686334751031617
0.687224910840374
0.68478140933044
0.689483674683776
0.691164960376651
0.690761510824388
0.694606291208777
0.695224589923343
0.681365674869649
0.700724989575568
0.691338172582904
0.685703368554009
0.689829189636995
0.707098931341354
0.707990979594952
0.722550946584525
0.706696410762446
0.722851771731744
0.730921502094146
0.728690149080168
0.741838695991214
0.753260355921965
0.784943548763873
0.818941580278998
0.82436566332597
0.841976830378036
0.848113049042843
0.870935496872371
0.86744333367257
0.883116840959883
0.892108675862956
0.885621149873173
0.878496824678536
0.886279197663068
0.869482174749204
0.852916419367024
0.838171749706185
0.825711178215655
0.810950074287697
0.819406478367663
0.818964723469671
0.813522537271885
0.827507434935587
0.816481660252261
0.79415704261163
0.808633711419047
0.785024720381853
0.811978101232241
0.812645256013697
0.831761931806643
0.806090832436129
0.834777465087446
0.79439303382228
0.810630454937574
0.784060919627415
0.787515669908571
0.778164691882134
0.78616541050659
0.780799241907972
0.762779745102738
0.736633707031109
0.750005233321626
0.761815657049302
0.730402541651989
0.735457847592352
0.765562037827182
0.725082031543312
0.753164791154303
0.754932236814371
0.742234535387048
0.733725192313703
0.735297083095515
0.704761450429235
0.707935252714187
0.72858670982983
0.711766708072461
0.711599140268507
0.711000538223183
0.689038052706682
0.709838242744929
0.707449112872642
0.709300697321327
0.689997889824573
0.717605839941082
0.696693633926477
0.681159639184277
0.67158860172726
0.68843194106781
0.669335377606903
0.681754410476634
0.691240777372919
0.691574012147958
0.663549554907152
0.664139297713104
0.648984717244809
0.673223646173578
0.680968605166145
0.674941046221131
0.673911095232012
0.652816308390769
0.63944318093313
0.665346501189802
0.639589221672469
0.673511387185331
0.657968923212479
0.670712793148168
0.652277339868475
0.672566664558063
0.65696668914151
0.66901643393837
0.684223348525587
0.686880701117981
0.695601190470367
0.707732526254843
0.673377135950504
0.709009875175517
0.720627538215386
0.711411767384818
0.687506852128292
0.679518523504313
0.68186990168594
0.696820842408466
0.704816218069911
0.728045193096728
0.724120534854064
0.746166672157884
0.752572561963506
0.792448585580594
0.769667853132748
0.746985665063498
0.768505445622384
0.811323237351639
0.775947271080639
0.807824404122644
0.806089083779588
0.849595693892873
0.871475208426136
0.917201256510318
0.900534427607386
0.94418424485502
0.977487267748585
1.01564718685053
0.950099211599866
1.03805784458605
1.02269056035872
1.07269460966156
1.03164630664653
1.06127915334192
1.04309178193171
1.0916840841414
1.07908743797229
1.08793488472574
0.975324203834951
1.01044484721948
1.07048183666399
1.1115977282335
1.02228494863886
1.05806296233963
1.01678911244918
0.920707472531528
0.947594464960902
0.932633169849544
0.976847992423357
1.10131264328116
1.09489640760067
0.991521353741858
0.967039267048441
1.09191009409922
0.998639502440229
1.00913060587622
0.943789599148802
1.05273078143612
0.987062120014334
0.988224466438263
1.03053218107541
1.03064303092189
1.02221513531587
0.926360252840678
0.925444490368815
1.04937791018676
0.992848227869415
0.950140019866784
0.899526435768955
1.02762301841939
1.01234799110057
1.01387077280534
1.00351229683726
1.0610573167089
0.861606295619864
0.923400017251896
1.03868799586652
1.05487137916492
0.998879388776744
0.969172788746253
0.970535205302594
1.05971339248337
1.00646752023322
0.930980774146695
0.875111417958224
1.01787373404925
0.980422413373477
0.954746691062261
1.00193383563182
1.03060366892154
0.919093431323423
0.915312321496755
0.974323082455833
1.0637261401905
0.985533993244086
1.10281675623023
1.001400465133
1.02593962998846
0.951433257528706
0.982541332433072
0.968209675611464
1.08042503318175
1.01482087819309
0.980611011159059
1.08634752713707
1.45654105513079
1.14487848388616
1.10079353333915
1.13234111313452
1.23936522346466
1.16669638781336
1.22272017581608
1.16144408736251
1.42741749008245
1.44809107623648
1.49696881713005
1.33445454365839
1.38192451367724
1.51196662960477
1.28808022066293
1.15745845625711
1.13481020681772
1.29400312376306
1.19766792149183
1.15617011609851
1.1514291888857
1.04257735994957
1.17110709128398
1.29942635977988
1.42066667683098
0.901723996474876
1.20471525700701
1.4317453745618
1.22017401620386
2.02999484258161
1.33745471297407
1.35330227512371
1.44852475325077
1.30864935027149
1.05919577015449
1.16628186413127
3.73567273735577
0.810913509952797
0.993733190634642
1.26993725036853
1.10261980835041
1.3126835197682
1.469804577083
1.17196476844742
1.17454301608414
1.3307144103067
1.3256761623053
0.945837084540086
0.754426660956705
1.33165529026414
1.56690264502916
0.941861709983373
2.44642056159513
1.04391509421982
5
5
5
5
1.96245123275233
1.26318135964345
0.805575601713144
5
5
1.09048273511047
1.08231073156067
0.937470345236019
1.57697183323021
1.17120683320606
1.18040980669556
1.21006967665816
5
5
