3596
4000.36533379555
650.420452594757
1
2
2
0.0622606728665061
0.063928022807651
0.0604366523263537
0.0563449897035448
0.0659783222054489
0.060609276950371
0.0675775897805853
0.0627479667005942
0.0643579986931278
0.0700181697485121
0.0733319957470353
0.0675098770461847
0.0549817155791277
0.0686212277770457
0.0763457868461405
0.0622665011803051
0.0661172729331305
0.0653075554331932
0.0670455588076511
0.066355652198033
0.0654728375289027
0.061743913267551
0.0633232485257487
0.0582603327024215
0.0674822781120452
0.0707953198143069
0.0599402077779527
0.0651978085156688
0.0719764500872716
0.0706739046980804
0.0659167819015567
0.0617840584965622
0.063508566223237
0.0557867306682406
0.0635281276014548
0.0689047064734426
0.0691886889760473
0.0636658551300376
0.0679622693825024
0.0642250774495627
0.0762502112965877
0.0666435780835863
0.0623163760293328
0.0685965560126124
0.0691960205645139
0.0547358233352116
0.0701538014912114
0.0689138112859733
0.0615891274945501
0.0675734654225002
0.0694191032798984
0.0590574416254051
0.0703673362359984
0.0761988825791081
0.071105426108408
0.0793417902318877
0.0634090919664644
0.0687718359970382
0.0704403535628794
0.0634858935894362
0.0711522043871529
0.0752519590040438
0.056473490403224
0.0650092431882205
0.0583270357953789
0.0586589391291866
0.0620635012711592
0.0603857665515474
0.0579391181788411
0.071806621981924
0.0610445878353848
0.0663046547276535
0.0747930110322894
0.0579548856241109
0.0711911573670052
0.0597991398761566
0.0642294842265262
0.0608221470597525
0.0548955368923533
0.077318288339354
0.0778980373669572
0.0554262137596915
0.0683771654152048
0.0580791680966545
0.0613378171311219
0.0752760102468906
0.0576766677208471
0.0505022746330624
0.0715326928130066
0.0676724530548742
0.0717319603134383
0.0574733212920644
0.0634040794128759
0.0626221346103766
0.0631224008847716
0.049580324599292
0.0651345513130508
0.0576766663346183
0.0638768754884089
0.059689833379425
0.0660574906884654
0.04987710693295
0.105061137494072
0.0424692009330755
0.0973796861094454
0.0738188347427215
0.0366774677243826
0.10627604083897
0.0668143457737171
0.0645495472522514
0.0595549583090981
0.0593772351889335
0.0648269834682826
0.0695598028200095
0.0467225883771524
0.059003416156726
0.0911395502655504
0.0684109398176254
0.0618921053901699
0.0494297349317558
0.0481414376799873
0.0584513595149623
0.096724274365129
0.050956679837184
0.071765252487112
0.0538447628007449
0.0559816784369122
0.0718276682604836
0.0960265479130256
0.0592635803759398
0.0682861201485108
0.046885673874906
0.0606500937793145
0.0264275667834309
0.0932358587305864
0.0648433310494697
0.0619356674351944
0.0392312067893836
0.0565970110988618
0.094128837100916
0.0745809333181507
0.0563905821538816
0.0489314485291584
0.03784636519553
0.0852159491422656
0.0539204343395222
0.0559234120066975
0.0670796302467758
0.0865296688831185
0.0523987142008582
0.0592615550492943
0.0374344630043053
0.0722181667368086
0.063700528752136
0.0218394775596419
0.0467027968387078
0.137062059051733
0.040274295042623
0.126448867626448
0.0498980922904412
0.0684011560721887
0.0578225644574994
0.0601849654056492
0.047605259604655
0.0677641187026739
0.0504758162415067
0.0571298634235509
0.0825632289674336
0.0574389472715739
0.0579566878265668
0.0801665230516036
0.0593337003619713
0.0366420098716113
0.103318276890802
0.0884830283894377
0.0252136670813591
0.0849345863620563
0.0671971747222738
0.0536243152076083
0.0439346934193815
0.0853668584110163
0.0508300830697013
0.0674547773853968
0.0497251054401036
0.0623155461986278
0.0629838350118388
0.0667643610899467
0.0519749881800785
0.0605725619162974
0.0313616558125444
0.0664968902762974
0.0834863308492475
0.0912392039121909
0.0593107840384314
0.0674582378506536
0.018701804494939
0.0731515184797289
0.0914627408123023
0.0549087034940564
0.0528978007344146
0.0592353449457042
0.0493666896550668
0.0644877345443941
0.0446174699143908
0.052592496123802
0.0242625890899622
0.0933636266601368
0.0674862475947604
0.0560055701008314
0.0570849230403428
0.0531082624991066
0.040940221563162
0.0812507383999133
0.0905431812648139
0.0641202510120733
0.0621573171962341
0.0452161968393999
0.0638018055541903
0.0835953955991631
0.0561849115457451
0.062599999671183
0.0482757416100292
0.0576299062042065
0.0615315320565652
0.0653930877681374
0.0556375693685835
0.0570486461174973
0.0601772283485526
0.0673918473836332
0.0464399940783476
0.0600132897402092
0.0603294170902123
0.0578453250981328
0.0509801145920448
0.0579400550714907
0.0537151203714959
0.0844731303389016
0.0536489067473747
0.0683176963511665
0.0458515311277113
0.0587555269539415
0.0504795122475157
0.0659132818856564
0.0526107746132006
0.06063055379681
0.0384484584605735
0.0909809345032812
0.070312097904915
0.0541831210773526
0.0482796155996975
0.0683677905510224
0.0774380588392651
0.058781416569629
0.0558492166467102
0.0555638731202686
0.0536961431264231
0.0377530959287234
0.0749678610858787
0.0603935050605945
0.0504480448093868
0.0643580674062646
0.0690325545027389
0.0504774056780238
0.0504760253400955
0.0322147826371351
0.108440830425801
0.0715597083694286
0.0328791167989319
0.11001402220373
0.0830639695257345
0.0589125705019451
0.061316261510532
0.00802949998213177
0.127782786491654
0.116157728024875
0.0547160060773716
0.0641420756112377
0.0732044243421978
0.065725549635317
0.0533850772939152
0.0655624256797618
0.051823049655109
0.088244623359188
0.0739154747495847
0.116132828581409
0.0513293339779197
0.0663053823673407
0.101236064312761
0.0655596365956659
0.0650941721888538
0.0551049401452366
0.0535736778592383
0.0678907977442872
0.0771846039136101
0.0611366056742634
0.0724848679507418
0.0494524384612392
0.0868454935677542
0.0791124335284042
0.0590431519240406
0.0649416472987574
0.0725803310244337
0.0631162684601942
0.0617315655328449
0.0656282446915832
0.0672567960677446
0.0630127512600965
0.0368480933524733
0.102341483411455
0.0701790133570018
0.0554388769120246
0.0851920244636722
0.0768002912362934
0.0641090307799633
0.0640736956141174
0.0672274220136606
0.0695499538294293
0.0628201156764186
0.0597624534440445
0.087665131502285
0.0796866909703934
0.0604664584626116
0.0759912365852495
0.0631781917935956
0.0759456776381501
0.066134867038615
0.0728469624215921
0.0662822774048121
0.0709764346223893
0.061912099546086
0.0792535293320267
0.0887509078515299
0.0605222812921476
0.0873849313910648
0.120768714153285
0.0620792879702902
0.0810563568034954
0.0730888806763087
0.0791996286719751
0.0657383792488069
0.0808691905748195
0.0778466996816297
0.0832376152248743
0.0851848964399526
0.0878047682608243
0.0693460369000465
0.069420098116866
0.0942521087685358
0.136316638382029
0.101388034057355
0.0846828391398363
0.0544768203205649
0.0837956566629391
0.117984240161832
0.0990190636150558
0.117756091824579
0.0857767370307359
0.0931350060249497
0.0995372729739296
0.0946657605462743
0.0978746022293397
0.0954475976734339
0.100729976241091
0.0950680640501738
0.106466538111117
0.0957288232824975
0.0953214463366532
0.0858730674606873
0.14207907266474
0.116980596970975
0.109879519610869
0.107375201660315
0.109674194899381
0.109562791747093
0.140586543673342
0.115377727031251
0.163216328489081
0.109640428108607
0.154349706171801
0.124713450672101
0.13278896918417
0.11725603286137
0.133429927265657
0.134929284314295
0.140555743839919
0.13320553557524
0.140938721992156
0.128999858220837
0.152369217043214
0.142381287372048
0.146296308793911
0.135836451218884
0.162784864500981
0.15815062388043
0.14859844779248
0.144588487690666
0.165810095218685
0.200290485222384
0.196262918712475
0.174025281645389
0.162121604737853
0.180213729631135
0.17838001164787
0.17864787622596
0.173626537418443
0.181757548295832
0.197822252409256
0.188667552159838
0.200714501377197
0.19381641915999
0.212979709624613
0.186470105055249
0.202464107849329
0.20590956625364
0.206819063185847
0.230337499377881
0.216472276918714
0.210324217239557
0.229535127143356
0.227139941315203
0.225382874276747
0.237605697030814
0.230905486402588
0.221212170453224
0.241245941178317
0.24704150704117
0.238469859024951
0.23703515580632
0.25563218934679
0.246433468228761
0.261544420255036
0.261024147845003
0.262243735477811
0.257468066898253
0.282014850639451
0.262997581898247
0.271466035210471
0.267726738836227
0.283966618176456
0.277050763332592
0.300094600624912
0.309758876741195
0.305540941769788
0.307316043100278
0.299417189317553
0.291911699177579
0.312940230438883
0.308742970913884
0.322021268371736
0.308579001936537
0.329382600621141
0.307428231569614
0.329620892548374
0.33214537609441
0.341792305921508
0.321876596298283
0.340045196575877
0.338229880019638
0.35643534988016
0.347804634272927
0.357355875028787
0.374656225434364
0.386300349797836
0.393105934569382
0.403546295006468
0.386524265259173
0.380976386118641
0.384978096813028
0.407295792395067
0.386052982519396
0.401873306272298
0.404755091041086
0.41856131708349
0.421715128179496
0.430280559916793
0.403719534039605
0.443767927720352
0.42082633256896
0.445584590126757
0.430023227209314
0.458712562696805
0.443672161573157
0.470495965030666
0.452404069068151
0.473465443160525
0.477097099937156
0.477070461182941
0.465434419079619
0.484248876163433
0.46298374009117
0.497580863194496
0.492912751079301
0.527777580488409
0.523008692408595
0.525973938072724
0.485960969676814
0.53327520767791
0.54162368474199
0.545411653881616
0.524805578995125
0.542077903511666
0.522420856415757
0.547849119039986
0.55626173230504
0.559086925536559
0.550579319005014
0.61017045507606
0.573517716555451
0.576664134910951
0.575071392760234
0.57598330448394
0.603067094178722
0.646765411896289
0.585844811018824
0.615014197447648
0.619424449583987
0.625642270219192
0.613814023366923
0.622891434997163
0.612971573021167
0.644413926880199
0.623657335172161
0.661330277319709
0.658759102177015
0.679565032156741
0.67156838907788
0.708402395326797
0.688112470035692
0.680834095046168
0.665704494284656
0.71630282383039
0.677405529937684
0.67057254238673
0.707783132825247
0.714042590112477
0.710394022927008
0.754024735745076
0.760825487529696
0.760795333939666
0.72144879134698
0.777898754821437
0.773129598665972
0.762339778600905
0.74198354012207
0.789682673356367
0.78412889720121
0.777761735668923
0.748489835332565
0.7829022054737
0.783192577372897
0.836336201073527
0.838916929861591
0.863231178089014
0.79276592048256
0.807190626505802
0.831551494389963
0.84949881182403
0.796708098329942
0.886935488520644
0.90924410735216
0.894847443149127
0.813664664423218
0.874423509709063
0.888733063923534
0.899085184714606
0.871783793509676
0.889440181133769
0.842083886176512
0.897009445236209
0.920038047547138
0.948664538647388
0.886657771058359
0.936294286546013
0.92047343639004
0.975856943768307
0.943591238310389
0.945106232487116
0.930216860773372
0.955413126105631
0.977493818757335
1.01283243819408
0.955107333014505
0.994396766088101
1.00607655318205
1.02127931125246
0.984111584320392
1.04458748366192
0.988117934508892
1.01391345765785
0.96105351333868
1.08087888876954
1.05141504164999
1.06204249406194
1.09084978584213
1.10043773576801
1.05956233356805
1.04402573217266
1.00873183352703
1.13153350816916
1.00396956812046
1.04322891782381
1.07241236374997
1.05241580952429
1.0672519339713
1.15615942544609
1.01730787916224
1.12856582601687
1.15812584055554
1.0854938626439
1.10261711850666
1.12582541917304
1.0857180151175
1.28855511750452
1.14645407235768
1.09825482401464
1.1000743721161
1.18497846737421
1.13389546705267
1.2911726053756
1.18715099675651
1.16732820659446
1.13472663933666
1.20537816467038
1.17829083363155
1.14086020676454
1.21877383822364
1.27314988014659
1.20155822142962
1.26871825705571
1.19156516712942
1.28837515277454
1.1973377544637
1.16034273539217
1.2187082547121
1.29675015160957
1.12730351619837
1.38811017355147
1.33475648154121
1.34184179477726
1.164305925683
1.21891221277502
1.24344461152227
1.23582565742314
1.18019542879643
1.28350496676547
1.30003453050124
1.31994116651759
1.21301543443005
1.33530429276341
1.29435073399296
1.26766448448856
1.25709516964349
1.39327532148318
1.28262042413823
1.42162847119915
1.28112425229282
1.39945531761035
1.35547328965024
1.32502749506258
1.33014423675064
1.38593330955269
1.30113077442162
1.38695557274514
1.27409107876158
1.38435172773701
1.40191169141801
1.41573156354457
1.30946903794635
1.54794541666948
1.40833988392889
1.47207830088699
1.34606647438765
1.39915994298493
1.27030328084444
1.30795817865126
1.39913107740217
1.48178189331742
1.38574349815476
1.46339794629125
1.38905013215757
1.2779881907807
1.33916818706324
1.50388920780764
1.39318630994871
1.38473614966219
1.44473021769045
1.46240531759906
1.35933249300223
1.41155879512683
1.35677019701364
1.44449498722986
1.35749425146007
1.47244164040852
1.51284814093308
1.5153015741666
1.27883386567163
1.34037739852729
1.41224578592265
1.48303157169185
1.30663643572229
1.54741546759043
1.49161550396127
1.47788975466871
1.28988843533579
1.3967225498482
1.49110031398237
1.53935348408005
1.39605966326228
1.36310795547536
1.43021262307494
1.52418143569165
1.43918414547436
1.52689921897849
1.38594431770213
1.5951264039437
1.42590001300167
1.45259325179434
1.50471103601058
1.42622012895477
1.44507398471115
1.48346917112478
1.41873727520484
1.42641701199742
1.42463565967546
1.6310179450611
1.36107386885415
1.51857385385144
1.44050987253796
1.35811900925993
1.46219524097677
1.50327335283347
1.4678028101411
1.54448779004258
1.34510676949367
1.38842843630254
1.51782167063737
1.50814208734546
1.44903942789682
1.51472074309988
1.5277641594797
1.48262161116887
1.48564364785166
1.54546559648015
1.37179764394546
1.30006903524578
1.41458562313837
1.52132214007403
1.44469005440673
1.56506075373663
1.49713157375936
1.73075837729794
1.54809074330011
1.43248862587057
1.37992627692939
1.54349698361655
1.41893263727879
1.58692007457798
1.42840324786754
1.41957476212477
1.34655093879031
1.4622622093708
1.31825279760698
1.43373550708189
1.40216950677424
1.53666459394364
1.42092395952648
1.49779853673055
1.42664354598799
1.55357779407839
1.43952505273495
1.42213290027881
1.47161083539284
1.4446405056916
1.42005026896375
1.57291507395261
1.32588305249423
1.34535327813316
1.39300406214811
1.43862393115454
1.41458700721636
1.57308066248402
1.39178941746784
1.48188159115501
1.44010267409941
1.6911272826871
1.32806013702046
1.39565194803757
1.40061834996347
1.35389447399367
1.3663882789592
1.41449073151761
1.40841742586552
1.54850710150851
1.50837697085382
1.5730583864911
1.33540776035889
1.391589415776
1.3720282117321
1.38504778371042
1.26556158445108
1.41602018885436
1.46848420081192
1.44756215248852
1.32586203785365
1.47873371707515
1.41708023454831
1.3801218367963
1.40473651135135
1.34959406349452
1.35890445606455
1.42747055283132
1.38664160363822
1.36647831731687
1.45212828918771
1.35668612716368
1.37576858416141
1.51569513740788
1.23761212534175
1.39023173033436
1.34160299423071
1.38032796080702
1.28366069420126
1.34217714593151
1.39554347662924
1.31719656275106
1.31109935207817
1.29886538506658
1.31320810057633
1.3002401533691
1.23946943153877
1.31537783285251
1.34703074479202
1.32425248242706
1.27653230928137
1.32087318157808
1.24025094612143
1.26025889104447
1.24758492910325
1.25868245484172
1.30545478358329
1.334463785965
1.3237768072363
1.32261688259069
1.25493471016442
1.26755829786589
1.21018429153771
1.27271198316725
1.23731743286836
1.22288270934435
1.19638958023505
1.22901885743044
1.19373058522824
1.244816143024
1.22737550231724
1.33060724480028
1.17363890811919
1.23549115054203
1.22669671108923
1.21499869616289
1.15557453963707
1.17678381511337
1.12670757570098
1.24469363104698
1.23233664350431
1.25191079551115
1.19557380777748
1.17172992202747
1.1412825698135
1.14474607388383
1.12787637339079
1.20827791563228
1.15018526966493
1.17591871596487
1.12461926146864
1.1789257990254
1.10285515919177
1.06490895054902
1.15692113952267
1.14810469826402
1.08672109873027
1.1279864473047
1.06858176733505
1.14344864166717
1.0706517957178
1.11717230149717
1.09015403240484
1.12992113364958
1.11673753129415
1.07087186226131
1.040348084644
1.08999199582246
1.03113228089827
1.02102537926532
1.0552900808909
1.08488325085382
1.04142624337435
1.09929297726723
1.04464838698219
1.02254386220093
0.991527579722154
1.01537530603038
1.04837873010692
0.999897901344336
0.948631369795933
1.02392178396156
0.975137293151842
1.00006761040693
0.987022709666275
0.985989253287211
0.959948193425409
0.976196882162201
0.945655354161069
0.983891556710645
0.949288932399323
0.931067832320414
0.922908624605365
0.957387073000035
0.929442060112298
0.96632903743871
0.899973221746658
0.951882611170365
0.897813085705788
0.907256825620913
0.894255284772069
0.927119939799206
0.882319087314228
0.88537957759148
0.897933607556915
0.886930515921782
0.912852110203013
0.891523685010177
0.849879992159532
0.861804203944672
0.850023318479903
0.871566206078536
0.825435000337004
0.874819501816859
0.835540704149448
0.846583385169621
0.82261165307522
0.830229712644182
0.80230139192432
0.843497824035607
0.826146095248484
0.818748246938213
0.799233295152663
0.815108624326097
0.790415357239198
0.82144024360735
0.802787181694201
0.832212111586997
0.784317604530653
0.805288657556226
0.769176684094797
0.792148681007781
0.797729593952209
0.785689040588477
0.753246567279863
0.788573014661286
0.769765085407755
0.761521587716592
0.760390991075599
0.768415679709714
0.740399298649332
0.733791973460373
0.761720805364516
0.7522478315978
0.714402815641191
0.757933820793051
0.715111946772691
0.71929334979685
0.709716344405321
0.725550773284698
0.704126007814689
0.703643412087912
0.703934473342389
0.71214642074934
0.688442640655032
0.70793505367438
0.68722687980165
0.684203915005749
0.692681963912948
0.703392347797613
0.65934507921818
0.678066676992662
0.652906175698372
0.671114945658052
0.66083049257706
0.663505323155983
0.648610071935771
0.657153354297991
0.64243877683389
0.669111145995741
0.632723612548546
0.658757107795281
0.635649433237136
0.654598010922028
0.633454549778091
0.634555667443298
0.624541780496968
0.634135367797553
0.604675092601649
0.613196936220116
0.605837213503863
0.630020883433147
0.603807606404227
0.601976236934505
0.598035042435033
0.606011238631976
0.597692652805074
0.606256158450808
0.584567264896723
0.598440994241196
0.585663498202128
0.583378069595345
0.563893566351969
0.57862875152687
0.56767847912442
0.573327582108025
0.564408345145508
0.570008256940666
0.553570206436498
0.575526376921517
0.560750232176154
0.567356734022147
0.542534653109771
0.549353859073631
0.541241164325275
0.549671287551357
0.54372916123934
0.545087412149501
0.52482538414832
0.54443014869019
0.531297792624354
0.528668904097799
0.52415659829222
0.533999967829926
0.51118230926352
0.5332124390554
0.517575912530373
0.519584624772643
0.505897369269173
0.517454806219957
0.492675212813089
0.498746879189235
0.501712944565796
0.505419336833808
0.510756126080533
0.510021994234081
0.489406622713301
0.494257345138482
0.481756026684886
0.492572345966168
0.473953533771574
0.488592344386191
0.472926726399749
0.48740675310175
0.470698101161114
0.480585739970002
0.473356458143822
0.482195265983779
0.464764060518443
0.480152389147211
0.46456389836446
0.472350326277597
0.467157323180028
0.468707856871333
0.455697301856298
0.461790152296588
0.460187890360539
0.467373437113749
0.449037409622987
0.461429386433128
0.450654938708009
0.454303780280536
0.44903219556499
0.461130906083279
0.441357395734463
0.454228931264134
0.435216763719297
0.45581114128176
0.443891120603927
0.46008776063583
0.445263781959844
0.4622269296193
0.450722616533309
0.470829972889062
0.449495243567533
0.459746717818255
0.450423812346082
0.457743231384225
0.456457793135788
0.464176820104809
0.456177718534351
0.467689517138771
0.462107832412292
0.472695243839203
0.460676473601357
0.469492476395759
0.468009068381106
0.475627770991788
0.456296059373786
0.477561550067294
0.460897398591376
0.479690909309721
0.471479457316543
0.481771310640012
0.477028888586585
0.497781603461765
0.486247604506944
0.493756321533063
0.489026094766273
0.500768347114796
0.491207728071955
0.50766373920159
0.49755257955039
0.516502709254676
0.493526625507284
0.511667164699503
0.510568756046424
0.529660617121537
0.51678056667625
0.528698363835363
0.511289981993993
0.535265151110882
0.522228001754671
0.556094948656809
0.544514097112423
0.543613464905751
0.527126020885801
0.55561009546255
0.550662344934657
0.568416376323306
0.550781347710956
0.581836083705773
0.559387787688087
0.578909741060421
0.582300991989137
0.573575935408069
0.576544386589615
0.59980346440723
0.574597635603138
0.58899658612415
0.586312109005585
0.607060573826542
0.600625171893015
0.613867117967925
0.582172569810531
0.607845953564272
0.598006601687389
0.609754645077832
0.60843756673096
0.619749486763126
0.614068827720888
0.635855763529252
0.604988327781747
0.620330988686464
0.599661286357638
0.60314226598307
0.599811332655938
0.618076947147261
0.59543968373317
0.619472551685984
0.604269957405291
0.609749397494035
0.601855755852638
0.601394593284261
0.597299785365077
0.607212593191693
0.58837443450134
0.612010223051663
0.583279833648169
0.606528214893986
0.588084745883088
0.609366825865739
0.592462471635347
0.608651580668817
0.600276746838146
0.624473535854218
0.593133925777455
0.618588078758846
0.603643490228011
0.610376498519841
0.607064163065653
0.614488729641291
0.604780686713538
0.617819623924415
0.605309467337269
0.604739846610114
0.613203419766937
0.622299273909346
0.602321666272085
0.60300763504303
0.592707897539211
0.621800322538412
0.60364762118138
0.608101222232803
0.604400975558876
0.61880509342129
0.606826570733601
0.608850022817342
0.604842521679374
0.610317962337061
0.593391266695607
0.61780756449271
0.605075713256996
0.606301447291567
0.60095896523838
0.595067448975825
0.580343704342047
0.595800466316966
0.583184083487259
0.589466685133518
0.570092311832101
0.580226497396086
0.572483074964297
0.58399602059872
0.554782812440932
0.562985406574208
0.556643850027179
0.558555245746032
0.543504472564348
0.549355254770409
0.532290801980319
0.552864781473357
0.529190170511276
0.535002262919739
0.523376369615721
0.529755009482589
0.520806765531841
0.524091132137674
0.516429013474937
0.513336845634979
0.506374363010123
0.503756496657072
0.505430645094558
0.500415287962948
0.488051056380307
0.497989474028321
0.482200158353162
0.494174020899418
0.46756289057921
0.481795182958173
0.463323347267671
0.470631648772971
0.456488028227579
0.472634710139445
0.467975749606638
0.454290201263382
0.448999625800211
0.460233336147473
0.448651497868685
0.446367683487238
0.4397088745847
0.449240246318286
0.43664946208659
0.441628765422198
0.432382371547451
0.443695934425506
0.431086516848229
0.428831826139702
0.423703211095041
0.444109533541779
0.425401415087272
0.427106184669622
0.420166101578165
0.426732166152022
0.422536686095854
0.415802123880606
0.408523705998324
0.418251865035762
0.407413041655139
0.406049420871473
0.411338254893223
0.414302902668493
0.401482023651641
0.406211736876992
0.394909357782909
0.392247317131457
0.392851952438649
0.398640327453371
0.396439879179056
0.392089126208589
0.385425532720145
0.39692117650876
0.380270990765521
0.38538994578814
0.384606452368535
0.379812226210137
0.381003347191232
0.380760960319973
0.376792367173115
0.382247791865758
0.366036082752648
0.376934457965147
0.371575018033757
0.375652939321162
0.370282146936122
0.376411223239376
0.366529871983785
0.376402136604303
0.362388859408263
0.363768728191473
0.360871765911404
0.370126575080737
0.36401057250826
0.368517224459773
0.361280200779797
0.370292036843031
0.352510641406367
0.362685884375307
0.352509858711763
0.361470769126799
0.347838537703765
0.361774106737665
0.350230585400165
0.35489756791493
0.340157455177468
0.35827523181384
0.345931828815709
0.351748246937594
0.349694388974469
0.350042971374063
0.344291275881736
0.343515577187844
0.342678870593835
0.347625612980239
0.337023179488607
0.344491029634893
0.327435394410741
0.345320315755595
0.335063178984551
0.341141190578057
0.330185867294381
0.339307988330106
0.326726843149562
0.334913201867798
0.330341121973558
0.335479688861865
0.328534695224365
0.330877932010107
0.323484207272103
0.330749898989477
0.325678873887696
0.329840088681787
0.32406602815862
0.331561055549688
0.325312408092479
0.331023012426869
0.324017615012658
0.323806748951529
0.319250855351072
0.323285932628275
0.32334302152296
0.33249960695291
0.32733106387506
0.320724820260343
0.314970737348354
0.321343737068357
0.316983751969843
0.322406031223032
0.318422408594694
0.326252417767105
0.31412939638747
0.327368840158864
0.316597018085441
0.32815852263014
0.316715599928512
0.316384633944832
0.313631573544447
0.318924163365171
0.307822198214628
0.320372099608333
0.313117301175532
0.313652804564374
0.30442312793138
0.311998381969851
0.302520697115879
0.314289591225994
0.308231154964002
0.319169069027775
0.302570558216507
0.309813230036419
0.304023662671713
0.311276878277525
0.301831200560172
0.306006594015709
0.300093573136452
0.304765760033605
0.299831074421048
0.307915087740432
0.300466121802895
0.30042802975736
0.302805803021618
0.304770840415784
0.296283552257945
0.303238175319214
0.291461847740226
0.298124992519818
0.290524582168257
0.295006986793792
0.293869077874672
0.29849907226376
0.287622191178258
0.296234572670548
0.291854660667073
0.292730809001354
0.286844498676344
0.287063077724128
0.284650535160272
0.292659332883031
0.288262526195486
0.289778816116858
0.282285786344713
0.290209627646877
0.282551271373144
0.285694441948452
0.28011417886504
0.283911303557575
0.27731905440604
0.283560908240565
0.278205181546621
0.282056418543568
0.277484630560534
0.27408895743042
0.272329070265054
0.278868841726285
0.26911000920174
0.27081415691268
0.271351860331083
0.276532198065314
0.265138151242155
0.272385355283882
0.263408551443915
0.271452237710891
0.258622180186706
0.26396809437229
0.267375531154358
0.266077942397445
0.2578011244291
0.259357536815235
0.257430897977488
0.259864039529685
0.261606751841213
0.265199831454192
0.251415236363866
0.253718819005851
0.252102390401672
0.25502034371084
0.25052401548268
0.252395610048043
0.248673994005702
0.254596309107441
0.244383392129276
0.24859637299779
0.242496223869961
0.246786496473491
0.244717998370688
0.24308606953596
0.238487230684728
0.24188310875681
0.237956455841323
0.242582714360382
0.235289187393394
0.236462435733148
0.234020038388166
0.235214915866278
0.237818746332157
0.233355995570411
0.227595386176839
0.229897609731055
0.229039798846233
0.232485852871885
0.220535567267039
0.230135793689815
0.225889201106208
0.228786238521116
0.223946313472622
0.228617001137138
0.222974859075783
0.225167293823462
0.216841115278025
0.223348529221374
0.219750515579676
0.218858827679904
0.217793906695247
0.217418633559645
0.218976137008068
0.220937421834492
0.214311405021043
0.221502347839066
0.211624728083266
0.215534967477043
0.205226485740914
0.21267975212205
0.205183749017819
0.211954893979632
0.209235661058764
0.212937464630365
0.207623447265547
0.209509099120821
0.204676406479746
0.208354466226267
0.202242788925645
0.211840538212588
0.200024384943397
0.204983295963265
0.201712992937087
0.206345115563038
0.20265401612949
0.2034784906418
0.194255476243861
0.19921260882478
0.19488344227509
0.201088497107417
0.195526788010475
0.201144200021389
0.194074807798909
0.198024956102098
0.192646952073783
0.192906585976442
0.190696435719611
0.195268374174726
0.189385126060735
0.194916688599672
0.194312003163603
0.188281864686177
0.190963351289821
0.192147253202844
0.187054072173722
0.188728797828894
0.187238718735464
0.190663896835525
0.185303204970163
0.191299975366762
0.185472142894636
0.18613152156998
0.18424608091775
0.183783765130251
0.181523046539268
0.187373322510676
0.181053962487701
0.184115767155081
0.182276200979015
0.184493277803643
0.179995807508517
0.185175602942956
0.178438884679781
0.183979743481576
0.176970089164192
0.182901479993922
0.178980171307656
0.181576418504572
0.178536741238658
0.18255035524807
0.177574600799885
0.181788695086138
0.173691337397303
0.182336591030974
0.174530933060291
0.176088847343433
0.175995510567054
0.173892210713769
0.17340693659562
0.175233330181725
0.173512143193883
0.173342266384032
0.172445940451667
0.176183989841985
0.171485045346332
0.178119422002755
0.167834494044687
0.173396263506974
0.170329185451401
0.171596869736134
0.167752404096753
0.168478053671045
0.169536170264534
0.172752236081151
0.167554822791745
0.170064517919454
0.166113114101999
0.169286275736155
0.165236038767047
0.164323516406521
0.161125810599141
0.16569139464693
0.162923607817781
0.166747746972746
0.164992440201758
0.162899165693099
0.161797822062773
0.163234178120045
0.160893993622003
0.166347030259496
0.160695351617733
0.163114076491359
0.162848986854106
0.163319493667516
0.159469207477805
0.159799388105306
0.159126821132477
0.16043174520082
0.157323487080581
0.159369459120196
0.161705697822679
0.158516085672541
0.153425572298208
0.157031110990472
0.155528395310488
0.157773596895363
0.154196570540049
0.157868172048555
0.153923188399691
0.160376104063085
0.154571681435692
0.155678840543348
0.155863268169897
0.156117248964606
0.15041964581369
0.152223149541518
0.151358621576822
0.152533054121989
0.149776337115773
0.152188653119415
0.151125005889014
0.150885601570962
0.14609949633338
0.148734555363949
0.147830496566342
0.148701803049879
0.14439140533171
0.147714999377377
0.140948691256104
0.143416217455202
0.142002423936022
0.14025616124374
0.141254727916304
0.14164007320286
0.141393187662145
0.141490410895494
0.143385500528724
0.142789144249609
0.135756833267357
0.13768471840148
0.134732203774829
0.137899917886444
0.134823407392088
0.137699023822207
0.135717960006635
0.135522652865693
0.130944528816549
0.131380095950964
0.133998517948509
0.137443760690625
0.132307014983107
0.132253313017704
0.13127042820446
0.130843578191562
0.13068844857374
0.132984600528565
0.128302353887233
0.129212497261939
0.124244194437536
0.127433288479731
0.126826598628576
0.128612920543521
0.129593363743513
0.126399567576327
0.125063767136224
0.127814350519078
0.123459747049199
0.123851493961864
0.122065005942353
0.124293608126411
0.123588356868611
0.124174855955503
0.120711518377047
0.124862520109349
0.119611719538359
0.118672465087626
0.119336373608134
0.123230881391234
0.12106211491752
0.117652670732183
0.116276271930227
0.120426164232669
0.117684625912576
0.11710892687278
0.113815190382312
0.117611126348159
0.116581485285953
0.117937841818786
0.114815045501247
0.115245596463128
0.110411384326882
0.111611555435858
0.111051627449686
0.114304292518354
0.110781308857135
0.109134233558939
0.106267145389516
0.111680163840826
0.106644384449981
0.110349956942922
0.107785667083104
0.108317408528796
0.107887856304606
0.107631108608063
0.104470210757158
0.106659439455134
0.10699747879766
0.107501231038871
0.106928144948499
0.108804705942661
0.106372767651943
0.106379115657579
0.10018097445557
0.104818330216629
0.104189503584192
0.10451662340206
0.102493130124031
0.103197793944324
0.102902644157866
0.104016070882264
0.101801343890968
0.105736954731814
0.102308252132547
0.104004101327576
0.0991639619754779
0.102791469351023
0.102455475101301
0.102812532517911
0.0994267228405465
0.101387237544584
0.10140962382213
0.102866125726933
0.0993914165919852
0.101166702491237
0.103139263369982
0.10344138567461
0.0991078539389684
0.0985196214467205
0.0985509597770877
0.100994989560168
0.0955857220499626
0.0963802519620603
0.0933604553656069
0.0948465652884689
0.0915609258707316
0.101090031646825
0.0997654360292587
0.0989176007616956
0.087714949975317
0.0902705448461791
0.0971567610769096
0.0983945036872699
0.0897760874211159
0.0958794136652987
0.0980793951765624
0.0902388216015102
0.0934949050286325
0.0958716549751325
0.0928860780354979
0.100180589780649
0.0890917186566795
0.0977978284416157
0.0928518755790263
0.0975193473234095
0.0994534715572069
0.0987623091755663
0.0911312676057616
0.0931250592765683
0.0935037353001231
0.090517785782914
0.0932608891720989
0.0970567424022775
0.0916170163568682
0.0950812893495633
0.0942510236052578
0.100865390285234
0.0949638649832628
0.101707325896189
0.0975962680685958
0.0957853861523907
0.0899504212629365
0.0974823182397089
0.0895061290718386
0.0965510615820975
0.0970209493927682
0.0956450957174876
0.089557198035467
0.0906924768986114
0.0858395870263896
0.0983737471474537
0.0941072057862396
0.0944409870337388
0.0794330987106441
0.0937682257926813
0.0926219037655902
0.0966360032396621
0.0823883323323583
0.100745046314512
0.0901050384143382
0.0981511636890671
0.0825761555016652
0.0983075038818817
0.0862435230811504
0.0893256035958201
0.0855358964597679
0.0903188713295588
0.0876861047997999
0.0927544735057184
0.0943827407342569
0.0871413960228488
0.0911421489960142
0.0869393257930061
0.0893563758221014
0.086033781366493
0.0880589524928663
0.0851333470640719
0.0860429430336943
0.0876221593111475
0.0855055697855165
0.0890962768507321
0.0860934448422428
0.0859634371014811
0.0834801993920053
0.0833299507775643
0.0827219696596529
0.0855577630067989
0.0857971227820484
0.0849008139989166
0.0850397416736007
0.0850148560284016
0.084188140921024
0.0859655054772569
0.0829610954588046
0.0858881183722847
0.0838095090300547
0.0838052930443456
0.0864316210035946
0.0864570571509691
0.085131451262613
0.0863365156255064
0.084768570241131
0.0871445120199865
0.0831835719470369
0.0830806048404609
0.0854214526270891
0.0857844763533829
0.0843183664511896
0.0849132673696132
0.0860817091862669
0.0882887187572409
0.0847241674750181
0.0863814256744895
0.085498933295938
0.0835798001859885
0.0846530315167881
0.0852213176027027
0.0828607914274867
0.0863718405591577
0.0869252976188005
0.0858017436831649
0.0881490329259091
0.084024278043595
0.0826084355843105
0.0868271713593899
0.0849166235954314
0.0864582960443249
0.0848568694365249
0.0824372116444548
0.0829561072522448
0.0856657629078196
0.084690751124302
0.0838475893343277
0.0829597575038656
0.086445549208078
0.0869655818693899
0.0848756192527017
0.0860023386576109
0.0856818415709467
0.0851784169361825
0.086934858068585
0.0873725741560143
0.0853706367862518
0.0848639201664383
0.0841306667352934
0.0832880140955162
0.0874342694690303
0.0858218049067515
0.0842355096852837
0.0858332459789543
0.083942847948106
0.0820338285626515
0.0858495694444867
0.0843811012840378
0.0848682902653235
0.0861553327858652
0.0844593436937238
0.085735441728085
0.087675329562962
0.0855731160912715
0.0874356587460316
0.0881898550573014
0.0869376479924749
0.0848219218943202
0.0867463344783071
0.0862519260113659
0.0873519573095465
0.0871707992979705
0.0852547711114381
0.0861790324403323
0.0855968695645489
0.0846254898231677
0.087411565054849
0.087555550579282
0.0892649489267169
0.0914874176913904
0.0899552625490579
0.0865573439583782
0.0865848654563485
0.0892494386700842
0.0895795132643961
0.0885882550288779
0.0891823078384369
0.0865443697121838
0.0899537425800035
0.0885005219090164
0.0872552108766512
0.0896011314319088
0.0902238939673172
0.0887729482618107
0.0909846834408544
0.0895798638527015
0.0891353608869416
0.0887742979551912
0.0882433949789668
0.0900530732694485
0.0882648624271397
0.0885752839537996
0.091217593893656
0.088920356404362
0.0889292038819479
0.0878813910723344
0.0895417885094983
0.0899698487031521
0.0901036095450036
0.0898434283726843
0.0883352040762138
0.0900203087513913
0.0917282854742253
0.0893060839370023
0.0912562839635538
0.0900730178549005
0.0909518733836688
0.0926932383205216
0.0907936362106729
0.0919219847109453
0.0942736055199868
0.0920956550421052
0.0906295686035477
0.0897800989654126
0.0913031873991562
0.0920879521587732
0.0922535225491864
0.0933362523959251
0.0912427794333494
0.0929158070444412
0.0922869085928976
0.0932531357524287
0.0952677504244635
0.0946677185173171
0.0940949055145069
0.0945517376706041
0.0936644123128106
0.0923894882331329
0.0937086651930261
0.0936302819614705
0.0951439329661478
0.094013970238494
0.0940056167278765
0.0949181042520351
0.0953177975827769
0.0951024977997281
0.0949587612593449
0.0943798795087597
0.0969229611412451
0.0969498447232049
0.0935071467379506
0.0919781082246181
0.0936593857598328
0.0933368815323705
0.0916853881740796
0.0918578749041541
0.0902890267949924
0.0923077507295328
0.0941386120868957
0.0927189181974288
0.0898374103779324
0.0921391079398507
0.0933542129039885
0.09144771608023
0.0909836601759393
0.0901670591736283
0.0918896399363811
0.0906687847165932
0.0897310852396176
0.0887397696260746
0.0910203925887123
0.0912672474158326
0.0896219646439374
0.0889319664101605
0.0879606670090349
0.0897409017886554
0.0899854779374615
0.0892292549733456
0.0887196739730772
0.0867282819198604
0.0880938509395766
0.0918726532362365
0.0912038350353318
0.0894759430165944
0.0889912916025223
0.0882566234771204
0.08651122596049
0.0871848117790248
0.0872956932698511
0.0865066265328561
0.0875699147578354
0.0884913515977148
0.0897980098956736
0.0909152103664038
0.0888462868699368
0.0874720248662668
0.08717615549566
0.0859789419346707
0.0848178189445498
0.0897842884502275
0.087282262171926
0.085008920706334
0.0886091633313896
0.0865938694882976
0.0849453348307337
0.0871136790806219
0.0880547777018967
0.0883927118925218
0.0862984870716784
0.0861893021860885
0.0857886951157828
0.0847581849231575
0.0856716437335346
0.0880673636658843
0.0860472198945184
0.0837196634334428
0.0848966410942771
0.0840892339163452
0.0852035612208734
0.0861741667950783
0.0840501020659437
0.0867746835594416
0.0859114115992982
0.0865438860724406
0.0884412535792189
0.0867744100854307
0.0864831355218051
0.0885030051702193
0.086802187598794
0.0836727761726679
0.0821782760016359
0.0824959848401083
0.0837078178312098
0.0856297686225537
0.0837925210488024
0.0836894674595241
0.0857482990453239
0.0868080480285696
0.0845629464607513
0.0841985688933349
0.0853866892932074
0.085215881859754
0.0840641314802935
0.0842987113393911
0.0839986916531458
0.0834707555997237
0.0821549591378389
0.0847532432767224
0.0845430010519421
0.08283975785955
0.0809333689645001
0.081522648059769
0.0811976550298167
0.0826714061643348
0.082462002117275
0.0828563907527496
0.0823661000104505
0.0833090058876977
0.0815190326620525
0.0844197800549726
0.0822685565333987
0.0820954353895779
0.0824861675958536
0.0818899183240141
0.0828111919160626
0.0838056755243169
0.0819671131081851
0.0818681458395287
0.08100771843495
0.0832738182678202
0.081412043623111
0.0835289535171974
0.0806550172044481
0.0785513034872712
0.078251148546781
0.0795791009372524
0.0779827970067515
0.079389428379373
0.0812724794254085
0.0795075880561121
0.0776760736618456
0.0792434252755696
0.0763830130435105
0.0792901937981208
0.0755804417430957
0.0774913241663545
0.0770801444255976
0.0775666987326624
0.0781192431271301
0.0792271654279487
0.0759621815620403
0.0728958379202939
0.0733164542078676
0.0738525443623205
0.0734868244115306
0.072716424261674
0.0721113102147013
0.0737396371466086
0.0720426923974136
0.0745780092104969
0.0746475969594192
0.072793356790937
0.0736968251599681
0.0726879862211714
0.0710920746942162
0.0732603163140517
0.0717020503815918
0.0706542774655552
0.0717380013150388
0.0703958797546405
0.0709237806573959
0.0727516925409585
0.0713775829420326
0.0667024496458508
0.075116677613451
0.0755377625026366
0.0721865526007484
0.0716447507244467
0.073217557317842
0.0717419116407322
0.069099970932676
0.0693768193165804
0.071027230832257
0.0703732812395011
0.0688434774031475
0.0686239228824392
0.0699326881508098
0.0695187165211553
0.0687786411572297
0.0716012813480695
0.0676826073835885
0.0674480693281323
0.069103657300854
0.0692396446585982
0.0669191381237061
0.0696102778202795
0.0690065791808996
0.0673173431342564
0.070400217841535
0.0676491046917946
0.0655654615042761
0.0732829305021516
0.0715364414501326
0.0697502557650817
0.0674849350018116
0.069341518891506
0.0647646263099287
0.0671234925506581
0.0655352011089041
0.0673044932317545
0.0681491235336983
0.0686413793694853
0.064873185654798
0.063485029204287
0.0665350955583235
0.0656514003283921
0.0654175813795536
0.0706045497031599
0.0628992131041917
0.0632561026690851
0.0646225431469239
0.0646229207191524
0.0630729035647843
0.0660225908993059
0.0655910406351065
0.0691377774943767
0.0604822593854953
0.068126105139357
0.0702159387908113
0.0687901114377249
0.0625848477195675
0.0618544802132314
0.0627064869846382
0.0653017151219714
0.0621242975399976
0.0649924763267232
0.0640322335929646
0.0663430278473596
0.0654633039431552
0.0633360157940739
0.062287393737188
0.0634592599672919
0.0625373969309284
0.0635702723892524
0.059773507554279
0.0613565907004378
0.0635208845902725
0.0616920238575044
0.0645452856623363
0.0731383026110509
0.0633489839235135
0.0642813011897375
0.0623845212163015
0.0587890543888586
0.0723123135791889
0.0669041033694026
0.0665087775446817
0.0625861927562799
0.0652600749480594
0.0631169264027803
0.0655964238048244
0.0604630195115747
0.066051047854401
0.0635889997219578
0.0646207092555916
0.0657188761045229
0.0657103896024156
0.062728085618207
0.060880468985662
0.0611399761695084
0.0631024092263337
0.0654030687096069
0.0629741154097574
0.0608338946524129
0.0610385607027847
0.0638355338113896
0.0644739489527908
0.0593254340924195
0.0650422477745677
0.0659548543972547
0.0629940675466608
0.062420708304841
0.0639052902275289
0.0553863416124232
0.0635797451940728
0.0688061401379114
0.0644255296324885
0.0630379714838784
0.0612605716867291
0.0636515955101174
0.0641581068479402
0.0635836965350864
0.0613927307615076
0.0632331313867056
0.0624842359654667
0.0648856040321557
0.0601334342509233
0.0623334192201003
0.0581605594618103
0.0642153797694318
0.0607829358170525
0.0632177758923335
0.0636662522236092
0.0617784396415265
0.0612524408752525
0.0592716660200517
0.0624246862951472
0.0691524297037738
0.0734681275849359
0.0651571389158321
0.0666032652156667
0.0622319560571862
0.0637631028923966
0.0619008721554286
0.0636953349981025
0.061953566437138
0.0626161390797786
0.0627252390954274
0.0639142924828505
0.0634406400711438
0.063716186352952
0.0635407811050293
0.0627538395944185
0.0624915954239722
0.0619635421383331
0.061832914412395
0.0592812634788553
0.0623985118674635
0.058632764927735
0.0700051824386915
0.0646714443498143
0.0676878424195555
0.0511587868058617
0.0840752946191121
0.0725803564016634
0.0713383373606938
0.0626914053733963
0.065845521529478
0.0633885063902153
0.0644444414123548
0.0627391857270502
0.0674900052959155
0.0636457981323797
0.0632032313777737
0.062092184358362
0.0671282650276811
0.0662776585258199
0.0613091892905651
0.0681982762245094
0.0807062707349935
0.0692166771325942
0.073222615188896
0.0576443924910874
0.0746708318993493
0.0756963551581158
0.0677499362654587
0.0707728247555986
0.0654046464288269
0.0642847330367201
0.0667611350735123
0.069283865096629
0.0636522868049115
0.0669316900005068
0.0674344845944612
0.0686764834581198
0.0670161488761064
0.0642662739136775
0.0695148954615175
0.0691061052884817
0.0757796291663411
0.0707460384895928
0.0669072702439014
0.0741305279610683
0.0683261923678982
0.0665560783403777
0.0680980792676256
0.0718235056712123
0.0656270561043492
0.0756944273488775
0.078486251691068
0.0705984579899647
0.0778313892368757
0.0780595830170822
0.0692906410257499
0.0727582473921525
0.0720800694190028
0.0844354817969582
0.0583360268703677
0.0874527353700041
0.0803764647029076
0.0896519836198367
0.0843831324918948
0.0762552365812052
0.0739896261838235
0.0714761505993499
0.0724503728676063
0.072858878483273
0.0954241297214438
0.0694147778626005
0.0837317228154345
0.0629775934165676
0.0925791690222439
0.079497626961402
0.0825613141578834
0.0773767706318879
0.081466985197183
0.0727930353486922
0.0960171070202276
0.0718763975726345
0.0766133004770191
0.0829504005779552
0.0976859411097719
0.10754115216131
0.0795470779348317
0.074289689328053
0.0981768191603452
0.0822251659722728
0.0883178109847556
0.0741181420833092
0.0911601048495397
0.0736589578132997
0.0903606578971577
0.0997200071837014
0.085414011958737
0.0876152736077352
0.0871354368014431
0.0808181320741045
0.0983886344659843
0.0861719413321114
0.088646549603557
0.0856510361178063
0.0967746695103641
0.0730476784814921
0.137738513615616
0.0856055191741926
0.112649688398971
0.0968119646423787
0.107762712842732
0.0960469241529463
0.103696001364333
0.093356572299853
0.110926405815852
0.107521276097463
0.112037313868032
0.0853953221227292
0.12056026054981
0.106743876379499
0.105487333131151
0.111157682425706
0.103904156616231
0.096913497113941
0.130344351157521
0.13482696911982
0.137480139403997
0.115363295286702
0.11615366268218
0.131453620619598
0.123302005930545
0.119193680686526
0.121917359863753
0.122535171042791
0.124549337076047
0.120012289698897
0.138145999585761
0.123300194582364
0.135014139230843
0.122591168905825
0.139231109341602
0.125741663008419
0.165643382653365
0.1554554892526
0.138302949940429
0.163176942546166
0.150750735421921
0.153739579832698
0.14238039828422
0.144784084879098
0.152723993839151
0.153196356626355
0.15662146293642
0.141976154098065
0.171914790510201
0.158331039087725
0.175713554340665
0.172702228225067
0.169928859167065
0.163470337190229
0.151258279932713
0.275774440582245
0.182737243726787
0.212770629084832
0.17432653439821
0.199393441138861
0.238403214089455
0.217684309934249
0.214388478458519
0.224643543158404
0.217169601946135
0.228363903921142
0.233652557065839
0.242751460464016
0.255192657008711
0.259239192079381
0.242414227715437
0.27243512895445
0.297471663199076
0.323904743223976
0.300728634737061
0.29420425660224
0.308759200403808
0.322456861973001
0.31499302675164
0.336573923027245
0.314894367459971
0.33450936446269
0.380729501239421
0.355750106956977
0.36192572404467
0.359625522032294
0.411049422492501
0.359334077801997
0.445204580771184
0.405085943839695
0.426894023983859
0.409051361766428
0.436385747286425
0.428694838437597
0.432874371313771
0.458166530770135
0.475343054813902
0.460036667590425
0.468261989466235
0.472858441363569
0.48143437452745
0.478602311709903
0.495420466269982
0.475280783687075
0.514139262959354
0.48925269480806
0.693166835836163
0.514602886624164
0.524929560083965
0.500327439727169
0.518008455081617
0.528244651070407
0.519341412954109
0.554144373155128
0.545162268708354
0.505174705504841
0.53180952108104
0.518577165065906
0.523693549590742
0.50479526193994
0.540778828940969
0.499049990877596
0.55539068380706
0.492675687253902
0.55333159224582
0.546395667497734
0.539128972076702
0.514190750474015
0.529390707854727
0.515041322968106
0.525785298486198
0.4912404475148
0.522442682340051
0.529733620204459
0.512168847108805
0.510687877400193
0.495444102165272
0.506764476979568
0.503857725592638
0.487649248673019
0.493623714514867
0.470697679614487
0.493710236525256
0.45950582672525
0.484760923233216
0.504836808685105
0.471661069389076
0.464382602402609
0.47063224495744
0.464071874819472
0.464322571286293
0.451083099142556
0.465973691992504
0.456616677599233
0.447873751502302
0.456333009325131
0.448956779977207
0.448644965005735
0.440646706594252
0.44685514500843
0.440469639139286
0.442302116740634
0.435666590293219
0.433338265595239
0.438324017976923
0.438785592367847
0.445802260069558
0.44097721002074
0.43816332117079
0.442125406320379
0.436478406902624
0.437577440354623
0.436398872080787
0.441663116465114
0.434248115906899
0.429475685414391
0.436467655205437
0.431607873451511
0.436278191173566
0.430910692269468
0.43117642826109
0.437193028458561
0.429918025005831
0.42835347478111
0.429302205892329
0.424994734305975
0.430598261558169
0.393058296180185
0.494844352942332
0.423143442527743
0.425773865284187
0.41252186015413
0.42161958698823
0.413131116054156
0.392592924730317
0.448291497543897
0.408102006056324
0.406945893348173
0.410437048928461
0.390799272387151
0.409089354199459
0.404215701024087
0.378647516169385
0.401257787314512
0.353849653919583
0.436658502467639
0.382656088559923
0.453620368337064
0.416734358443802
0.389801475963618
0.363670851213465
0.37827907324713
0.401772810793141
0.366445798913773
0.378915979769069
0.342870686254869
0.408316163693992
0.367669361362296
0.367817080144698
0.360134967948211
0.352024632679088
0.369223867186595
0.389402661909181
0.35148568647931
0.373964524880193
0.370774840153071
0.351731517106198
0.365185801481856
0.393788224513927
0.365755824378103
0.334306000790219
0.341290769695459
0.328447594636229
0.320365994084559
0.385598385411914
0.32014897596031
0.344525666681704
0.309877693219451
0.320873187758768
0.304808594753174
0.324774673231934
0.311475445945778
0.305182568487795
0.340602035896466
0.289843824660642
0.329176970366433
0.293927654314623
0.335104597772532
0.324729816237302
0.310999607730128
0.277545794333159
0.326427548444672
0.320777457187134
0.29011388963781
0.309140495150501
0.275810927091327
0.283084485562103
0.29777574197802
0.272150447632181
0.294642882063598
0.282990249896839
0.274303996793381
0.310687153872421
0.300602461476231
0.325631891615034
0.278571250592876
0.268743611118981
0.269876131644746
0.263109363819418
0.283895630177404
0.244499531408532
0.318280288745155
0.269651492580431
0.254120198707987
0.312119656232051
0.274032480788687
0.273494875190842
0.275922816321745
0.272538792668598
0.279208150689191
0.287436944023709
0.310204047209397
0.291887047711044
0.302101608745089
0.316459144484769
0.292197049587688
0.30479809912971
0.298042499461382
0.30778148840901
0.308863769416563
0.333516256137422
0.322556282039394
0.33117811773487
0.34226505409121
0.332696405966072
0.363472714778604
0.384536668234497
0.344909471356786
0.420864932457577
0.362803462040595
0.457596703663338
0.388626788912243
0.406167789496099
0.400055939970617
0.414724144824043
0.42594781995898
0.419974374009801
0.425964526086221
0.476064703329669
0.424210405574484
0.462196228526644
0.441835855013614
0.471967630786514
0.44289897511855
0.512531314369673
0.438653400515039
0.538185623583459
0.502057958606837
0.499727893250288
0.496097415476137
0.48184066284549
0.502912247433997
0.493037647089684
0.499196593681318
0.500087738390903
0.497002624894321
0.531091134626638
0.499336743341515
0.521372832343051
0.502220641761343
0.520818568879977
0.516919932386702
0.523737052375972
0.527974740250892
0.539781741068055
0.535081108965399
0.541717678446035
0.506214370996196
0.623431088144898
0.545058733813752
0.571533848779995
0.551659174107988
0.570772119525009
0.559260829111633
0.562697049537048
0.586158666727105
0.582265508111303
0.583887062301547
0.602595819222931
0.58864368307527
0.600422649615264
0.582555090771772
0.633485087086901
0.583108934437462
0.646768430707356
0.582906545183845
0.656707371959288
0.656054058631078
0.631695845386665
0.64094330819494
0.631825744596153
0.637542153621455
0.629447793977736
0.638178836993109
0.635662438057082
0.641089511196097
0.636374108948812
0.643988316687361
0.643845903458679
0.651360668035695
0.646586319263856
0.636720501478863
0.663427443172682
0.638593188647132
0.651294942439386
0.629137942375878
0.650851689574399
0.616695350753505
0.663552860973657
0.640146463958952
0.652110564167642
0.645333390764603
0.643950615830897
0.65174057490356
0.646158340986971
0.638623892557827
0.651539107195346
0.638588601665485
0.657102559115253
0.631475555042801
0.649141670080122
0.674828840322328
0.645872864911576
0.655710410501947
0.652609896315251
0.652123452711072
0.649381799455549
0.665543448840061
0.667097896616356
0.678409371170137
0.670597418259184
0.684720178044026
0.670673279238469
0.677589191500892
0.682779416162404
0.691166986637056
0.691759694141438
0.677038710706063
0.671046697591627
0.668893791003405
0.668048388629606
0.661465606887526
0.667849785719364
0.650813145916414
0.652182669524104
0.646411669797546
0.639338254002744
0.664043269159498
0.626019542949665
0.639472961281024
0.618064305329033
0.624046304345472
0.61183637229229
0.617585115636798
0.60825810110494
0.598263289642546
0.604340194403263
0.595794920618586
0.598108815742992
0.590130691991983
0.582871545530188
0.593491264843685
0.585504687686077
0.584138143390335
0.583799127738952
0.588057439981317
0.580341620278377
0.5820472219025
0.581179572589809
0.579477422529661
0.577956055235127
0.589760584606334
0.582011558477331
0.597352144600766
0.582188791859904
0.580658502756565
0.576355004500552
0.574638876177257
0.578241267356541
0.570851568990467
0.575782259152232
0.572618854419972
0.576502190561177
0.579448058004933
0.57671010864702
0.575497293682882
0.578320962230938
0.571587636840451
0.576972665372617
0.568003253639234
0.584993501126103
0.564345683803453
0.579106759087035
0.566716873502791
0.584623927024182
0.572785852697279
0.572654915814574
0.572958732246398
0.570221705090396
0.584494829689069
0.57200024200611
0.576888384796727
0.576640977082749
0.577545420470106
0.569221298907746
0.566318747828473
0.578049915162325
0.566798773601477
0.568584926655865
0.568665488283807
0.569745659452489
0.564647761194123
0.557218787237486
0.557192682937486
0.555546248922613
0.552364169874077
0.552881323183435
0.538818961587003
0.543225007069031
0.536636891981184
0.533008273776133
0.525002106326733
0.521230591536047
0.512873541299572
0.510899077689297
0.510685278708477
0.507089895883784
0.509638944978628
0.503854676290354
0.500985381762083
0.504970440931886
0.499420873167571
0.497680591748885
0.494682436567722
0.495637283422212
0.492774580932951
0.492704853463894
0.495305808332813
0.489968543513009
0.497816187265709
0.499796303399273
0.499952930999746
0.497886858760814
0.505933486267193
0.503707381423142
0.507961511043369
0.505405921600134
0.50734600616568
0.509177699854934
0.512543249050086
0.516852576860803
0.520750364175718
0.517711114415218
0.52044747365986
0.520717244494447
0.524882129984941
0.522330054015932
0.526574241154456
0.528872046361683
0.523616820209409
0.525737260227038
0.530887073252338
0.529503890412945
0.528711770081679
0.529946795966948
0.527997020100413
0.520944793482051
0.52027207157865
0.520190946669111
0.52240316697244
0.522957468805484
0.516928780533715
0.518656182257481
0.51553592891141
0.511907557673515
0.514473853619218
0.513106915410352
0.505327567124433
0.504449646212195
0.5037095576303
0.504219497233441
0.503122547729758
0.50038990613686
0.496395654922544
0.497085315160968
0.495454037860135
0.493739292091531
0.488154003163852
0.485002947986437
0.491060008128046
0.490817798788176
0.482652037046563
0.487631476615606
0.48480243829296
0.483033200356865
0.482390176187528
0.482757335253849
0.475586422466643
0.476167757122667
0.476188576617516
0.47207076249353
0.470596754570177
0.470363423880996
0.462601513311287
0.464096125936314
0.455118899110691
0.45445996536398
0.452836078369893
0.446329032849545
0.446237814416769
0.4439157826126
0.437687865072501
0.4334582786081
0.430518749340774
0.43220876671634
0.427960043454694
0.428802698918644
0.426366387288352
0.425475208008135
0.425883184911217
0.422681727604929
0.419475490362281
0.421229787069987
0.416038332439725
0.418067139361784
0.412805530671544
0.411105563410013
0.407962863528912
0.401984727858516
0.400806744793803
0.392428747993251
0.388244353925209
0.386210088694087
0.381444291016437
0.374933923515759
0.373549296201848
0.373912413612617
0.371332631296382
0.371310001936087
0.373180315308936
0.380003773008137
0.384298035272845
0.391376993280039
0.398875988709029
0.409571718587886
0.423906525374228
0.43657377079485
0.450685328841641
0.468775897344266
0.484628788993603
0.506823817334689
0.524744467113241
0.53703579266799
0.554783760043627
0.57195196243671
0.594214481193603
0.611430749822494
0.626290500159466
0.649343936844103
0.662395733513602
0.67638993623275
0.693887642747857
0.70887311224323
0.729885726741714
0.742641868065691
0.746299019106322
0.767965036737547
0.76769532543857
0.783533803794377
0.795419695042318
0.808214932482073
0.816269921547555
0.818318278582206
0.839763159502714
0.833240838327185
0.835095825958911
0.85099816786842
0.831954365281872
0.841427751969259
0.845086593329794
0.836580217965551
0.853143925671472
0.857187419169226
0.855766811908208
0.857231136648588
0.85353879594674
0.853426548687786
0.856793338872386
0.860336300506705
0.864003530305125
0.868891059959473
0.880965306904986
0.892101891409013
0.879945380957819
0.890121730126191
0.904378617022428
0.910167131598948
0.906987361856074
0.939876395253475
0.93253209722041
0.92840271178694
0.964528086407142
0.978468734280139
0.979743958453716
0.989454177482579
1.00736856870225
1.0200000233698
1.02678963979239
1.03770703778079
1.05971650534987
1.05499487946979
1.07171623558151
1.07633022429103
1.084000632892
1.08491244922751
1.06718644291744
1.07934352087453
1.08285880065592
1.0874083189045
1.08169970712819
1.0578848634968
1.05755478246843
1.06733529376555
1.06998407996972
1.06714033066581
1.08227123627968
1.08616555169817
1.11196624629329
1.11090873612443
1.11342393854307
1.13551667956848
1.13494710470026
1.1904571120401
1.19994251055911
1.21677160862666
1.24321303069039
1.23766699212779
1.25958152666507
1.28034486495484
1.29833794105511
1.31190697176155
1.34975838362565
1.36176047006761
1.36339055129797
1.4072733054453
1.41561643067594
1.43433737045885
1.45561497965575
1.47185922953409
1.54520932741499
1.55414968135512
1.5543668465268
1.56758797792428
1.56355820698277
1.61705447802895
1.64739119789719
1.64898414637341
1.67227213082221
1.66610389076179
1.72105908085614
1.75471963525672
1.81447700999587
1.73362436159828
1.78212293591133
1.79648322151233
1.78978337355044
1.76501438102375
1.77777195085575
1.8495990819927
1.78933883877361
1.82749347277591
1.76311598034809
1.74954453339472
1.74180087466667
1.75807374507866
1.83971613441495
1.8098167299221
1.78587368265317
1.72359469404584
1.84286111144528
1.79788754573554
1.96699648910498
1.8282760228235
1.96713512961209
1.93883260868038
1.93845158108329
1.90788704413015
1.89792465414143
1.82321350236076
2.09715561467326
1.9610024029457
2.01408461397412
1.93652263852777
2.09211432381244
2.07021460497735
2.00840230948135
2.00646242670891
2.25371898558472
2.07817456405824
2.0376621619962
2.04774656329615
2.33806139633482
2.13044088628251
2.03299709054953
2.01514617977611
2.17206339079123
1.98355199449905
2.04381241717206
2.04999346076285
1.95855835167179
2.11349179052771
2.38683304617565
2.18529115737985
2.19186523407009
2.08328789187561
1.96065780578012
2.25395350674656
2.16648627981297
2.05474452858348
2.06437180228185
2.08312141749261
2.08403412076371
2.04950913722896
1.99481742864668
2.0236164188915
2.02479150302363
1.87466320420237
1.84191049928467
1.77635970639906
1.85435496865325
1.66819424420612
1.63556754212729
1.58139630125419
1.54637166448961
1.60169440232293
1.55660385620902
1.48286972110999
1.54955097367689
1.48984090513366
1.47419548481038
1.4848980966399
1.5305127697541
1.45271167582569
1.43443255425911
1.4154130954276
1.41752712229286
1.37933984693568
1.35785690088947
1.35610220960099
1.3496643547446
1.32674666864926
1.31135658404978
1.27984320918499
1.27550402909159
1.21206027186708
1.17585813308182
1.15204661783625
1.14288491881023
1.08348142317254
1.03700899180414
1.0063357694904
0.967986609502191
0.934366127956745
0.901338342510579
0.849130526795616
0.808837907961161
0.770699184670041
0.725406230834283
0.698873066147455
0.672198124672357
0.647800381830987
0.621522306836033
0.596772201280612
0.577742771304626
0.557996303588716
0.534320142355358
0.522434194950305
0.512521190165745
0.492220591468901
0.491618893200652
0.487742021575533
0.481490185700915
0.471363732831366
0.472628504829042
0.469468621917485
0.462491377067023
0.467398448740459
0.465064478514702
0.465420698107775
0.467582583272557
0.46948396011036
0.476870515002291
0.470053869736032
0.477251837250648
0.473121029625164
0.468822757033221
0.470257653533817
0.477058718489143
0.468640942751429
0.466152494875502
0.464822341259651
0.462807810603054
0.456548855025091
0.451785116868402
0.445430868201648
0.440265423792024
0.438600293245229
0.434460516627829
0.431954179619535
0.434052652647462
0.42795510254753
0.431214843818095
0.441668557475505
0.441770758140161
0.447457572194781
0.448893364077479
0.446031003994833
0.449671839916748
0.459268060597197
0.457360488024863
0.461292591989086
0.469204176239269
0.466970983590693
0.466130737039206
0.474116146063733
0.472598474132709
0.472925942903669
0.491319458217309
0.483296710564671
0.486104091123818
0.492157129175472
0.49130140465554
0.4901248434661
0.490636208883445
0.486003015194033
0.492913416137885
0.498769531600886
0.507592995103479
0.509599328847244
0.508656968216678
0.530132918283934
0.530252546741252
0.543397789754668
0.55946929109074
0.573475084818464
0.597405705097921
0.602740875352598
0.612929125931473
0.637143215894646
0.652420023704159
0.643547985513515
0.651475538264887
0.658109122757356
0.671423214642582
0.667368367135237
0.656334423599357
0.640571225906372
0.636305021583742
0.607506049951433
0.599830323623318
0.59719398458316
0.590896881243597
0.584914162561243
0.582590523164398
0.582178728341888
0.581569867359325
0.584808180767311
0.585159086720115
0.588229497125076
0.600272724560674
0.585027375392915
0.585544357009401
0.58867170663198
0.579133368212254
0.569675139470701
0.565431271867324
0.564319513844001
0.566694729347955
0.54105206772693
0.532488682355077
0.528270630204366
0.53932081355201
0.522412523480801
0.528987449980604
0.519389367621375
0.515363141046188
0.515874381059638
0.514958661487067
0.506367163830029
0.508064915710544
0.503666601111201
0.500780796297455
0.489139216105904
0.490701445318497
0.504312738329462
0.499392764470283
0.484340860243517
0.482623801262792
0.473202046206001
0.475622844000086
0.474837573711096
0.470223653020667
0.462057890574018
0.464685626460788
0.456493878597317
0.4618683471326
0.448058658393615
0.44655495223244
0.446854139964782
0.456672804907756
0.44746467446839
0.445403446526761
0.442646633802775
0.444752613761059
0.438375719442692
0.45741896166314
0.444987848001946
0.436074252442104
0.430900069448507
0.436837540220093
0.44153396388304
0.445130144888707
0.433198465645446
0.443499353499774
0.430334670607269
0.453977930493914
0.445857560715264
0.430951763669323
0.439151026360986
0.470288881537577
0.445933706014791
0.447234069048607
0.446225411266729
0.455144853686363
0.450776124341499
0.453581562852499
0.475411723108149
0.47735931734404
0.458565992539834
0.466265552984551
0.4636662930059
0.474238494538835
0.489371519165505
0.497703970454667
0.475324090217051
0.490741911613183
0.509637752844799
0.492638283610608
0.511111949927219
0.537113656640138
0.521649375911847
0.525198227569367
0.549446635268482
0.56007273640447
0.573118770459695
0.586266205809972
0.581672224374287
0.62429235400265
0.639208131238579
0.664041347162927
0.653520632635697
0.687925364652434
0.678917032723549
0.715608372263517
0.769615731443513
0.793006747621631
0.774826608754521
0.75800122068652
0.761422982379821
0.793879908297823
0.786024024220267
0.827404988704505
0.835516629208855
0.809678885382578
0.812925615862248
0.815448185059561
0.768383038845576
0.799883317527305
0.782432575326178
0.750451146692399
0.750144350713588
0.746750546562221
0.743720328613199
0.763861399432638
0.721684636168511
0.730458332230878
0.710639231150339
0.74329298178663
0.754492666800105
0.706469108400739
0.685993580312881
0.757100098028462
0.721600054613904
0.681407612602868
0.714976759384087
0.711192300111326
0.686578412145166
0.696942218124454
0.706314244968417
0.7008477313765
0.651885152471476
0.690142113125289
0.673057398276598
0.67006875615894
0.653925916087749
0.708578791100598
0.676773785846968
0.661031318763193
0.701486474804146
0.715905798524957
0.671239690316672
0.641467797179982
0.661960321330544
0.70093847143277
0.688592005888858
0.651561819621058
0.617144649511364
0.629390334113685
0.669940444869479
0.707519861153349
0.705556231593126
0.700274868566145
0.736752767407309
0.708214226429391
0.637264146636262
0.706795163448832
0.658623768100751
0.682423944427245
0.707478684325759
0.727409986637192
0.746745783458005
0.774849286452579
0.694312636475228
0.687986468241908
0.779330434888595
0.764154151652168
0.728810739755205
0.758640148914562
0.774016017329046
0.825340739982378
0.798568015899043
0.794129664488126
0.828215299321025
0.871057189296533
0.778769853860023
0.821690945556005
0.878512103614486
0.879184826842832
0.899882937563833
0.842472323435384
0.814157207757503
0.954670434496706
0.971654315238704
1.04274978605075
0.953733806590271
0.935205756813655
1.15423716289738
1.02276495078094
0.944276356548472
0.976616202564159
0.865547061657794
0.902259038984097
0.895748919953597
0.831299366498635
0.754704703255587
0.862160390415809
0.886228907852827
0.801031253601348
0.786949504482455
0.859255209673658
1.08455634328533
0.894488304242578
0.791312836935266
0.851520991996463
0.969139913095553
0.903359965839604
0.84855019314487
0.971508787654787
0.986364304747534
0.953503577072993
1.01828713153064
0.947265301834391
0.848579134545138
0.810297206497003
0.686774747115856
0.775207464776356
0.899562808295154
0.983348005273113
0.999477048102874
0.874038222612087
1.10423487369889
1.33547795434462
0.860301720552956
0.549176470997828
1.50424681098703
1.4616867994698
0.985886344731556
0.833227864237077
1.18919749139242
1.61960062206151
1.78858090995838
0.81759889994886
0.665943051892256
1.13442813953314
0.594286368789282
0.548512868866943
0.558874327277772
0.882975148025638
5
1.01518837210238
0.84866716842385
1.41841883890571
2.04714518197064
