3596
4000.36533379555
650.420452594757
1
2
2
0.072135293979367
0.0822909123704372
0.0729097823719025
0.076368494902887
0.0781384529070518
0.0782135904526287
0.0758365253235948
0.0763466695482466
0.0754573566087509
0.0724489614831371
0.0794221980903155
0.0779770445763454
0.0671082500012609
0.0724437755310966
0.0792599199820038
0.0738615046921453
0.0685836237178252
0.0686654903489892
0.0684089477254191
0.0694295198217556
0.0782438048105132
0.0654765860721937
0.0741955682096278
0.0695085000486896
0.0844539053452873
0.0753725234346142
0.0760088854728578
0.0768338873955935
0.0831087152521383
0.0859564278358934
0.0790505396843786
0.069792421617926
0.0814491079616328
0.0721047377184185
0.0655940190901781
0.078707943405383
0.0805017806275592
0.0732569033178794
0.0689098500000765
0.074323764025083
0.0843046715843092
0.0765969420907891
0.0795589639957894
0.0743204760197384
0.0677091956547198
0.0738131938888118
0.0776109677830909
0.0712126533111176
0.075748492251239
0.0733102014463233
0.0781690438007815
0.0708722775566808
0.0850724074242662
0.0882126023425792
0.0818284089395047
0.0880875474279139
0.0710385532207975
0.0805601681367472
0.0796028723051579
0.0680667358085792
0.0869140050655328
0.0881375400914304
0.0772157119156967
0.0731461797262012
0.0676594494639131
0.0709838289001871
0.0795802796206224
0.0631795237140371
0.064570006883628
0.0722498981773949
0.0698885168599975
0.0918447651471139
0.0731468266583862
0.0792709336921027
0.0814750175229396
0.0701036405728636
0.0764670364591309
0.0745707918294474
0.0649796910397594
0.0944187151013462
0.0870992362765926
0.0699603134856382
0.0809882507745491
0.0687239630076901
0.0809786176796635
0.0804818851189504
0.0717566463660144
0.0735953802656567
0.0898324862172201
0.0766847050425208
0.0735199162302154
0.0695363374499185
0.0675127850254178
0.0704043880180317
0.0689713906888634
0.0656333270767739
0.0687933881784801
0.0748957139745182
0.0701361658678086
0.085217071511085
0.0738187783916898
0.0953536397722648
0.0941989637226217
0.0656564038168425
0.111161582413113
0.0793000730572031
0.0609668980904265
0.10811363935075
0.0807102697460621
0.0724933545862672
0.0690287988540747
0.0672351428119785
0.0797590992952739
0.0822880945830168
0.052223158770131
0.0832896896786984
0.09089660023192
0.0701361588900089
0.0713892124472006
0.0669887472404247
0.05297882988559
0.0956085216399629
0.101751266643344
0.0765284637167135
0.0686582453113973
0.072068115191625
0.0647129152800809
0.0951209115282518
0.0884486404017348
0.0766128004433049
0.0605027875243814
0.0636750957290983
0.0617248750614154
0.0695464699526036
0.0930550588182719
0.0734380973006393
0.0668191534864102
0.0555771690672868
0.0769104719232118
0.107534345108206
0.0838281680440386
0.0709158739294205
0.052198640040882
0.0641412300436556
0.0885585947358695
0.0669134685636162
0.0677315792536173
0.0787369833671999
0.0741807059908546
0.0705716839642581
0.059733226250424
0.0584482367156695
0.0832985250050295
0.0790498319744079
0.0332693555798602
0.127302180265467
0.114073904903283
0.0882423872880038
0.106417176981311
0.0654014133055619
0.0670578438442765
0.0720072787049499
0.0716592649004894
0.0636199886518619
0.0693484520254112
0.0602276398306607
0.0761790447647702
0.0899469376384358
0.0799670681769189
0.0679884470495227
0.0889842422292637
0.0588236470535736
0.05711668765075
0.117744260009628
0.082059234894718
0.0661423256681314
0.0871324407819025
0.0832719129832565
0.0571901098073004
0.071250749437958
0.089333376985289
0.0679178795248032
0.0665531933764487
0.0614464805525887
0.0608855647973274
0.0772275858578469
0.066683697545871
0.0725022931550818
0.0670768118012377
0.0502340893076067
0.0673923912520033
0.120117789084833
0.0887030650386698
0.0777080256095473
0.0684370622170609
0.0416133994462857
0.105575328438851
0.0924921720831241
0.0640567858648696
0.063509573383785
0.0643108249488327
0.0617023923193367
0.0656660757967548
0.0701854234009277
0.0483611231106767
0.0376431443776565
0.107723465665271
0.0856567456858403
0.0687402953688599
0.0649916680888772
0.0625425757112937
0.0648566543679831
0.107681513257608
0.0895744610493693
0.0748753359658548
0.0606449436888036
0.0591835115942623
0.0738214677899015
0.0807251351330821
0.0708750118546128
0.0692501534124866
0.0656656457581356
0.0634487380402808
0.0685214227850641
0.0676589017372932
0.0623896245724896
0.0641335570814339
0.0680363181416614
0.0704349027232578
0.0612388884066982
0.0754507832080126
0.0644661985261677
0.0625215255887296
0.0613887359571518
0.0586805530777733
0.0761084321477805
0.0858274565747449
0.0656463452481348
0.0707082663834971
0.0572907652521942
0.0595859404686245
0.0644393634614151
0.0637988708785692
0.0664861244636859
0.0635484390063437
0.0686890942697495
0.0944006307023503
0.0717774523587371
0.0702471314138212
0.0512182814376767
0.0868173717721977
0.0807566676312934
0.0703308894929178
0.0587203038948338
0.0687668561023622
0.0575816994871415
0.0621053344700635
0.0970790661378892
0.0711688722870598
0.0527178197760449
0.0746438160630817
0.0773769469634262
0.0624866282965889
0.0531200108403311
0.0529889375080917
0.121987570403238
0.0645043368676387
0.0614367541894188
0.113642282530505
0.0767109198543322
0.0749014723582638
0.0658704913680834
0.0412796509065633
0.194283983258643
0.116598983988296
0.0620653626875159
0.0610378798391618
0.0884042699411203
0.0644729170740111
0.0719794531496423
0.0670529896133458
0.0799441803202618
0.0804397350722359
0.098302396172722
0.11588694073249
0.052187842015159
0.0888716495261177
0.0868139988819544
0.0802650104822803
0.0680424946174699
0.0670769120928441
0.0583830573351487
0.0806987565350058
0.0820854069607426
0.0839646337270002
0.0693107040296603
0.0670852377615231
0.0940232249945225
0.0868120432951551
0.0602633215581993
0.0741528082356578
0.0747385988837201
0.0655642899575354
0.0643827528960336
0.0687430764749234
0.0749745146072754
0.0645919394110084
0.0694073555311266
0.122930556089886
0.0773218323295027
0.0748342986967628
0.0899947162119676
0.0827833740406792
0.0651232840196425
0.065657607596658
0.0709490871364942
0.0677495827528333
0.0652963759721653
0.0598090482145539
0.0958653790182448
0.0765800781346876
0.0800989427871599
0.0718548725421557
0.0715005588462529
0.0719894223480275
0.0729664623658837
0.0679627073257321
0.0786593082789515
0.0770237863067108
0.0620080738968008
0.0935607787292088
0.101986391709094
0.0556627892819214
0.116321533693943
0.108303306896029
0.0733921745411984
0.0783980596732269
0.0814405738353086
0.0779246879847091
0.073942637778197
0.0800896398589903
0.0801025502528915
0.0827326396569133
0.090462886972163
0.0931699732294565
0.0851717201926365
0.073738104546578
0.121107509976576
0.138146262791132
0.108821415759793
0.090454238426336
0.059070124189541
0.122546012311155
0.106200996339101
0.105888545447838
0.10348989723168
0.0915981201143038
0.0955878949933423
0.0952089795816102
0.0959216503357002
0.093411011641207
0.0988549868625083
0.0932798518865213
0.10103825683032
0.0954532538198379
0.102209142337887
0.0866112557019507
0.0978839287081943
0.127866577776526
0.115462648198516
0.107213617070174
0.109922660897762
0.0999154557648428
0.13199970498524
0.126625246164895
0.161449107390833
0.135347678483088
0.134858652727833
0.146800956603456
0.123915005697158
0.123622513574844
0.115943661139779
0.12402312067499
0.127455287010924
0.132507537678697
0.135649856076381
0.12803468337129
0.131393577788559
0.144717676990012
0.137285772567512
0.12790564987992
0.132806096282878
0.153224498131548
0.145044343562613
0.152850622792219
0.138210341087426
0.161622725796443
0.19046829127551
0.181739451574844
0.156298249697931
0.164872317767359
0.155430113791217
0.156494258036319
0.15925547960859
0.157335029023961
0.166313817929417
0.161359946923629
0.196196391708217
0.187936463943246
0.19598923237212
0.194489294513266
0.180383913707707
0.191761351282722
0.192173484815588
0.198512722317785
0.197225096283177
0.19615064323097
0.189953820167488
0.229059231624796
0.204120206950933
0.201280276922645
0.227833335093763
0.184890746434249
0.205340341348934
0.200856630334012
0.219062551556748
0.205381122158271
0.222175146566124
0.212717806958566
0.23314112228064
0.212107747500742
0.230014306486466
0.232206183714118
0.246721171900207
0.222501747531412
0.228734326424441
0.255901816140667
0.233336578082628
0.237173894242643
0.25100017658938
0.268723745058484
0.266479380984057
0.26378177841154
0.2784453574789
0.246076685030817
0.263059401984724
0.260408769458251
0.26162056945424
0.260400666716127
0.276366856974361
0.276809713916787
0.265252504413391
0.277080237670546
0.287663939655638
0.279999444397728
0.295472260784281
0.296116270467392
0.287750679930331
0.291944920935867
0.299206858283317
0.29607956458707
0.308106903163854
0.323299582514605
0.343428163103796
0.314279577174114
0.34507475832669
0.312583832161072
0.332234636202949
0.331405428193916
0.344771483403912
0.329693525078064
0.349821574772014
0.327780866965306
0.363204911925854
0.360650021659162
0.372628430488735
0.346972714962531
0.371047597044676
0.36453945519713
0.383821906199458
0.388560673582349
0.371642751933962
0.388772873156685
0.403544854558757
0.388563347215807
0.401850165851143
0.389503942953836
0.432333335478859
0.395431676418991
0.406701222113122
0.380890648878734
0.406072060936555
0.434435589036838
0.455422790186827
0.420496358409782
0.429216843404842
0.437703310256815
0.463404041193416
0.426570635864235
0.429949760481422
0.445809509622821
0.443824176410335
0.450937481576251
0.475982656029467
0.460184598172425
0.493004897345227
0.467423192394234
0.485767176199482
0.484046638148012
0.479986144425883
0.476458658295413
0.502624808460904
0.487188604290652
0.523262714132034
0.494996253248542
0.511941114284377
0.487822321514066
0.535449510571838
0.507951758789793
0.523052518831801
0.494121086727197
0.537519234731777
0.535321412581319
0.560403354978802
0.55315562834837
0.578243833753545
0.557229042412235
0.572203493597148
0.527237756824556
0.543437681649235
0.56201488639515
0.569570569382426
0.569216685084172
0.609727365046371
0.569476257458268
0.600487176313066
0.566135692716069
0.615271585946302
0.596459056522167
0.601566865029406
0.596730479168762
0.63444299075477
0.596221024225276
0.603890680832282
0.634553855050543
0.627614034748582
0.63099460121558
0.639064736036982
0.617322664169878
0.652107520148739
0.656346835582186
0.654982380520171
0.690005722975558
0.665675344853266
0.65428817827852
0.694780933318883
0.673410014678768
0.65920382270304
0.67255880522187
0.672752304601188
0.643190659999021
0.706547165677136
0.716557488780913
0.687996807256577
0.692760756780379
0.744842148860971
0.69089440318258
0.712390079156683
0.682676306736582
0.722374425251534
0.704871794760559
0.751560446565678
0.736350638757962
0.770992322642374
0.707431520399018
0.796751113912056
0.729452951207828
0.776300955837139
0.772606075877328
0.803580885994455
0.735753503650008
0.781201357977575
0.799220300575423
0.810924421869989
0.781134681328041
0.833392003543944
0.758128567239551
0.806936152548901
0.77408470310497
0.83140860611684
0.795601791294865
0.812032909546759
0.772602453795128
0.833228767392551
0.789220973208983
0.863891493882076
0.812332744339667
0.843648984851468
0.854784834947825
0.82659895680763
0.863163350270002
0.873801743591284
0.815815442479187
0.934360085082212
0.852548815535213
0.903257523390299
0.858226609273614
0.954987791688865
0.907808704765456
0.922114021631119
0.825384322035839
0.909456664189733
0.861931763605454
0.913143602499812
0.890917061189434
0.936275399989907
0.949776738604979
0.929160657864523
0.879692309341565
0.91368915177324
0.920275616299889
1.00468015287757
0.952656814706744
0.963413306325356
0.904972907862432
0.926193124224066
0.948359813238028
0.949372810862483
0.943948670229209
0.961492488041151
0.923081262261371
0.989701715301559
0.937002919818605
0.956640633539639
0.999847853138131
1.03446011728942
0.972097981112454
0.988060866287118
0.986381320623791
1.03598662096322
0.943144297199969
0.951817516851898
0.987412176357047
0.973952823928259
0.9913881220289
1.03298404655479
1.00829065138889
1.04055306798147
0.96078906789834
1.0066988283401
0.977837052764515
1.02329665204384
0.992392407966814
1.08715329581745
1.0567602630359
1.09640647952284
1.00098101986117
1.02765852806627
1.04566925638044
1.02300875251745
1.01136807977477
1.07084894279724
0.990887679373551
1.12415525069011
1.01568131526805
1.07607727997957
1.1257150656581
1.11853400683444
1.0176256008951
1.10613304261955
1.09915821338585
1.06624002073227
1.04317070888215
1.14584202075439
1.01521867739866
1.03880549148393
1.0613742798341
1.1605397505227
1.08392814307965
1.07585076883773
1.03931855747796
1.09587943605999
1.08435277670478
1.07061045848525
1.11641719249315
1.12605042725328
1.07480719709777
1.11962368068093
1.10619470880848
1.15048338984121
1.10438835462415
1.13171119858943
1.0689649813079
1.124642507447
1.00869361143113
1.0990319941374
1.12638631248554
1.21209563525239
1.12903348147616
1.16824195923905
1.14477498604747
1.1340346673748
1.11962705607537
1.10821671783311
1.14644622208116
1.16933625194973
1.10556386518806
1.17704092132064
1.17108195201559
1.22013853787947
1.11774519653814
1.10739372708189
1.16202744704122
1.15910780660181
1.13910678018856
1.24669433824892
1.18019111414715
1.16569959547138
1.1569851639732
1.19428569499571
1.18216867889311
1.16971243415707
1.15441601825211
1.15855822954502
1.09914560727766
1.16719256994071
1.11710672422337
1.15166771622557
1.1127660057307
1.16054284712701
1.19506331085752
1.16374154515737
1.15909978880094
1.19235532355012
1.12208989988799
1.18832460064808
1.13108464985394
1.13196587254394
1.17519109104249
1.18008074951198
1.10101285020782
1.15383771551711
1.13757166694144
1.15212345117804
1.16623605319217
1.18300991561742
1.14652045991525
1.23366819264783
1.20252188321157
1.12454587445218
1.10774045369633
1.11175629190889
1.14224588451476
1.09145961450157
1.17556796344638
1.22030532643404
1.15412450493431
1.16954811663177
1.19734752367706
1.28251891547886
1.14038155314268
1.1836871217755
1.10413962051021
1.19724356752213
1.14662012217684
1.15724766059986
1.17834723506708
1.16717973288841
1.157071802821
1.17411095228601
1.11090611173162
1.21536332413165
1.1838998443239
1.1007648148957
1.15250100424773
1.17639134700623
1.12144644583429
1.09707841937004
1.15875133314899
1.1599876155977
1.10378051910598
1.21209161201006
1.14997692288274
1.1263715041571
1.13704123295943
1.1586229292103
1.11488805057889
1.16364041348482
1.10757477678334
1.12924884197942
1.13714839449981
1.13160735049421
1.14466374345921
1.19027349573132
1.11600413744737
1.15074354205124
1.14431151000733
1.12845831878828
1.12147930049461
1.11176513977194
1.15939606401401
1.16067366024359
1.13615902921743
1.11295880953276
1.11504238168666
1.08374359704605
1.06067924463446
1.06200274977531
1.09929490099184
1.10367105620907
1.10959508251701
1.15368329023746
1.08529490093003
1.06400965582241
1.10723270866313
1.13027355697951
1.14655785212041
1.15090820839802
1.09524056714187
1.10949583881721
1.07708287395177
1.17297202152104
1.11875276183833
1.08813233235427
1.05292427940722
1.06390314756289
1.04390185921099
1.09112480784245
1.08006033071047
1.11198650577934
1.07109530743782
1.06735889257302
1.07861034221891
1.05237679137509
1.0228465482161
1.06173215712675
1.00546828348098
1.02831609166451
1.08281138573505
1.07169777268404
1.08099686538272
1.08637151474828
1.08276757116439
1.03933023133871
0.999331106453255
1.03549939969351
1.05051846087553
1.0244064045185
0.991128498451308
1.0246611640888
1.03682881132875
1.02304912145213
1.00275170384389
1.01842118797474
0.976332512914478
1.02153586736931
0.982396640178041
0.976927075629122
1.00239437050026
1.00367005022827
0.992148302370167
1.0078905416729
1.00515015892571
0.9827383513124
0.961610050908335
0.989098477537034
0.989999600716442
0.979466562319874
0.972006023043485
0.935221816449246
0.961704498974853
0.9328741006683
0.93146107076893
0.939627337873479
0.953997523384422
0.96016433196379
0.956903871337325
0.932936526191286
0.922225774749368
0.952815016941565
0.899809246395916
0.937894548074432
0.930880607044871
0.893766627521348
0.879461254665433
0.913048340778021
0.943590651137551
0.913852039430298
0.896390625325628
0.886231027705198
0.899168490545707
0.881786034749642
0.888456604070972
0.87457524587872
0.864690591822899
0.874075674134631
0.865151872511264
0.869508387081822
0.850433016502095
0.849401379391465
0.847328756405374
0.85572183801749
0.838956711705018
0.855185957366208
0.828712477608941
0.804914065828989
0.816910150782865
0.819037554615492
0.823737628404745
0.821457460459932
0.845938333326488
0.834472831855493
0.811958913467015
0.785303611825594
0.793951468624762
0.802105652028469
0.789240868059645
0.792439783692356
0.792575201049202
0.767938056409203
0.78102482189245
0.77186453527965
0.760367756801686
0.760792119797648
0.758522771124869
0.769852441868522
0.761699060389481
0.750300146543567
0.735861891937917
0.7529958447837
0.770445487125394
0.756396400514488
0.751560651120759
0.735869603269544
0.722584478521407
0.727554549356543
0.743578254542441
0.72132928410736
0.703153833558757
0.720020383024536
0.715027854497831
0.68987333148399
0.698819080845065
0.699608893433039
0.696352572661823
0.702443709792138
0.697371453889315
0.678038262702199
0.676892882153938
0.678650148060943
0.687230534198256
0.658510633685921
0.667104164255507
0.683646002103145
0.668150436217169
0.650874949238209
0.651167520548617
0.661667099363487
0.653040907912304
0.651385279208089
0.653728215865088
0.642709593908206
0.645948745146785
0.641237972442092
0.641800783412285
0.641260081170173
0.635571505368025
0.623913962766463
0.625665573168585
0.619456075381104
0.611033766689736
0.604830246669619
0.606439746349105
0.609748687803492
0.609012855666362
0.590334684807142
0.602215277517491
0.597161528691916
0.591577767762007
0.596747910560254
0.586675723652772
0.588188189502563
0.593434306870091
0.579449076202958
0.589018052692582
0.571983412730942
0.563688830971859
0.565457228156013
0.568226929302756
0.558507667926507
0.561367281618272
0.559065100983585
0.571807809970606
0.554873573259266
0.552836116054414
0.542426996048859
0.533905905092405
0.536130383188436
0.542150363688667
0.53043340869336
0.527568266544617
0.527819748171293
0.526469755166509
0.535859129440472
0.53437206374509
0.512534846524682
0.52783676941838
0.51705987051043
0.517521950926217
0.521653315640038
0.517852094611062
0.506977037192324
0.513849970460827
0.500276771913754
0.49754523111638
0.498908532230802
0.507429817579337
0.493150874955205
0.488589606262461
0.49005975144694
0.499825745600232
0.484695020736195
0.48535383039434
0.48106324033606
0.472657899081486
0.470395703374548
0.483869438180855
0.469090922960352
0.471671419283126
0.466118154835017
0.468845754696446
0.457085526788418
0.462473084525994
0.460663188125758
0.456125651837451
0.458027602930817
0.459508649958133
0.448686097220056
0.457312329915717
0.446935277251438
0.442067127822341
0.440927807566653
0.450973897803111
0.435682173632252
0.439213546466719
0.434670709140168
0.431743013940582
0.435596246280727
0.442400048486491
0.428176672813059
0.42695890505554
0.421113241765671
0.426298265260049
0.429260494307535
0.427177340131009
0.405878005402074
0.421417943445176
0.41811459055803
0.412553825711923
0.411040691158823
0.416825800548066
0.410027517457691
0.417839438018957
0.401035949569617
0.413196110791667
0.408440714218605
0.406778593077269
0.405900052255453
0.404956276810897
0.397065217070134
0.405226928872109
0.398448570149735
0.402900678995281
0.390321835552407
0.397619595118077
0.397787197097146
0.405690129025915
0.39927266800356
0.396036127890447
0.392590256625544
0.400428555829504
0.39471186931354
0.399937908728897
0.392201897305675
0.399713081898382
0.400778303762066
0.403483368123578
0.393844382561177
0.398445883004353
0.396454771269676
0.401590071287439
0.393437713820603
0.400305227030018
0.40315659079785
0.4074550560053
0.399832435384851
0.411389218987582
0.399797620213715
0.403385610335277
0.406400439215951
0.414871662044195
0.405850249860434
0.416854325138191
0.413841636245944
0.42206646814502
0.413137900210057
0.421361092004344
0.418674305947102
0.423974428937481
0.419198945789274
0.43348126530244
0.420612481410107
0.424154480855628
0.420635372339451
0.428734151510728
0.427397471178073
0.432688757579983
0.432829578875615
0.43649229989124
0.429176229080815
0.435097003926533
0.444926810141759
0.453006000429739
0.447506771866803
0.458431378986017
0.44844719103392
0.462582001262095
0.457211678904007
0.469826086839231
0.465298786769166
0.466258857814885
0.465576608130488
0.476765707260479
0.472076506555702
0.487456853240157
0.492971050719084
0.48903845458914
0.491626895846958
0.494302877529219
0.48327516590007
0.503837384184697
0.497429871724291
0.509548499370318
0.506485006425181
0.522939241420918
0.514160380618233
0.517933667805523
0.514824446269196
0.518515325647692
0.518389771487771
0.52732560995817
0.533700566207774
0.522650474630656
0.511791596324829
0.526179553154577
0.516054877521139
0.528290305175683
0.514247708231178
0.522414611443068
0.509876708056832
0.51898903335169
0.51871707746706
0.505070901946968
0.509887497031565
0.528201060508602
0.507134378762085
0.509553246146825
0.518288504847476
0.514950246050072
0.506686762083741
0.519543035839466
0.509059432894461
0.514609522414605
0.515686258163439
0.520811050631771
0.52175659709388
0.522021345057081
0.506962799558056
0.532521033953717
0.526749270679596
0.511212065819834
0.512204410845442
0.526277476031506
0.516401142758299
0.532105623784641
0.512698853968538
0.531150736988329
0.517869346129351
0.525481122428928
0.526149865946552
0.52322636936857
0.521062429130101
0.522041642084066
0.52085316408533
0.524585341368177
0.516297482644622
0.52300605932607
0.527833812503852
0.526406980977576
0.516465238786713
0.523633559994888
0.521867098029755
0.521205399653358
0.511670777450583
0.523330732605973
0.501392184585874
0.516651201634038
0.505619427001671
0.507443632367622
0.497545120411061
0.516861733906788
0.510656419973977
0.513252880885607
0.503385860161559
0.50287156648959
0.488712581796832
0.494909189863313
0.481801152058705
0.491765424852232
0.477877249493458
0.480699024486201
0.473033274551402
0.48185941700737
0.470284668288671
0.467996475334352
0.464819249104614
0.464964257943458
0.451925619755591
0.460103205320367
0.450082007774402
0.453221410407961
0.443092024190537
0.449345537016041
0.443288451710955
0.443104116845134
0.436201121510783
0.432455983001366
0.422929029889666
0.428928762321671
0.418818430333085
0.424644591946622
0.424896097194556
0.419476591771261
0.412912514774486
0.420658656246931
0.409109957992506
0.41021670952514
0.405754727150437
0.414619688823444
0.401040619299777
0.397511496816123
0.392584055367064
0.394234101909958
0.393408544149654
0.401268733335435
0.390159265699219
0.392994946492884
0.379965201896357
0.384712770295339
0.381974377279983
0.382120514222021
0.37391906229704
0.377917345189963
0.37392747757277
0.379590966559423
0.370641156439626
0.381530059105037
0.364344194330085
0.371551205320117
0.36706936342745
0.371994591878629
0.368431115732647
0.367158689464413
0.36211170450657
0.372297790563935
0.359406443609742
0.358367508399135
0.352724954222629
0.353337807789506
0.348740389552787
0.355425312686437
0.35269732950639
0.358230203353742
0.345081519471147
0.354398170385913
0.346992763068743
0.354138555316439
0.346320425472607
0.348049954607107
0.340166472997977
0.345599496878653
0.336040512271516
0.342753418342827
0.337403027019874
0.34225173736914
0.328150722523181
0.336220668227163
0.328825279862701
0.339460204076797
0.331270856497816
0.32987674985149
0.330119147997876
0.3296545587985
0.323631069519259
0.333177967906413
0.330862575742634
0.329425430214809
0.319013246391262
0.32663228698746
0.320041716900119
0.330302861753397
0.322143909140571
0.32428930532803
0.315385153492242
0.327930295819571
0.312979396644508
0.320364047791439
0.316067677039366
0.328469616106887
0.30735252669355
0.319775889041256
0.306782829002792
0.316348519438471
0.31515376975633
0.310460551589234
0.31038358715651
0.315895522191237
0.311171337282711
0.314149419066505
0.300987794909624
0.310903161595177
0.307871557300759
0.310096822422239
0.306869701253984
0.310874599200654
0.301027650836486
0.306624583240496
0.302045440460732
0.306169236066065
0.295713912544188
0.303663834726628
0.299934104172048
0.299300613892856
0.297454595805324
0.301742103626341
0.29718037838179
0.300602590835583
0.293672359996809
0.29981790136893
0.292449452080445
0.300512969183186
0.288902413376155
0.298962394489074
0.299352779302397
0.299953925406768
0.296021518147779
0.291112732096826
0.288673402404428
0.299379751442633
0.292432975511462
0.295161699753596
0.284107612539762
0.296620440325701
0.29162699535567
0.299730880659294
0.296529560665413
0.295422254700324
0.28829876063148
0.291813125234672
0.285571901053579
0.296229341662662
0.286785452346005
0.291101640454815
0.283057707874002
0.293179520424783
0.282281980890217
0.285067245871263
0.284666128800917
0.289238847101344
0.2810328092939
0.285668784497243
0.275146406939077
0.285255359085688
0.279786207312565
0.285886650095907
0.282948837536001
0.280884706939669
0.272657991998995
0.281035655375519
0.274080134314358
0.288110003380615
0.278474683037928
0.278356863725511
0.279438872980777
0.280438370737771
0.272959405201167
0.276326693757397
0.26992704802616
0.27699547781211
0.271594109471624
0.273958413427689
0.270174308060983
0.274317275647325
0.269924608448299
0.269545569135498
0.265342593224799
0.276248056633158
0.264576805526327
0.266790910678924
0.264784257079374
0.26811766306787
0.26612667109493
0.262517876964811
0.261658131859549
0.267734893509437
0.25636041630102
0.265250707890201
0.260866874405141
0.26240448981088
0.255746470381385
0.258271263833179
0.255698261284615
0.262101927144589
0.256924837776626
0.262955358860676
0.252770309942329
0.263348230030295
0.246359616710899
0.259430989099564
0.254999890125157
0.254694365422087
0.249092632893192
0.254210844451072
0.247265480674414
0.252998208647754
0.243557194171366
0.250093019777569
0.253327251604855
0.250774797247071
0.246417193950013
0.24805136089048
0.240377034311342
0.240099866379185
0.244247284339001
0.243164293062702
0.239349286435527
0.241606472923902
0.237657541509634
0.239269964547817
0.231871286010051
0.238864427729706
0.231375150711564
0.235603607458656
0.232176445704665
0.239448425099241
0.231171307071128
0.233886349445416
0.227109428993143
0.229480730100402
0.22862864841092
0.227285893022601
0.221379743572774
0.229521624906617
0.220180355620948
0.227085362977722
0.217594911522366
0.230994992140762
0.21899312920907
0.222915285491512
0.220891167748718
0.217441367769564
0.217240655575356
0.218206407516123
0.21657331918256
0.220342959714006
0.211763367273573
0.220145113239744
0.213864656861827
0.219781165139909
0.211402545806112
0.21917524154682
0.206848590444606
0.212169883866681
0.204961403870763
0.213192876695114
0.209780283643078
0.210991706036358
0.208783567314065
0.206796129493823
0.205953158686597
0.212254933127629
0.204504319343641
0.207743457415308
0.201937624692013
0.206509439411076
0.200637868253746
0.206217749987623
0.198473129790696
0.202791028817988
0.197681022214112
0.203150079284797
0.196186325779672
0.193839739239599
0.19713136832721
0.203979210007456
0.196698494746095
0.202478855817557
0.196385192515926
0.197619067817361
0.193148307601951
0.197960647587826
0.189222329791904
0.194826390346996
0.190061815020606
0.192872242416393
0.192506607158856
0.193105146451917
0.181070030685644
0.192682503615684
0.187098048365904
0.186989441626227
0.188184186843067
0.190104216765059
0.186432530943775
0.191379367986734
0.183991824383454
0.184773110528405
0.179922758340627
0.184391754468691
0.183188898569573
0.184101529317552
0.180311490901576
0.183773987689068
0.179059133211842
0.185463894581504
0.179859412535522
0.183216350414577
0.178006427240059
0.18410528595475
0.177843372553079
0.183544821053761
0.176710450829809
0.179311023321533
0.177478224755365
0.181091663093663
0.177469423372536
0.17888294399496
0.174675275709134
0.18031762127457
0.176817384899076
0.177591713759384
0.175283667624354
0.177945225858816
0.174721136096486
0.176959129727048
0.17257296413922
0.183496633264695
0.171737715329368
0.177226119954441
0.168131094166525
0.172339668972908
0.171790853339532
0.172885500425728
0.171195208513434
0.17478364754398
0.168965852280649
0.174258404997092
0.167661529931685
0.170327700373327
0.168044431908357
0.167672586467299
0.165426718890802
0.171258146728465
0.16658821686372
0.170364570851801
0.164371436845444
0.168151036122798
0.165709546568884
0.173510156696863
0.162834758258121
0.165405785497836
0.164008424139026
0.165656583815941
0.166088498748971
0.164311757495251
0.158294896199716
0.163057755301578
0.158409282043611
0.16206376042559
0.161163522739137
0.161701833158929
0.156923450203965
0.162483590467701
0.156417416204448
0.162561519380693
0.15804712100602
0.160779818493426
0.156686084161164
0.161894986552773
0.156225426441915
0.163558841125441
0.153274173988571
0.160276058390265
0.157977206375559
0.161472185763769
0.155134453294098
0.156945686170336
0.153772589489682
0.159462538204231
0.151574344234933
0.15568401537625
0.150846861151132
0.15888617951301
0.156245399979771
0.156042870758789
0.152470364017126
0.156583891777814
0.150246385685777
0.15841794510791
0.150702752985334
0.152216632796399
0.151797111028715
0.150168689096223
0.149291456805041
0.149352616393105
0.149730443663846
0.150794433367852
0.14790136340382
0.147803222431816
0.149044832436563
0.148194983359248
0.14163223075501
0.148096244842531
0.14196833315147
0.144109133146226
0.143091068636003
0.142188426950653
0.143640649175369
0.145009205864764
0.141879698167644
0.140186738488688
0.139506673788815
0.142622705642364
0.135880282159437
0.139244673588171
0.138109082862821
0.137509274132628
0.133675253619199
0.139467127997411
0.134385214555766
0.136263433556505
0.13076856247027
0.133933524578673
0.132453495756427
0.134739510142437
0.132821700938841
0.135207067269801
0.132876751622653
0.128768214324677
0.13448522416815
0.135472414877012
0.126485187329873
0.128755159121577
0.126891062076488
0.130831189812402
0.12633614938821
0.13053052982197
0.125928652410859
0.131729491761616
0.127011162723288
0.130111459100695
0.124761068589433
0.126635496942261
0.121532082408962
0.124113956376909
0.124832498326443
0.123451195702352
0.121992533305946
0.127277476488811
0.11995004912953
0.124180027593372
0.121503716997048
0.121168866984183
0.118453154411832
0.120300324280418
0.115862721113522
0.121656486129646
0.119752183572869
0.119860135311499
0.111012691001322
0.117448920084948
0.117956616535214
0.116678340114132
0.117206962050599
0.114081018495685
0.117352696578391
0.114801875241465
0.112045968821974
0.115945180511671
0.114105694590636
0.113467871797786
0.106913293624364
0.112357303713066
0.108843804497111
0.11295153249065
0.10913246094667
0.112662888893486
0.10827550861897
0.107959124817953
0.105218614886988
0.108530430629274
0.106185985131659
0.106830267735371
0.10758565639682
0.108284762522272
0.105582018280651
0.106990342633918
0.099665825437871
0.106036478283899
0.104114341827725
0.108096823616085
0.105881101019545
0.104438238605683
0.102873754649298
0.103514625328955
0.106230554233276
0.105939827371652
0.10089542069219
0.103970507400664
0.0987582467091522
0.104706403441709
0.101996969584925
0.106177372253787
0.100263574979216
0.101975852148344
0.100883639373887
0.104073323734108
0.101849933357331
0.103814212186058
0.10464703171765
0.104736276566641
0.104600021062614
0.104408555497873
0.101337239421794
0.105791363972047
0.101110763890894
0.101526330040415
0.0982581502496145
0.0970361002059028
0.0981912283395037
0.097710505371566
0.0992641728020246
0.102644071440508
0.0944614391243717
0.0963166178265432
0.0970246006195028
0.102475820936698
0.0902968504881771
0.0967494697037466
0.0934078524939942
0.0903823477037397
0.095127396260138
0.0998436571397333
0.0954789086842519
0.0986622292893264
0.0941682533169656
0.0944907669088039
0.0959522623974483
0.0914258735426017
0.0993814982900048
0.0963181075286572
0.0950886880445778
0.0919147852002339
0.0963113574596725
0.0902647800064717
0.0973354771926302
0.0923319596317879
0.0966782406509075
0.0937525543347744
0.101522597563687
0.0977063447451389
0.104686775807096
0.0929746790129131
0.107395613478977
0.090508805502292
0.106698854761832
0.0898980829063022
0.105016731685658
0.0826293849022765
0.109447176412629
0.0850959505240466
0.112983172411184
0.0781702175423675
0.111614299763729
0.0747750294121049
0.112670236440698
0.0728367407086501
0.112606225084924
0.070695655361858
0.115282462187494
0.0780193527213633
0.112372558759814
0.0831707049153671
0.102539109591534
0.0880558234036319
0.094664235356563
0.0934407507494363
0.087242529791706
0.0972146424652528
0.0794746318513422
0.107382990147075
0.0804207505020611
0.104092331134493
0.0789243269891257
0.0983286872323229
0.0816714918604219
0.09593900997267
0.086002547476971
0.0898868695001664
0.0890117705824078
0.0867241807561845
0.0893923232059875
0.0876922897147158
0.0853760971256755
0.0878789229082664
0.084953678079608
0.0902815734017788
0.0823862480918679
0.0884895293837203
0.083506559211595
0.0904446151095545
0.0844314172186929
0.087959849465966
0.0838956998869961
0.0862556845257928
0.084155336480018
0.0871692755802995
0.0820397626330002
0.0890597533249743
0.0849983562152196
0.0877868704984716
0.0849467102517216
0.0869119903019416
0.0843155361574377
0.0884274719384803
0.0815747828450626
0.0891452329976368
0.0830706538288626
0.0842072444460211
0.0857428222934848
0.0849370666536508
0.0834550699642407
0.0887912431091702
0.0835520483527739
0.0886534315186816
0.0847894937501882
0.0872590087892651
0.0833256579676063
0.0865846022588454
0.0829729252760621
0.0868380165800419
0.0855616730938241
0.0853804698100152
0.0850911924377235
0.0891805765475332
0.086368458063926
0.0881174709617328
0.0859901200889887
0.0881329171492787
0.0823042543432309
0.0857050369817637
0.083685249676326
0.0860809167165715
0.0857566610749423
0.0894637531180758
0.0828669034474819
0.0867749160188825
0.0836271863243641
0.0889353300255345
0.08336693285285
0.0860051359177755
0.0842185192283932
0.0877052691573224
0.0841583865305183
0.0888255085243621
0.0848281345205875
0.0855108339351372
0.084834771053155
0.0849527107662627
0.0835700349504834
0.0886307433571255
0.084386003192521
0.0855415009320279
0.0857644286141147
0.0846323682750697
0.0850111312551832
0.0881359293056188
0.0837097103097328
0.0859956033254355
0.0838155902952022
0.0857737420448093
0.0826237330131941
0.087413696983935
0.0870653853375729
0.0884097029950605
0.0848355165580301
0.0886255071833924
0.0856543604131639
0.0857866809186788
0.0821322544022491
0.0881275421610102
0.0849975977057888
0.0876359588702157
0.083834495451552
0.0888467560271708
0.086165731020459
0.0902355892923311
0.0879184266303922
0.089303077457809
0.0877688159931779
0.0888707363738513
0.084717180270605
0.089285948004306
0.0884778297098186
0.0905613848324895
0.0879936352005798
0.0932481754262387
0.0848498351105614
0.0914793698922495
0.087614679722515
0.0872945289894684
0.0865523209974179
0.0889986027111235
0.0883113164131048
0.0907225636325409
0.087773080265973
0.0911299712884367
0.088849849195275
0.0902047175910122
0.0889746001767464
0.0886833417184092
0.0870232079761352
0.089783661110079
0.0867138770266325
0.0913967522107522
0.0874841356018743
0.0901528926413938
0.0879683227974175
0.0856124747867728
0.0860755766954961
0.0884188334322251
0.0871817399772086
0.0907775655080941
0.0861984539934046
0.0901434609224166
0.0893460356899828
0.0893927493999329
0.0930629212210239
0.0920915940425003
0.0895287752092236
0.0925072386766094
0.0883679988689614
0.0905807036747394
0.0902141760335498
0.0924566306822743
0.0895762750061461
0.0917018378162464
0.0904897371048915
0.0912405364030909
0.0910671919140756
0.0955085717565669
0.0939284399097828
0.092479437463814
0.0915816022744326
0.0927003377352169
0.0910773319005518
0.0931563234172246
0.0912778159797318
0.0961270406537304
0.0927705513640972
0.094165878183844
0.0920347828527741
0.0937037716116303
0.093433582490444
0.0959886463845083
0.0938443751983215
0.0945075129492078
0.092704807528236
0.0945296549058473
0.091323217966686
0.0927786005362888
0.0912358103699962
0.0918312887079259
0.091978890747304
0.0959076415219008
0.0919263665047109
0.089828128268246
0.0903265612855738
0.0935415758659045
0.0905866855836581
0.0936187080558737
0.0902946821722681
0.0900991961391856
0.091143967955353
0.0910662103545771
0.0869768983767686
0.0918742433846821
0.0882176404297231
0.0914633351563677
0.0893426053385682
0.0894636588460809
0.0886208300569932
0.0918921952631516
0.0889007551171622
0.0874683541964611
0.0878691586336001
0.0900133146212651
0.0866884833436368
0.0899142616718525
0.0856832342400174
0.0885175244590489
0.0871238589521359
0.0908471012631545
0.0880809161473658
0.0887087620229862
0.0853666139692481
0.0874916809708369
0.087253786698769
0.0871531830153646
0.085918299818668
0.0880883380892611
0.0852201724967238
0.0889893888620047
0.0870846683243425
0.0872645268593987
0.0869687759574873
0.0872805218843849
0.0863974068904064
0.0882105373534224
0.0877488379851269
0.0880972937904524
0.0844664608386715
0.0843899088104073
0.0876753233153141
0.0877399297822226
0.0829713380844417
0.086732567771254
0.0862953454866613
0.0882351129105378
0.0857820841678512
0.0859785089939651
0.0837520411524869
0.085848177277785
0.0851372644988198
0.0881512992317276
0.0839687747159922
0.0855304588443032
0.0830841453780458
0.0863841726917888
0.0845580247672345
0.0847743336245138
0.0832899753782325
0.0846572694514337
0.0838361307649217
0.0858892298429868
0.0825749774981224
0.0865229932687115
0.0860917724717184
0.0869224215084609
0.0819819235561156
0.0825261359863879
0.081609105664198
0.0822723934353915
0.0814060789951907
0.0854172888693838
0.0822301782179412
0.0833576226319401
0.0849141593419391
0.0835300923729378
0.0831553612650701
0.0835557713061988
0.0814648299336304
0.08361788013293
0.0829448306502393
0.0842512080533638
0.0822357237362758
0.0837200568686133
0.0826180221868612
0.0824178880457525
0.0801198676969538
0.0803360033801726
0.0793933027324208
0.0825292952968018
0.0794782553897576
0.0831121681972953
0.0825687225635233
0.0844504736396861
0.082052573554324
0.0825547886025116
0.0816352534535567
0.0820177996030922
0.0802975191267182
0.0834538348598182
0.0797803520464737
0.0803807392490048
0.0800173954824726
0.0797719327865011
0.0781373503414373
0.0796846856752485
0.0797761870477931
0.0819554453468032
0.0798426162682173
0.0801731433857344
0.0769902129074328
0.0803733114728081
0.0781754563857411
0.0780604075147854
0.0797281131104939
0.0806045063746704
0.0771098050729492
0.0782017465183557
0.0755802718918334
0.0785737542333668
0.0758335584590805
0.0776377271957342
0.0772479713108106
0.0757771983874185
0.0761949197924112
0.0766057052662278
0.0763639991662129
0.0759165851329143
0.0738476560630358
0.0742512786633695
0.0745210052121313
0.0750975659944517
0.072046246106836
0.0722635874586025
0.0727172574189133
0.0739343733391342
0.0697238996680929
0.0731173075661442
0.074948813138737
0.0754815078332031
0.0715512309590335
0.070751468194531
0.0715952636751238
0.0696477702330201
0.0703069996540153
0.0734413026688698
0.0687824791402817
0.0718911732434949
0.0711582346637148
0.0706604834921733
0.0672405607872712
0.0739815648225582
0.0785426123923903
0.0698998340999834
0.0698153372290818
0.0723573657940229
0.0719445508812135
0.0697185681689972
0.0705344636704949
0.0684148473988599
0.0698441269757953
0.0692725528291495
0.069009436604268
0.0699450608977985
0.0679907946132527
0.0685671305567728
0.0707407580131383
0.0675813323843215
0.0666874811606734
0.0715944273205204
0.0673149024967674
0.066322898675673
0.0672774800347116
0.0675511905440654
0.0651841882723208
0.0694857449298325
0.0676216563444059
0.0660692561984215
0.0713566894824123
0.0721515958371042
0.0685136532972485
0.0669007304215732
0.0654980612765989
0.0670751122856756
0.0662036931445991
0.0662214590688775
0.066307898420753
0.0672682144976481
0.0655343747849969
0.0671961570549104
0.0640632579617683
0.0665874966672532
0.0643756455382998
0.0629719650469627
0.0673220176641541
0.0655625224379115
0.0642174988109975
0.0641194404607765
0.0623184231377729
0.0661491671699227
0.0659379082634774
0.066321949194312
0.0673004041067213
0.064262201971786
0.0660134825045126
0.0750937950486446
0.0662198050620951
0.0649116000580646
0.0628986169713082
0.066405531498184
0.0645624841400319
0.0625481900000411
0.0609986611950438
0.0637025043557796
0.0649109024925595
0.0648445240183017
0.060821360964932
0.063114097042469
0.0634292857598028
0.0634546017350187
0.0628592944319565
0.0619120704917461
0.0621054141955876
0.0639799635530603
0.0621798855948455
0.0662806526167603
0.0754908837836902
0.0654281524297666
0.063311123042362
0.0644679432073979
0.0597155891542806
0.0741021566791797
0.0674548095659435
0.0642237337577214
0.0633060552236627
0.0633215866918973
0.0636739625414316
0.0629511096502013
0.0633738319576668
0.0640258331587524
0.0671466731934842
0.0651264428270022
0.0671975102128336
0.0631258883434636
0.0624760856697366
0.0635219961038477
0.0621708210161259
0.063384147027454
0.064507924214451
0.0641660731989322
0.061313467039698
0.0622121788553298
0.0629650091528145
0.0640458602351743
0.0608456023101488
0.0646069121730978
0.0662585120545839
0.059468462855279
0.065154196305789
0.0647644249703498
0.0591658058472368
0.0644641531787739
0.0723172602882505
0.0649498462184951
0.0629751539065012
0.0629439648214812
0.064185807365857
0.0641118260721469
0.0632472702904755
0.0620188999799169
0.0600618364019343
0.0617275641070821
0.063725111876383
0.0611172887267922
0.0621071436316961
0.0629192351068607
0.0626907834315545
0.062132578605019
0.062148410425204
0.0650012304654685
0.0627998022268493
0.0614766685064889
0.0607876916118336
0.0669472373674715
0.0719882030694431
0.0710409113367937
0.0697979879634642
0.0666947458219854
0.0656862088571486
0.0636486670625092
0.0632990678603237
0.0642847882842835
0.0648401751065164
0.06418168174665
0.0628694663046599
0.0632841829167212
0.0647110566664884
0.0621926096024862
0.0605476512836244
0.061028226355414
0.0646687417539087
0.062457688148173
0.0609020097838097
0.0619198171333718
0.0631754047315173
0.0629832687059227
0.0684918879751071
0.0682552454474652
0.0644182365424816
0.0607818384730867
0.0764442945057401
0.0793276855318151
0.0665433540184441
0.066783489944588
0.0646235205919325
0.0632569560785478
0.0613925000926426
0.0646791904730747
0.0691711539235539
0.0660504322765228
0.0636707113932241
0.0630380118116669
0.0658019464209688
0.0678936090212877
0.0634068849649242
0.0734323471202382
0.0852793958768411
0.0717512397621233
0.0680752303760029
0.0623078365656561
0.0739981372094917
0.0817425756387881
0.0668530850860063
0.0675231645905756
0.0670769268001139
0.0646277209848195
0.0650188485466406
0.0653970562097724
0.0674349790900624
0.0696907273823869
0.0678657008539113
0.0677199913660974
0.0660726275205725
0.0650077950512332
0.0684529746940951
0.0685658264489542
0.0736328692016185
0.0726774735450837
0.0670442306807523
0.0722589508856636
0.0706164342231754
0.0654967920146737
0.0670341667651553
0.0685385677308216
0.0686564099869116
0.0761728048777307
0.0791073514093162
0.0751130022813143
0.0795238908058189
0.0788137603950322
0.0710564777616171
0.0702226742257483
0.0751306641500177
0.0777177267596298
0.0674874015622419
0.0782956935941982
0.0911574619430305
0.0889006295601463
0.0850402472314236
0.0759132613240866
0.0726686420082155
0.0755604625608005
0.0716541226440954
0.075515172388793
0.0872596295603656
0.0752775120936661
0.0755263456840758
0.0708889512117886
0.079339768471661
0.0867567320015239
0.0808110773474839
0.0769178555888443
0.0736574822614029
0.0783779752317423
0.0892653892139364
0.0765316390770119
0.0757121886933869
0.0904468221691081
0.100526228995382
0.0996017897596076
0.0796283926990576
0.078629852021236
0.09624107689546
0.0868605126739377
0.0809577140908056
0.0775418452057297
0.082877587008073
0.0785228472902464
0.0868181582207144
0.100817321330616
0.0844450959824281
0.0841735261836457
0.0854495990121411
0.0836035044616018
0.0940664493245436
0.0914154088367927
0.0848401391686503
0.0862511906342427
0.0862418175748734
0.0850159009794176
0.120599887739049
0.0995569987015526
0.101525786823159
0.105261239905512
0.102365178344594
0.0955601507349752
0.0946424078700728
0.0932875202442528
0.103197148646051
0.108071665867809
0.10126939138322
0.0888152208843388
0.114824988565674
0.111658348637162
0.0996722533563412
0.102868434133123
0.0990881068445072
0.0952225580624286
0.128155931885553
0.142148151515698
0.129292110197885
0.108316368185077
0.113520106350828
0.126497681774761
0.117710267635895
0.110179942023298
0.111522031952454
0.110937082744992
0.113247174749196
0.112570294275245
0.121485016113552
0.120399059277707
0.121843434851802
0.11487490068548
0.121996178840017
0.129417110676258
0.155851099261894
0.148291228043309
0.133471714631542
0.145649682079775
0.149447527675235
0.138052110228442
0.132976417774023
0.127994117119536
0.137215567019603
0.139163206954304
0.13851121474963
0.135794999966557
0.151563685048777
0.150053409834424
0.162763250243692
0.159527320554178
0.154210888735961
0.148969869866872
0.157360493809722
0.228504533266058
0.182100582288678
0.174120179107299
0.169607181205648
0.180224966044329
0.210857080188779
0.194875869725591
0.184452785672444
0.188278773139333
0.186298406493037
0.197446861193509
0.198715456472571
0.206366260286071
0.217452436334132
0.216962181655996
0.211147635456257
0.226693973535123
0.274154865875557
0.278657852771611
0.254809345551591
0.250614798773486
0.261465545615974
0.268611772048356
0.260614058354081
0.272194606317521
0.263789279641687
0.292769566003038
0.316654417367756
0.297534943699827
0.299239384734167
0.30631681825831
0.322472081841959
0.310566337121979
0.350997087592204
0.34731860907046
0.343730898123952
0.332337302706787
0.345151344381145
0.347604164546007
0.355220393722836
0.36757108522936
0.387606353667286
0.376617906645901
0.377786965751155
0.385941431733556
0.392085331583215
0.39512167406236
0.399098440817083
0.397313876951788
0.411427280572208
0.433484506366104
0.527373129022075
0.434066992691005
0.425808322224232
0.412007717001468
0.436376910984699
0.43934522155279
0.43248077200084
0.462556802533507
0.453116707464207
0.4274409790692
0.42779422886869
0.428190948712513
0.436922795045
0.431195945888649
0.430682889371021
0.425053643133532
0.449496063204586
0.419806160286097
0.491539838466857
0.471987089049791
0.449869551024169
0.433849305667671
0.441841264898656
0.413748835632882
0.435464961143683
0.419034538454083
0.426707162910857
0.433904646226859
0.433126198390359
0.420512671346304
0.414671571091356
0.422324228576641
0.43400878318066
0.408349523061098
0.413024660078794
0.404755565165895
0.418468292141959
0.38836649497841
0.420375036920113
0.425770430310691
0.418841134289143
0.396198678990166
0.390131087590116
0.38387609153097
0.401452025348227
0.385060138350558
0.394331797114028
0.388036963990038
0.382820343181492
0.383496852734835
0.384945230647054
0.377303993568553
0.379867378081981
0.38389668818226
0.382998593558171
0.380558463458365
0.373462850664378
0.372095177149201
0.377488826718575
0.37660691616243
0.375367119498574
0.37010750849136
0.374178714544517
0.377705806158804
0.373342098717563
0.373393889435861
0.370336517508342
0.372074871097783
0.369584048554533
0.368777621743192
0.371287593716339
0.374644802153105
0.365900146622086
0.361949275698798
0.368309255690541
0.365727130890664
0.36613359819733
0.361292727001483
0.3635101587207
0.364027453489481
0.366205473785917
0.351464306652963
0.415356981196642
0.367249605860715
0.365520845750241
0.347477270132949
0.36335337051884
0.348052266399837
0.341321065395768
0.370967169669389
0.360494125951867
0.343262758754877
0.34021542127865
0.331112600030074
0.352000569105913
0.339924299215604
0.3274042783321
0.330511626849956
0.311770797365784
0.35290208207783
0.353041691528003
0.394253489995957
0.356305889981805
0.336706156469138
0.309659669121035
0.333707841784864
0.331633161388012
0.309669046826482
0.307727924819287
0.299229288432223
0.333354572542429
0.305906291155821
0.303164205994529
0.294828360033797
0.292568099269514
0.317059088468863
0.325246785032323
0.301904711679201
0.310150974817738
0.30702323868037
0.307190265701572
0.321180432114961
0.346937068288028
0.302797640247139
0.278635290354344
0.279402181641316
0.268751179116582
0.282400550929755
0.310233709578181
0.275479081930216
0.283957880657014
0.262936790393353
0.269476069336045
0.259009786965138
0.283943150824386
0.254587743599119
0.275501900669273
0.282914630619007
0.2530976458757
0.270380782618605
0.258991611749649
0.290956048243792
0.285847857804877
0.263781063297783
0.235096442120612
0.280635475790294
0.273857294608714
0.254030014773094
0.258605486049626
0.238415774450514
0.247054859740148
0.249773800802753
0.238219395762999
0.252337629241813
0.255603943068795
0.255475322260247
0.279540959208641
0.284380304356454
0.278497732068237
0.242075311821202
0.232167780240728
0.226146613978707
0.230789207954821
0.233263400388882
0.219148717159213
0.275745359274453
0.23324760671881
0.233996931688614
0.26170865146485
0.243980607931175
0.235707328095269
0.238543757290609
0.23851399876762
0.241214089887973
0.257376302296365
0.281729958725156
0.250691771206621
0.268619032959359
0.268637949459785
0.264850780737409
0.264613530780886
0.266283726251051
0.2663854077536
0.272524060491192
0.287382128664694
0.28361074871735
0.285054546830941
0.296740701460139
0.286211655125233
0.32842324906991
0.327551936024778
0.309004111053671
0.353767433022783
0.326077886368489
0.383016639110899
0.343142593385028
0.344467791430482
0.342823333411027
0.354713537431236
0.36644230152688
0.358115990404369
0.384003978578841
0.402937559027678
0.378757726963506
0.390199184551839
0.381120586884799
0.402492528897777
0.396040390600826
0.441171739261469
0.389814568380265
0.473070773660932
0.42297509366548
0.445415555205458
0.416490862482812
0.413208238298997
0.433747845929114
0.427656427659802
0.4229221922836
0.427784350756957
0.430180666130088
0.456893318148222
0.430855514010845
0.444956685292749
0.432574151041212
0.440521049648795
0.440685699547948
0.44497458681036
0.44625417133022
0.451763273082085
0.464635886879182
0.465453785076003
0.453818943461516
0.537267559700083
0.472810298086982
0.487644921901166
0.470340117678144
0.497144614255425
0.481558985365872
0.493809145795911
0.510458228138973
0.511963922800181
0.503461867610186
0.514550999549343
0.500925883147292
0.51425698378031
0.513825429193088
0.540892608416484
0.509726378503581
0.544502895083014
0.506280036549041
0.590771796846894
0.543367187493079
0.556184798104094
0.549964602157888
0.550203457408848
0.547979478947761
0.547047816830864
0.543687661572563
0.554300995236149
0.549438274153601
0.547900097923695
0.54968925588815
0.551988331552867
0.55428072643985
0.55297626448687
0.545969030565805
0.572039099053035
0.557145907721147
0.55369148572149
0.545595724573689
0.552858786188433
0.53583650655428
0.579029876753028
0.565750183050862
0.569856432150914
0.549797977396372
0.557611844669757
0.574482924093628
0.564679545298272
0.549093518272756
0.557022889623112
0.550327400864916
0.567576929609045
0.542362516470323
0.565858615904173
0.574576204090354
0.571992132102188
0.561671863160329
0.568570621273406
0.567824757167739
0.5740257612633
0.576221886705184
0.584427074632555
0.578647254166425
0.581684830469311
0.593712992989924
0.591210982270319
0.586914542636845
0.601136813590254
0.610447702594035
0.600922047444421
0.586158509266319
0.598849365580902
0.577142944104817
0.579478919918172
0.577926602073184
0.582400165430164
0.569777390270752
0.579944360627309
0.5619508034213
0.567858945058799
0.590141200815149
0.559395447785987
0.569216362426245
0.547315506481534
0.54964710379469
0.542959201487274
0.539221450705369
0.529740178469721
0.535972201107449
0.537809337103288
0.527047115954288
0.524998649380865
0.518581223669039
0.527957719942253
0.512153816407556
0.514856207605599
0.517093953254925
0.519531072680638
0.516837515933329
0.515582879782825
0.506128483708637
0.509714614807362
0.508403290107925
0.503166534358432
0.524017484601284
0.517260284055869
0.527243835339424
0.506518852377508
0.519460508558881
0.519983695001242
0.510973221431617
0.514711472552926
0.505264896263678
0.508786798804873
0.503458275642884
0.513452596792757
0.506828808716213
0.510451457886113
0.501632150768375
0.510680318198921
0.501556769694313
0.511888025011688
0.500797020043052
0.508274906966756
0.502707835642029
0.504651574913316
0.503793919841402
0.512611494486463
0.499471774162665
0.510246901924547
0.505016851352906
0.504428701344119
0.507703648267306
0.513344465456091
0.508543925982638
0.505690740985461
0.508581110294151
0.507986265157854
0.505044918068771
0.510817431216655
0.503893904392866
0.501052420706287
0.503337528012203
0.505525252548774
0.497211265507141
0.503617469907851
0.490802628130223
0.492076406388347
0.486159267417164
0.48596294612441
0.47877252640046
0.475830290240617
0.470273255243225
0.470866356741227
0.461613438571829
0.463609119573103
0.45615273398222
0.459768778462478
0.44992735227182
0.451472096629311
0.445137908628347
0.441763926154739
0.440046391753281
0.441227883704502
0.43814496949458
0.440954076360639
0.433848837641668
0.434012499927685
0.430703768847598
0.438351235643047
0.438398071595855
0.437260119263471
0.432443552229546
0.44380035406793
0.438520953082321
0.445699010820359
0.439806759342409
0.445305204614125
0.444195392506358
0.442581714894837
0.445451175825226
0.449689859136574
0.452884633980522
0.447994485371901
0.455864769141654
0.458360165323228
0.453727219490811
0.461864349903739
0.458949758178724
0.463474054768049
0.463081969088919
0.466026322622856
0.46363103953965
0.464474363131338
0.46341914896572
0.464138029695374
0.46391677495805
0.462853069929334
0.461071961095967
0.461448927184378
0.462151921169737
0.458828077467387
0.458060058095614
0.457977547135825
0.456159440908489
0.457695869149335
0.45573864289693
0.452145721061201
0.446601226765576
0.449732798989925
0.447486543852131
0.443964988080043
0.444081854164997
0.443998462560648
0.438139645117183
0.439612163767538
0.442453187366269
0.433477983643031
0.437147425964098
0.438689767040223
0.432200278575361
0.431845834792825
0.428087216092812
0.428273102884933
0.426327568267214
0.430517163743251
0.425090527080726
0.426382802393325
0.426873817111813
0.423161103091066
0.423135036947655
0.420627352566397
0.420283667459111
0.414441371134326
0.414436628165719
0.412029575794654
0.408569132069763
0.405386116172628
0.402470729677196
0.402275033571415
0.399689545529328
0.396173151977692
0.395153135633982
0.39419620909199
0.381684552961773
0.38587546661006
0.380040953458792
0.382846471255389
0.378263669785653
0.379316632934255
0.376482593795866
0.376727274885496
0.374049799023253
0.375224495016255
0.370765982566279
0.372292499881763
0.369245032485053
0.366546597950631
0.367013695409903
0.362214338098107
0.356602433376495
0.354844498954148
0.353173142483357
0.347543641108692
0.342018826955359
0.339404224451861
0.330600739315703
0.331112840110713
0.32792970096342
0.325101028167975
0.3197652435698
0.323155081059683
0.324388549375153
0.328241769943531
0.331769880006046
0.336909144750767
0.343248678377075
0.352480436569068
0.362820698582105
0.374549744921409
0.384469818556152
0.400297962109634
0.416252736916962
0.427821837181002
0.44170343588498
0.456676566701741
0.472352593626727
0.488299286222838
0.501592994630756
0.520302151441029
0.534599352587895
0.552868054047704
0.563214582072607
0.577974443645574
0.594706766777443
0.604170750371416
0.612268975640347
0.622391532908115
0.636415191743122
0.651926417402039
0.657780998164814
0.668847774569435
0.675232173301533
0.685655179555265
0.697113045255475
0.698255535350563
0.704281115095823
0.712998646079656
0.718456411215404
0.717963233388067
0.718902330257372
0.725834384318574
0.720427576851218
0.731221545241377
0.727426747052871
0.724475268143199
0.730093402598137
0.727706018370389
0.72898178611927
0.737628647123437
0.730022264735802
0.735492786193009
0.749197288025037
0.741665377869212
0.749167766159911
0.756808548521557
0.754075464842747
0.764025706905422
0.766423293974146
0.779260683094719
0.781547744296849
0.789457639884759
0.794467617378151
0.799099528994525
0.813535823504017
0.830095914298916
0.834608085398027
0.849145289715905
0.855970885236891
0.866146683601284
0.870458609587216
0.893256514367707
0.901255298735237
0.900123670554933
0.915061711827407
0.928253893196722
0.933969114568365
0.925360402287244
0.92735250318185
0.922536102052817
0.916712579374506
0.923219893444311
0.911873113415366
0.91031403079047
0.904400589996292
0.904458458695655
0.917915182260913
0.919048854938514
0.920617387460716
0.913824745846426
0.923910053306722
0.949111635954823
0.948885082084009
0.968550223608669
0.973624363024497
0.995129809572612
1.01175321239099
1.02604660276032
1.02994798687688
1.06838428135112
1.04829589440768
1.08090543344966
1.09701378396744
1.09744131220055
1.12734213561544
1.12384535280614
1.16690202826082
1.17820561257189
1.20568135918579
1.21702074258897
1.23952308992507
1.23694943545451
1.26385223533866
1.30500644709859
1.27712294475245
1.33922868000055
1.34774564262587
1.34602148571503
1.38420368063311
1.42023828898045
1.43713091606082
1.46001853992288
1.48061860792724
1.43826315946062
1.50741045224352
1.48200819263331
1.56068251915967
1.53976170219468
1.5099736743432
1.54510006573468
1.52442135710214
1.59656352389866
1.57423613140008
1.51501906639711
1.52582291709491
1.57319071181667
1.51838290113364
1.46488028694724
1.56961713797603
1.55249174723594
1.5788939498299
1.57371595094397
1.52163317788537
1.59954581183551
1.57090710119303
1.61377574229122
1.61410435967492
1.67206861835668
1.69490974487944
1.67517617632093
1.67480057396463
1.69505622454903
1.78364209317628
1.72536137516617
1.80357890120504
1.73600372604231
1.71743445138945
1.81793917746725
1.71720757362124
1.76873211649447
1.81774891959762
1.79340879061099
1.95863081087445
1.88518047104262
2.0350211220558
1.80949691164533
1.85785691436846
1.86587305754379
1.93843424644308
2.03717424603773
1.9115637800067
1.865483636121
2.21660432322684
1.86749498459807
1.98921199550671
1.85472614119395
2.10807820803317
2.15286330587048
1.91102636159732
1.90629213639937
2.27634240215934
1.89604808105462
2.02648681564598
2.02005557166531
1.98844718992845
1.96527301646229
1.88285826491026
1.92973653066497
2.05720830256965
1.81871998033529
1.79242224578743
1.8516290388807
1.83715027660189
1.71611833060951
1.75601954118167
1.5785720232235
1.65064771774481
1.55106699852001
1.55704196168275
1.48078337967169
1.4967094582337
1.47475685380786
1.48877978859182
1.48709064691031
1.46272084957404
1.43598124255039
1.47717836368337
1.39783718110632
1.4459389604361
1.42902527694042
1.41109803120431
1.39744703304058
1.41285104635641
1.39076519274873
1.31746856030636
1.29845004408116
1.29279041192601
1.24486720538103
1.22081251400391
1.20463348713938
1.18592256009348
1.14576207934155
1.09968694425142
1.05377089701046
1.048151675649
1.00692040482944
0.940061116582272
0.887721270701676
0.869745672672829
0.827436559050608
0.791185825975251
0.756974849176538
0.728332507044005
0.696294719316084
0.665407985978655
0.640850936128806
0.621474594918848
0.598426927539785
0.580367007967908
0.560704740651177
0.556406681975938
0.540810406955968
0.534060919264614
0.523126937926664
0.516990118798652
0.507415988753929
0.500787649929998
0.497826293192243
0.491218510707867
0.496844800413247
0.497917753214616
0.49392988672325
0.490563233187791
0.490486886213814
0.498128740375598
0.495722683661213
0.493885337184439
0.492060779458019
0.493500197784488
0.493189748274526
0.489067500408868
0.482392424160325
0.481987446736898
0.475525779765414
0.476737829127317
0.469127662537003
0.466289310771986
0.463595990772734
0.463379251480428
0.443957054557557
0.449634430258172
0.448076492471127
0.44829770563163
0.443577780864146
0.445021442911022
0.449636638199981
0.453274275561804
0.449781445200242
0.458988669315747
0.457461892632799
0.461699107477719
0.466997468721015
0.465670713449645
0.472385768407509
0.476078816608564
0.47131902291415
0.480070406842191
0.479212614684098
0.482997150182408
0.485583652787425
0.484225540158475
0.484926730753818
0.479319777246515
0.483098861888391
0.482902939215267
0.485570136579319
0.495853836010471
0.484573007822503
0.492293189496779
0.492704628841255
0.49433722761644
0.502347982127943
0.514991755617675
0.514824238122725
0.529815250023739
0.542051054880686
0.556574449624197
0.553769902549357
0.581537335647412
0.587547520020717
0.609504447380833
0.618618877255081
0.638528425949542
0.642026589996241
0.648547319131102
0.648879447591993
0.652750645840999
0.633585604848947
0.659634027795728
0.638637503890234
0.630196388019049
0.608687189587835
0.602911266510467
0.60035198432298
0.597451715714648
0.575532578796131
0.58305266588807
0.575698865579914
0.591386496422706
0.585155040743456
0.590070331528289
0.570287525796012
0.579281039939435
0.578923281718096
0.58741690444111
0.58119363767649
0.582817024442899
0.575531156702941
0.56368614015397
0.551371084973728
0.558137508680442
0.546529320576695
0.537942371588578
0.537889307151629
0.539558570183457
0.525474664220614
0.524212559772261
0.5152592345807
0.520528710661901
0.505678225418475
0.508302547186385
0.501691500422962
0.501639623162098
0.501616596933933
0.50514718699916
0.494499103654758
0.490727589240057
0.485111505483734
0.478499308165433
0.483332135765648
0.485863348823954
0.478327396678187
0.482453669164334
0.472859076848734
0.479722267976715
0.471978013009467
0.473186980768914
0.460623680215201
0.468546464345977
0.454165899685319
0.462507887209068
0.44605694595537
0.450321436744926
0.45253908942138
0.438807417538252
0.437322811272442
0.445382009492954
0.431999313105336
0.443739555631706
0.435213748880323
0.431811634581546
0.42471433473054
0.436703683055369
0.423014485012317
0.432540871689507
0.437457665450458
0.433323033094897
0.42287101373777
0.436569712493501
0.432904290737193
0.457717678392689
0.436118000839671
0.449855464471422
0.439091169172817
0.434441816478685
0.432388898033841
0.438397498969259
0.438453217273427
0.453387813321818
0.45407284097057
0.480385903761972
0.45313999280935
0.453097143685345
0.466717577601854
0.465435757165792
0.459814118739696
0.469753550405264
0.479493540773334
0.494964051627732
0.48712587109265
0.49605279901653
0.502329519686756
0.523036855910236
0.509673065742938
0.511341628673568
0.531029558062341
0.548611370806098
0.537457078782486
0.574361405887797
0.57125386628294
0.595304287704818
0.620366076769203
0.653715209597638
0.634227523020981
0.652849491239383
0.679373860873408
0.699012831052602
0.68578698637545
0.703677630431246
0.687122196492744
0.760209167942689
0.775869187011096
0.75604133138262
0.765972886121367
0.795843115619772
0.757088428017308
0.754180657293107
0.76045213781919
0.783978419411457
0.763833582989524
0.730122840830214
0.721493034921463
0.751621792600905
0.744768204021429
0.805254287220861
0.760642537264647
0.751980013438492
0.736298424773307
0.730897687955418
0.716833925448991
0.747328291274358
0.683762612223171
0.708456350528366
0.733303456305647
0.694854014533729
0.682393090920341
0.715517710208705
0.671699298430866
0.668366643009742
0.681009675973443
0.662788502407592
0.674651515373099
0.701902734718531
0.642150133278224
0.707984186531177
0.640351946335205
0.656708071831698
0.672986729506262
0.693375982643123
0.679260777234096
0.673995614047213
0.62567431699464
0.623387678718298
0.633521676682043
0.674780704267522
0.68552359221682
0.695000515277007
0.65888777384671
0.691486976068432
0.638230307602917
0.71883974628893
0.702674469296339
0.701083884129952
0.620319348718161
0.672971875132998
0.697365697843287
0.753487542315283
0.731970958361327
0.70143772884421
0.697754812949547
0.73399359700532
0.716576237073088
0.749212315560002
0.637797359191678
0.682394974195674
0.678359150746957
0.674871367734154
0.686212700503526
0.734775600408705
0.744914321865986
0.718042676052699
0.721913670499731
0.837206065565397
0.827148427774686
0.816834610062226
0.773950425063047
0.877892151469202
0.820847118921995
0.839053012451074
0.817556186327064
0.929170060831647
0.86134504231854
0.966222367253508
0.868702438729525
0.958961624500738
1.10302590921625
0.978431074361135
0.9536115715309
0.918556250555198
0.999524706639829
1.08345041401159
0.845476746950895
1.01497988799438
0.921554817931346
1.00854996096463
0.791702603696412
0.93395509463561
1.00613853823127
0.733467761772829
0.710747877431686
0.8838844357094
1.09660569953818
0.99767251155796
0.779869325178142
0.805145884714615
0.884940545337879
1.02994459100765
0.919905527572037
0.83195451733371
0.813523569500995
0.907098876318178
0.924212756956113
0.959367861648765
1.00304363081841
1.05307933797178
1.7414996499425
1.07022085806782
0.700962056873594
0.897529530561251
1.70451475409122
0.801939789604819
0.771778603125231
0.986011977529178
0.820447295209539
1.09738214127349
0.963788583044327
1.04094373929779
0.6657286766989
0.910750425385553
0.700622591997249
0.686119288409339
0.679319937231583
0.63628943876821
1.44025403343469
0.768607812103492
0.674778586104882
5
0.576122364017605
0.758914967754824
2.06395427283334
5
5
0.968334208663157
0.764039310490481
5
5
