3596
4000.36533379555
650.420452594757
1
2
2
0.0541256669366053
0.0569099520013555
0.0581426049022269
0.0549003371227871
0.0608224886004403
0.0524543032263385
0.0590330017546095
0.0536960542411156
0.0544229654814048
0.0522109432008608
0.0599087439266255
0.0566828881080217
0.0589974253241702
0.0549486700566307
0.0591307086867511
0.0491370781986397
0.0484504008291118
0.050818982210977
0.0534960866491782
0.0527415840331839
0.0629752376224168
0.0498089399008012
0.0526479480192442
0.0527582977674165
0.0629456814823017
0.0603236437589997
0.0523430264334373
0.0463382304418
0.0571634154546109
0.0578149289772081
0.0529504219891362
0.050022786780436
0.0627819251762117
0.053803002862179
0.0570677120191758
0.0663391360431768
0.0556307497597078
0.054100674812387
0.056489813476813
0.0540649638349072
0.0662951581198762
0.0598060812879321
0.0592928594738879
0.0585887861517483
0.0571373547742451
0.0536625432298468
0.0627853494170674
0.0535802597105551
0.0497769827541017
0.0619283690936698
0.0679299404833369
0.0523401935461503
0.0630173984587459
0.0646399879002076
0.0612206197312119
0.0622616476991185
0.0541354616356034
0.0595332776193295
0.0626566060009596
0.0530576698355123
0.066950453915932
0.073441071007028
0.0575584679049936
0.0547959734610637
0.0575392029224937
0.0504338367860121
0.0513593668724984
0.0447603582529485
0.0488401624383513
0.0492366865630393
0.0498611201037759
0.0693700108893647
0.0689697445533615
0.0493856659193152
0.0673044693013576
0.051939091985014
0.060810425306883
0.0515879446430606
0.0463747854819297
0.0700749790138671
0.0757833551743732
0.0499809697525346
0.0597174138947692
0.0486442993041971
0.0543913937086769
0.0678056979281151
0.0517324064503497
0.0570151559198586
0.072607632964238
0.0581061343942971
0.0583672602849901
0.0489217321336147
0.0526474566916942
0.0529736490211127
0.0556691141238843
0.0500210477033767
0.0538622539042717
0.0597900523183481
0.0478131537726332
0.0579084841106967
0.0561402508792365
0.0782261025400796
0.0846074922982509
0.0436989084209006
0.0912339204697639
0.0693241433066277
0.0398339837503794
0.10088455292153
0.072017125644789
0.0575011799862646
0.0619193246209216
0.051944657907255
0.0555366569416706
0.0559552052526735
0.040654102504171
0.0632158356415399
0.0828806075870781
0.056404105839003
0.0603796481921069
0.052880094624825
0.0424430632230759
0.0814243890443443
0.0907080449902069
0.0608509782935899
0.0603500432551149
0.0561099416382871
0.0481321627668252
0.0719219422527031
0.0902647929734411
0.0644422195182906
0.046623657203777
0.0491436635275334
0.0482959603467388
0.046156350700912
0.0748624825434193
0.0502159577831157
0.0559285032081002
0.0420003032838605
0.0712648488098841
0.0890473718659001
0.084149411835303
0.0557091190200212
0.0377049399256965
0.0533896039594298
0.0834122306786603
0.0585814672655074
0.0527100326423417
0.0693485412856354
0.0675257362696682
0.0509141233237288
0.0511130775272587
0.0433026317352991
0.0724718852988282
0.0612075514282389
0.013348234947013
0.0864380630604046
0.109079075585286
0.0759804368696164
0.110923383348081
0.0629781126599924
0.0562085201972074
0.0574673431643818
0.0590981900625931
0.0470264267338521
0.0585576615815894
0.0385811629372723
0.0595067078454017
0.075449449309226
0.0497790632669943
0.0563328038018617
0.0792638209154609
0.0495720731495752
0.0336636088189255
0.10377849061928
0.0696807236465367
0.0455311623820061
0.076498723319042
0.0718774999571932
0.0455767390132035
0.0592750361218976
0.0762252425292933
0.049002456183216
0.0569678730728997
0.04749010782759
0.044548078086875
0.0670426912601505
0.0550830620040371
0.0573149133850167
0.0547760158015042
0.0356073814670886
0.0524065270905717
0.100847593575848
0.0812185422077286
0.062490322370939
0.0520819012795131
0.0244668100607639
0.068584126195296
0.0872871595989917
0.0473999610888568
0.0517754908045128
0.0521516710480401
0.0478870490878327
0.0469975401030955
0.0494808740212234
0.0416458875703267
0.0273554606323379
0.0894489324450296
0.0762675070916877
0.0561042392163267
0.054220311774523
0.0456211654186453
0.0448373574434471
0.0914961860175369
0.0851853504620376
0.0566905880855196
0.0436913973808961
0.0389673268812578
0.0594095864953662
0.0703148494290204
0.0500909462247052
0.0600820057247988
0.0486534530920937
0.0473570973834172
0.0554033090515003
0.0605091654867883
0.0415075144401007
0.0458499953066629
0.0524454616557471
0.0498944053547998
0.0508674169415971
0.0600121668393684
0.0542626306006778
0.0500487846806837
0.0458860175838942
0.0430631543593256
0.059107392813808
0.0698904295913972
0.0494585418040732
0.05070067620978
0.0484676237877688
0.0493668393066012
0.0488089226455159
0.0468097221578525
0.0500596390642892
0.0451429737627296
0.0416021497992163
0.084218195281711
0.0653681361639385
0.0489929995533557
0.0379396752561235
0.0787778319539183
0.0618057000388919
0.0525596886990694
0.0497864990752653
0.0551603363496297
0.0381277715226774
0.0348417799132887
0.0790219271900787
0.0603064065921392
0.0471190690054598
0.0645372302089768
0.0621647069571553
0.0524428033348463
0.0369829560013587
0.0336507009794027
0.114978003932548
0.0476921662662989
0.0429716651663549
0.109175497389475
0.0681468600048816
0.0528513689041148
0.044445248502124
0.0145163191643383
0.166276168035746
0.113685423129849
0.0481351005128749
0.0540849099404516
0.0735772859478823
0.0524623820646624
0.0503805220799894
0.0512712633620816
0.0640881863969314
0.0619845787693269
0.0835947978772672
0.105725823494319
0.0463994717767729
0.0665517447428814
0.0829445487953621
0.0609055132199278
0.0510190101622124
0.0475802128476877
0.0437255525860873
0.0648482040493954
0.0646229411545398
0.0634962858639008
0.0619723878259919
0.043043203185504
0.0773428550909674
0.0655093090998945
0.046603423126484
0.0556095306932332
0.0599844997645232
0.0456131043189184
0.0451835130587834
0.0516482320268513
0.0639748864808949
0.0466831920553702
0.0336618993372489
0.104381840906749
0.0612125082755858
0.055871499662026
0.0793166601435474
0.0675065706210226
0.0461005931774617
0.0457471179811851
0.0488997939995601
0.0508456847744209
0.042793737760176
0.034619919715989
0.0746626153979654
0.0622226623521836
0.0541594841006361
0.0527724484261974
0.0457709607026536
0.0543215573270469
0.0472701150099681
0.0466774575897397
0.0503232887402364
0.0478184572298497
0.0412239450571006
0.0645314663661008
0.0831603175142032
0.0266222273806968
0.0835306545784212
0.0903876649714543
0.0544906288568606
0.0534599417029327
0.0503972088461144
0.0505335656614916
0.0486496711284824
0.0572845284057606
0.049102345455032
0.0512427329337982
0.062098064474646
0.0630994855575603
0.050764389136028
0.0458993322677799
0.0898999800991657
0.121490916950357
0.0775965823418982
0.0594148894690382
0.0224506906764945
0.0845314233020539
0.0814780435563655
0.0782221977447395
0.0813540819630098
0.0485972714918923
0.0608930094194641
0.0541606015769551
0.0574413930247562
0.0458085128257586
0.0586946693322304
0.049698538511515
0.0536600095053822
0.0564187086914828
0.0620611549152336
0.0445784235494614
0.0479124679236831
0.0943717895273833
0.0633021965946925
0.0521399444001884
0.052228590909755
0.0380706299957885
0.077804673627823
0.0653162028822855
0.110218706102378
0.0871836829559817
0.0849970237848465
0.0986665252560614
0.0664975356102264
0.0622477506613994
0.0584310009308364
0.0628103061657809
0.066977786623738
0.0672157364965984
0.0653370477992737
0.0615295682896392
0.060739424202415
0.0632881427267916
0.0710433857806042
0.0548594303087167
0.0528578312431777
0.080594440262628
0.073068748831903
0.0629135429347543
0.0511233813404868
0.0696602142584356
0.10227200097424
0.111732675101119
0.0761546307092338
0.0858152898456762
0.0723409301079785
0.0709613262303069
0.074496847201214
0.0666179602771379
0.0654060765110638
0.0782514690537789
0.0998622152153187
0.0833806454890784
0.0913767933463835
0.0848723202108943
0.0681597940799976
0.0872300461023787
0.0867729341130925
0.0849958190331153
0.111112700258098
0.088523317811258
0.0679054060820058
0.118552818706866
0.0923808856954756
0.0825528397951307
0.108562743409083
0.0791487588698755
0.0862882275267093
0.0839297360089266
0.0984464291698717
0.0803560562249385
0.102519404357188
0.0909398860254938
0.0923414835212606
0.095981123210542
0.0938183409861792
0.0900649404146091
0.112769004032681
0.0950168623018252
0.105043612088632
0.110989791969581
0.0910446465625281
0.0996184322730103
0.0923555692418851
0.116012961387159
0.108301747560531
0.104217105526733
0.121247388748392
0.10245467159137
0.108051853067259
0.112040910342858
0.106258338890557
0.108338879390791
0.112668284990228
0.119904355981903
0.099003834421623
0.111388699891958
0.121216354520805
0.118637589849225
0.12107878255091
0.12630551041762
0.119210726120904
0.121069278268737
0.122533616938765
0.129076591927528
0.123127663923215
0.148209289268467
0.161375896524965
0.161089789999859
0.160079679331268
0.133453065394642
0.134246553879738
0.145353093492252
0.148428483130871
0.125479178851111
0.162808335126462
0.123258857761631
0.145571691899324
0.137553611585477
0.150511055438627
0.134577393599296
0.146892523150776
0.146174884864494
0.151693273691145
0.160105505583902
0.159288174259242
0.152675764906072
0.162447370225543
0.168403738147265
0.165256902842411
0.162477370153974
0.194472596929684
0.172479070809988
0.178210377070969
0.157361746333884
0.181819082443129
0.175037849458585
0.175622774806875
0.178138879482454
0.171002520254656
0.195139646742044
0.196457886008911
0.188896839309079
0.178663211596825
0.195704677370938
0.18775556059861
0.182711133742468
0.193497049978525
0.192686950389047
0.204470800326464
0.195810590449537
0.206070873581999
0.210256660472873
0.208570445081705
0.206076553945745
0.212325184077004
0.205477735705146
0.22646378633749
0.211018009130788
0.210780608130096
0.213043623319795
0.224971289794203
0.229778396811847
0.227536144839761
0.217737794522178
0.223099219935845
0.230050504854027
0.223451988666678
0.223783706308376
0.242771308440964
0.226203621725284
0.246550689763726
0.23875348607738
0.223060832685163
0.225862655130566
0.247738376812414
0.247556377001199
0.264721761169964
0.257026718600736
0.26457823919471
0.256167530896306
0.245011381334898
0.24989522665653
0.258496707453333
0.25847114207758
0.275930813547342
0.269064093323928
0.27235240699168
0.277254964840843
0.249201056871479
0.265331767258574
0.265610855551856
0.268157352499407
0.291714214304832
0.292440856545275
0.272996534552232
0.286220959343218
0.284036866436004
0.290061230185985
0.293087614147649
0.275517601254052
0.295004445577593
0.293400427817848
0.290578253824684
0.297084836454649
0.295123436785834
0.284332498128484
0.318279666436133
0.294357879163345
0.304521523892467
0.2860236217024
0.296205213166582
0.310592166235804
0.321718344634719
0.299338043004871
0.304280172269753
0.296435377730806
0.308786545583055
0.315345185915479
0.314162926161668
0.321207230153601
0.33399988517923
0.3166405081112
0.329700535874999
0.340868394165742
0.345987631158488
0.322620469259601
0.33946260170289
0.337770120935594
0.34522757800053
0.337055877522334
0.36057403970027
0.344684382359431
0.340606793441685
0.340991883541399
0.364048436107621
0.347972833948742
0.361280931269513
0.347354153650434
0.383742041405454
0.341093751518023
0.354542268274397
0.371953191800183
0.372828225443974
0.356964271253442
0.361211740431368
0.342536321488889
0.378912964715851
0.383228861502348
0.366577801213475
0.369890202596762
0.387743949204593
0.376731905637807
0.391639812486799
0.366513401712159
0.373377213181215
0.370323129917816
0.392633246254494
0.364461523546282
0.381383619617133
0.393422047268063
0.393111161992325
0.366101723556455
0.391486376389569
0.382486026008549
0.392914648916584
0.388799145664314
0.390227099992771
0.3944283139814
0.422126774625038
0.387641696261899
0.383469249318552
0.39247480746469
0.399210582333703
0.393942793435363
0.406960996963466
0.397272189074291
0.409359659729397
0.404605918099363
0.407726756696892
0.383965255720709
0.397101483027491
0.398917519697775
0.413842467675788
0.40309812876951
0.401066493380068
0.41217064166803
0.421916772019748
0.403384271287683
0.4294824112197
0.405305150211683
0.414336801095033
0.41096298751981
0.411632627133164
0.417758994621362
0.419509151685168
0.415579710879155
0.427499554157769
0.416420307196879
0.421290181731142
0.427062467162703
0.422882227052878
0.430138691677023
0.421871656875382
0.41824664704303
0.428943709218211
0.408126383940824
0.421375299608811
0.420269591245333
0.428201406840707
0.430607651350287
0.436407480839847
0.420916294463431
0.442571787366445
0.427267604994503
0.427729608269576
0.423358913750223
0.4296400336973
0.413126066194289
0.431858314827927
0.437479986250997
0.422024337870696
0.429112528313161
0.454278349007371
0.424695173402089
0.441717821221966
0.416070392627318
0.435480439177583
0.438238253844199
0.429441047453816
0.426319457023045
0.43434676521559
0.446760189904179
0.440816600657877
0.435549348393552
0.437191227660206
0.430919429849917
0.43960919401296
0.429903647184706
0.426751323500798
0.419185918818609
0.431790140563052
0.425179027030043
0.438306536406943
0.41125684294841
0.433906895019944
0.439648734273574
0.433021604779978
0.418695186327206
0.44411262633137
0.439438562074185
0.441108450919656
0.423108530733184
0.433220643387241
0.432438118806335
0.437145776324238
0.428877053277146
0.420125330777627
0.432582075007175
0.446460663725483
0.436619511484375
0.42546008716862
0.424430870037048
0.442181758295035
0.425468002730781
0.424788730983666
0.41850989566828
0.42741038222057
0.428439261155394
0.433752405627516
0.427839016559326
0.439773896124022
0.433903807551567
0.438048336010671
0.422316859049626
0.421683655700143
0.419452946989088
0.428673400175753
0.423339683263522
0.432452446366315
0.417055213373376
0.424650207384346
0.414396412048692
0.414998959182322
0.411897321253754
0.430188864537505
0.416167205529537
0.423892850789003
0.416964674759205
0.402789637345206
0.411544250529657
0.419957913388581
0.41778375562961
0.416379677116303
0.405590446802058
0.418691911148526
0.409086390626146
0.420362751881131
0.409890718365598
0.409435075295465
0.404389453401045
0.411613076913309
0.41243582014521
0.408308219053515
0.407109283387977
0.397479373628589
0.396350155457754
0.418396936773855
0.39961575672749
0.409092726511174
0.417884538881236
0.395459477799766
0.390896118516475
0.40327894477504
0.404280877059755
0.402834318178205
0.405276318674097
0.401940586579287
0.391796091313793
0.401273484397885
0.386000041199265
0.387845948030503
0.394580392638602
0.393950999925536
0.390547439388183
0.393827582982789
0.387285541308345
0.387079064851259
0.381636678457662
0.386240269992205
0.391135007827096
0.382750619604945
0.381093892070704
0.385752230505003
0.382650845286421
0.383437219832294
0.378003774899843
0.378802350182177
0.372836116367255
0.359163276838281
0.378434458842422
0.376058309481389
0.363523700625286
0.367636291516881
0.362616107641818
0.362620342220236
0.370248991126208
0.360658450068501
0.351569024938649
0.360910691593724
0.357708334572204
0.359318672415941
0.35774527330173
0.357594609718723
0.354134497321091
0.358753371668951
0.365570274114502
0.346822686657522
0.349386482088675
0.353044989430651
0.34353955857216
0.355821578671124
0.34613813591895
0.339377256524463
0.349522847023174
0.341586657874972
0.343534968470902
0.349711304605349
0.342658711694474
0.334744511843078
0.339251690650816
0.343123745974801
0.3408666920502
0.338657203703629
0.330064130148357
0.340890227014483
0.333934814438244
0.324780955831656
0.326451726743054
0.329125522572298
0.313472519962419
0.321439545445672
0.326550502630722
0.324422556153266
0.31483806422858
0.316999026890831
0.313168646892689
0.310728565526343
0.32222360957757
0.310009071880654
0.308194233368617
0.318133235060168
0.314699845421998
0.305930047072928
0.314489025385234
0.309896912538105
0.31573795753104
0.312639041635367
0.306012085549714
0.301119628534067
0.302561938926143
0.304002169231168
0.303191451133948
0.29412912460837
0.284957776850784
0.292442699143075
0.292391612561
0.288387699072168
0.292354255903271
0.290571237312722
0.292769439613256
0.290873882893137
0.282912719158363
0.27054489500076
0.279355185739123
0.280350233642131
0.284685410124534
0.280016547644012
0.276293790292479
0.272779965994164
0.270086731254975
0.266118533922855
0.271463484477606
0.270761193851165
0.26722436312651
0.261603354892112
0.268630213657946
0.264911049578215
0.259058155128683
0.25847540482825
0.262738707848831
0.259583241407212
0.263155331572755
0.255894030663251
0.260747897049849
0.256699838479424
0.255802789973031
0.249843904037849
0.252241090547226
0.252417148756979
0.24845191551481
0.243131501425627
0.242807143387642
0.240975525699902
0.240845315699568
0.237166799516562
0.234723457844099
0.241586119779419
0.250377857691832
0.239121384723952
0.229484479208012
0.232769686799093
0.230266865372225
0.223017098535227
0.235224075064075
0.229331912326459
0.226854996321198
0.225016029906225
0.222434080288319
0.215689288845154
0.226287378899084
0.226275975882863
0.21888783852761
0.223165646680144
0.220334165657507
0.217328808827867
0.214731366132584
0.212863539261533
0.2136767510792
0.213082999086152
0.212298154770493
0.215768858581897
0.208081199890073
0.206055193401929
0.217955983535883
0.211575533293207
0.205340458092501
0.197000505301622
0.201291227837217
0.192462961116127
0.201604344483566
0.199347076171885
0.201834914285107
0.199017667178493
0.197867253806876
0.194990243977913
0.196003979877442
0.194820240774968
0.19294634665629
0.196230736946073
0.192529251907976
0.188162137785819
0.196232032324117
0.187975497412702
0.191040463339886
0.186433846830606
0.186526431153163
0.18891249417925
0.187896125794254
0.179278989728822
0.180854194905252
0.179077458779812
0.181096663281131
0.183968447758991
0.185738054139156
0.179858503888625
0.180909841508877
0.175046770968889
0.172379858346719
0.172855740631507
0.174364373437823
0.170858512480968
0.178382557455411
0.170169213051219
0.168385034898342
0.170317839014679
0.172874018078825
0.165952852622454
0.165793664482601
0.162983927099093
0.167889116991513
0.16242934383244
0.162718739976869
0.163522142161287
0.161389536367822
0.156213461388834
0.161945935194614
0.164189348608576
0.162949088416187
0.153765591088966
0.162228379769582
0.158042120294062
0.154391516236002
0.150971019498579
0.15874485058486
0.147906142445814
0.155326996491356
0.150552489283008
0.15297160025277
0.150690400982079
0.146761623253062
0.144623824793108
0.149784863821986
0.147163102398101
0.145469081596482
0.138916762824925
0.145911796132841
0.147103026048425
0.148722458807586
0.143934217120284
0.147895728978807
0.138717469884832
0.142466950266946
0.141207033284535
0.14056429614471
0.138885678726078
0.143114913683448
0.138759190431359
0.140316899180195
0.135505477714405
0.136487471884156
0.127046827865227
0.134369244230136
0.136242367363099
0.136940299104357
0.130072646522235
0.136086666510367
0.12988422835024
0.13381793091537
0.134981315193437
0.136028709044359
0.124896331112245
0.136884327678216
0.12724101272009
0.128810094666695
0.122309754772232
0.120957189003983
0.123854387456619
0.127154431582653
0.125670087324817
0.124157003716627
0.122440837715266
0.128940691902629
0.122016143897082
0.121377857280507
0.117667142624057
0.126540272747937
0.121441093684286
0.121786089863343
0.114181662370022
0.117587636131348
0.118160812170431
0.121646736811302
0.118687440869706
0.117553159768988
0.114089858965942
0.115086495924372
0.115132758957385
0.119399796079803
0.10982242091691
0.113379047266579
0.110983065673638
0.112510880520208
0.110306703589894
0.116997321620416
0.111518240674502
0.117423223238292
0.106736570354595
0.112916841873737
0.114587731514017
0.115039497550987
0.108774476011387
0.113831268219361
0.109714853916478
0.116121704961707
0.108919900855323
0.11298489333947
0.108504492499163
0.11054214426389
0.108978328662281
0.113909758299302
0.108369030291861
0.113260832286328
0.110629707239384
0.112769694970644
0.109262786896642
0.109771611971265
0.107021632969555
0.115686907231313
0.110451196377022
0.118501032902491
0.109296801682738
0.114128779707781
0.116654139496936
0.11538941550086
0.113263676562057
0.116225244522969
0.115260234134671
0.118358554942796
0.116878264140738
0.122438292179929
0.118043090990522
0.120459034970125
0.119066465605675
0.121520570751376
0.114301674189716
0.126164550936798
0.119928710058881
0.127591911027551
0.121624542564011
0.125092097336646
0.122131492623193
0.130613445566779
0.118067175859843
0.127326294557219
0.12278022777595
0.125950536193015
0.125204757423803
0.130251876291392
0.127683489614893
0.133343441855117
0.127801494564467
0.130652600935368
0.129333043034554
0.133575469300054
0.133650304396196
0.140030347066184
0.136983085446221
0.140165695620935
0.139544517052758
0.145931081590487
0.141802965409291
0.147413363589384
0.141085466781061
0.145508401006729
0.142632512992574
0.146173479361491
0.146908848801979
0.150448967279531
0.147415635411278
0.159035480043857
0.15214919017825
0.152264404883947
0.149785306723729
0.156797897023003
0.153015220905748
0.157696835611155
0.154401365522391
0.157656590024826
0.158016326414847
0.163714741080264
0.152858681899752
0.164044422063799
0.162403178173594
0.153725203349022
0.157281815345414
0.162833314645059
0.1577256013388
0.164977834668585
0.156823063641017
0.166567837541207
0.160979604269174
0.16108168841167
0.157602817155347
0.152858469423219
0.153629487946445
0.157790993426921
0.152855695728014
0.15956282564906
0.151892976486565
0.156049595745494
0.154597264758559
0.15508184912957
0.144656623053314
0.157536520851358
0.157303097167092
0.154596806375556
0.150376278868087
0.156876366151691
0.153057613623701
0.153314490367531
0.151602190944522
0.159743044892574
0.154290575699692
0.156607308009391
0.153694812009831
0.157523702023396
0.151952306814484
0.15471692188015
0.150038847153611
0.156636379528617
0.151467441502834
0.158794706827699
0.15463743798719
0.15757312167551
0.148185361083046
0.157654570766954
0.154417067435286
0.153213170661891
0.152555279036767
0.155151760741507
0.150885371854757
0.155349223580957
0.150587454595109
0.153452916420769
0.149448703553477
0.153540366027069
0.150072594013636
0.153075277556819
0.144082267207531
0.151624446205421
0.143673372543447
0.143516897140009
0.147587312433156
0.148912473213748
0.143477669085983
0.147421617474063
0.143142650171089
0.147406629848834
0.138625921924226
0.143103535712511
0.137888799687595
0.138651291888098
0.135979618519619
0.141980112534552
0.136050140433392
0.134055288190341
0.130911234228183
0.133749113621783
0.125970414515568
0.128253906958244
0.124529269567846
0.134024149763779
0.126261732928707
0.128349810583988
0.117624658477016
0.119417873584818
0.116791068412918
0.124562068670719
0.11848421966225
0.115004996568143
0.113016126361134
0.114977815799062
0.107712307383287
0.118281754913863
0.116377882223266
0.116391410432201
0.107700158833518
0.115925872660146
0.108542504956923
0.115706579373984
0.110179436115946
0.112676263312384
0.109995510484535
0.108260694159416
0.104791218985946
0.105673775012999
0.101689155030603
0.109820974898672
0.101573452036695
0.1080005050721
0.107134056788494
0.104519253086024
0.0993163581837529
0.104884356365695
0.099473139733208
0.0999067033837586
0.101533061326413
0.105946767752578
0.0964099699989293
0.100285579060071
0.0953952956295448
0.101298443964895
0.0989827716256586
0.102864602716127
0.0988890215503509
0.099007745971394
0.094896775213595
0.101977931101447
0.0941117362749099
0.0956106490516787
0.0910639866869408
0.0942437499434526
0.0944097665715273
0.0916571540834202
0.0877114189930976
0.096491046687095
0.0867929660443202
0.0956895692740313
0.0899712391853362
0.0935983608917723
0.0909216917903569
0.092823243361143
0.0891600666148883
0.0921432989930875
0.0851866270809396
0.089513199256826
0.0849732289422956
0.0908133722561159
0.0808794787624389
0.0862481377896951
0.0825731136119222
0.0916851413729474
0.0874248730556473
0.0884012514284888
0.0859797429749369
0.0859647451601142
0.0827701662387904
0.0850574640492786
0.0827707676810444
0.0884257727445562
0.079813120422775
0.0853372079741515
0.0817448550414349
0.0850194647279015
0.0828586912651635
0.0888925565950141
0.0802594755789969
0.0859218218173673
0.0797872072369899
0.0857610871657939
0.0803744607869081
0.0865595300036107
0.0796246321697613
0.0833710286912875
0.079669083477065
0.0823877002915335
0.0821359239317825
0.0819329731557329
0.0756887949869821
0.0880993023331744
0.0788776358174295
0.0796072464266767
0.0721242072237381
0.0801201067295264
0.0793133570604669
0.0812153601273558
0.0757734715232169
0.0811178492183252
0.078780791662486
0.0816543188777543
0.0778915920413441
0.0784900592445212
0.074966071317425
0.0787014832137732
0.0733853203928142
0.0767732378237849
0.074766784147067
0.0802546835770801
0.0755727089431685
0.0808453897346191
0.0731085362387493
0.0784599927139052
0.0759370407583071
0.0787864828865551
0.070954372035781
0.0767175300142121
0.0728622762692163
0.0751818670509027
0.0724431110220457
0.0722186174681066
0.0718767256081952
0.0759795994227335
0.0741098619583167
0.0808165468241663
0.0723546872112885
0.0787304854533242
0.0744481440804641
0.0770873722425921
0.0763455953208744
0.0804042162053947
0.0708775851596985
0.0738268430353685
0.0752300333739939
0.0768788641678218
0.0711189719212778
0.0788203340356408
0.0723756594581989
0.0798446924448259
0.0698954865067923
0.0730162024693063
0.0691076279836097
0.0755035207309386
0.0710639102871438
0.0728984677967511
0.0713188890603703
0.0759363702119971
0.0700847562928747
0.0764654474226473
0.0755026821076541
0.0732863692582996
0.0692623194158924
0.0745783941233535
0.0680186284892531
0.069827515260023
0.0665494028106444
0.0726188405031189
0.0701868623062813
0.0725648629123969
0.0649518501581821
0.0687379317750322
0.0668272940253351
0.0728603295474088
0.0677874714703236
0.0680601894205154
0.0635496814649231
0.0723739168757713
0.0697112752710366
0.0704932883585182
0.0634905334952401
0.0712724710474203
0.0637777558130258
0.0676144770910134
0.0648593006558319
0.0686823544056032
0.0649023740217982
0.0651538766915235
0.0648045578880017
0.0686614771271675
0.0653363520368111
0.0685518121820764
0.0640422125720231
0.0647284539083316
0.0623627519108402
0.0675398566698977
0.0656614076867062
0.0664871101503102
0.0613714290584138
0.067866837958859
0.0636809765202543
0.0657608588324834
0.0596305948840425
0.064329399581986
0.0620254571766515
0.0652904490570124
0.0597109864151902
0.0681086609377671
0.0607844800559862
0.0649693116537382
0.0575455247974039
0.0635160890768772
0.0633628366934482
0.0646137784078993
0.0597160705380951
0.0632971846241792
0.0639825561423707
0.0598412392578978
0.0610835370588819
0.0658046243959978
0.0598279671224771
0.0631836788462965
0.0586378496428182
0.0643442815761084
0.0593995217725502
0.0598836868568533
0.0586964504575659
0.060475499033151
0.054937981704893
0.0632769519926451
0.0552486899939546
0.0580021999618875
0.0589947298491874
0.0584421616977103
0.0585060072574749
0.0598064339209251
0.0525308214448478
0.0604189348150851
0.0568487862145297
0.0572472394260033
0.0528979815661554
0.0575834226584144
0.0555362455602276
0.0550354548977834
0.0522644750228934
0.0577258729200783
0.0511740902424224
0.053804939843245
0.0560103836471349
0.0550506351153829
0.0512132735963055
0.0590682657983358
0.0531856918328355
0.0559414296521763
0.0516624106302203
0.0550540415688538
0.0502697910114329
0.0573667739816593
0.0503461036409013
0.0579163044231567
0.0538155710591997
0.0532940626609153
0.0541070303226567
0.0563825555501208
0.0477207997393405
0.055119273548029
0.0501814277944872
0.0531935740282175
0.0482816146001656
0.0549544671384596
0.0515506905994804
0.0520988453608648
0.0482997107067734
0.0532390628967003
0.0512992823402704
0.0548557544485083
0.05071010198916
0.0493135818724664
0.0482360976029544
0.0546329412716173
0.0486276884523386
0.0518154031868565
0.0487967463881528
0.0553125179373583
0.0481016838935357
0.0539368590874579
0.0483688732219662
0.0525186383037697
0.0487563381389557
0.0501514726652654
0.0448930429910816
0.05260751021899
0.0465244968131069
0.0479943714802218
0.0492814493319922
0.050306055532633
0.0465025472234776
0.0502855660693717
0.045654417509446
0.0502279994264359
0.0487639907033251
0.0468576090081742
0.0448782399629606
0.0509125115259491
0.0464090915905469
0.0481430680953946
0.0465227679593569
0.0477503971768714
0.0423301348881264
0.048840831527763
0.0466965297843568
0.0477380995410339
0.0454201332225355
0.0472748380145437
0.0435889535256431
0.0474943269311249
0.0446205044503663
0.0476298188346921
0.0429463774775204
0.0501762872937882
0.0457987223989617
0.0483168589911927
0.0452658504604359
0.0469812916517059
0.0431596233866478
0.043018246833568
0.0459131822921438
0.0494070656518499
0.0417566728478628
0.0474905311461747
0.0458060053402133
0.0484430578830274
0.0446657446558256
0.0465269820100126
0.0434490989274574
0.0472943968016549
0.0453048164865065
0.0443771388387295
0.0435215299698329
0.046314048617861
0.0455733994225677
0.0468467745859509
0.0419386013109616
0.0444661311204494
0.0425584038967005
0.0478442478706085
0.0393283744172803
0.0477754992191913
0.0424064150771895
0.0468931312954259
0.0432398459931223
0.0445940569973381
0.0440292344977429
0.0464506027391334
0.0422908779967269
0.0423777803616925
0.0437083602008531
0.0447370919913007
0.0410872240274687
0.0439189151042163
0.0409497517413656
0.0425936939640961
0.0391139583551067
0.042737375187015
0.0389791758628663
0.0406807461072222
0.0398168537468485
0.0417675827941376
0.0392155569236921
0.0441408593093677
0.0402024058211986
0.0417110096223242
0.0405762644822359
0.0442073885238855
0.0378943089642335
0.0429693712212221
0.0423218468415063
0.0425940349153579
0.0409199553620262
0.0429444199855055
0.0414198958562515
0.0425027120998143
0.0411197873887612
0.0432756367793727
0.0416353195682286
0.0423612226409913
0.0367830572952863
0.0414811936136709
0.0403583093145184
0.0442317001248756
0.0396986984693584
0.0438768143459395
0.0383958305938299
0.0453304389530078
0.0365996232319856
0.0418542076024717
0.0391103768734469
0.0412960674126885
0.0365447764531883
0.0415053084441133
0.039594399271567
0.0420638727921575
0.0406896959121188
0.0413183501876133
0.0396398719663861
0.0394823625026979
0.0374986985251316
0.037415778752874
0.0347283015514
0.0383413220302668
0.0356534444639169
0.0354929030564746
0.0348248576646489
0.0407922895299903
0.0361306829225979
0.0404729483983138
0.0392964234869339
0.0388049692725065
0.0341899827398915
0.0378675421065122
0.0339767732602977
0.0379593893342737
0.036842887806973
0.0385124206996847
0.03518716512318
0.0391602063109177
0.0343757598164001
0.0355513679779534
0.0382844947016674
0.0395828293456181
0.0355300184616007
0.0370308974244506
0.038652914321939
0.0364044719853064
0.0357734450152633
0.037052061724875
0.0354793973573212
0.036609709766492
0.0308786578069342
0.0373687060979069
0.033889992795837
0.0343183574853063
0.0358289352124392
0.0362203671891863
0.0327846348339152
0.0349787376850935
0.03288347249522
0.0356178952648052
0.0317855277594216
0.0361108195705478
0.0359341010431588
0.0365819644701719
0.0342162132439404
0.0371158781564028
0.0344185631777227
0.0365402307760595
0.031901007358001
0.0378461414675879
0.0325648605699207
0.034345921807602
0.031711544209539
0.0366398105846868
0.0317499769559802
0.0354403521243658
0.029938990489364
0.0374600909812321
0.0325499327490273
0.0355518151181968
0.0324450848462469
0.0332785802636777
0.0320309174329141
0.0339826598218773
0.0297612816618549
0.0345334879237481
0.0329427953375388
0.0320234302544983
0.029594264778418
0.0338686397642948
0.0282446178465625
0.0327314149713288
0.0278129041982869
0.0346478745882414
0.0308706583472001
0.0311840749793706
0.02889887790382
0.0332326777241763
0.0294091615674067
0.0315407196108008
0.029902044760388
0.0333325916839238
0.0318711432285885
0.0319228828616503
0.0268391574289183
0.0314586714962824
0.0326051396999875
0.034044314200159
0.0307498227149732
0.0335081592222874
0.029068507988557
0.0306933552673055
0.0305203486940341
0.0315998011173884
0.0270275788352661
0.0303398545503886
0.0287299412593768
0.0324883417830441
0.0299914321384783
0.0302209683513147
0.029387752764831
0.0323044886042693
0.0306306667013338
0.0319251658383929
0.0296984735769862
0.0330357147500841
0.0332807315295399
0.0353877574637363
0.0339820420215629
0.0321350748904945
0.0316190723302956
0.0342891927582164
0.0307068102264547
0.0356217812147935
0.0301281530597103
0.033514793958152
0.0293041704262809
0.0345345875957893
0.0316770255247032
0.0322323111581727
0.0251755561061495
0.0289170074821719
0.0294626071620843
0.0320415371911748
0.0282000265327781
0.0263704809422865
0.0305020563558803
0.0280003501799481
0.0303926859968058
0.0370460905578411
0.0284022089845826
0.0312524655385571
0.025914689057651
0.0287970244969022
0.0356732892783459
0.0296293972209421
0.0325237881656575
0.0314824478347331
0.0268626402611679
0.0237739024776154
0.0308822523783422
0.024733525726041
0.0290010777704735
0.027365702236284
0.0309845094373557
0.0243132326863032
0.0354815613504321
0.0266545067409895
0.0326222065684471
0.0226890971472573
0.0330978649429296
0.020246314668866
0.0390013010776498
0.0163913445795265
0.0392204879648568
0.0161441864696981
0.0468861823850052
0.0197981156672994
0.0528403943356421
0.01445762383713
0.0482511492164125
0.0141887846293582
0.0535928631916054
0.00946967124168636
0.0496640518724367
0.00876168843771134
0.0567530691890203
0.0116219466120177
0.0519498811730671
0.0156919749010223
0.0459830346660059
0.0260401442291237
0.0336226731058633
0.0324730716591797
0.0285353333404312
0.0357659981790727
0.0173104111535578
0.0427809362981248
0.0171624539426235
0.0468293490244022
0.0171440267650896
0.0417662825677719
0.0195275525853706
0.0348246996881419
0.026097974054706
0.0315498262947161
0.0287532286443421
0.0246264787429193
0.0294023782814847
0.0276970876087492
0.0265655711357265
0.0292337269236566
0.0258378527558045
0.0314086107284852
0.0220047101006363
0.0302891479569806
0.0239529186720456
0.0294800589815886
0.0249539332030011
0.026984773399515
0.0235650143621088
0.0261192574654103
0.02559325477029
0.0315139452352277
0.0245436739952834
0.0279681634431134
0.02560609833009
0.0286345686804107
0.023938209651194
0.0257479390153035
0.0252058890853257
0.0289006308399468
0.0230086957943097
0.0271091853890166
0.0242836833166873
0.0258128499127491
0.0225240767232881
0.0276489328753182
0.0220412595250959
0.027587853290144
0.0238555730944027
0.0287108591993359
0.0235739348040145
0.0272789435679852
0.0246654943919788
0.029683115504725
0.0259626020048119
0.0280751361809137
0.0231843985471457
0.0262290523679763
0.0250201833623972
0.0271531845152262
0.0267537049536663
0.0272661638257743
0.0240036829646741
0.0262424678209375
0.0217821625712053
0.0269988832508696
0.0247509838216803
0.0269776381185849
0.0238527103026634
0.0289361738531489
0.0239262805912731
0.0266763150057258
0.025489242046104
0.0270321711214771
0.0229172646290655
0.0270401504247902
0.0265391723451369
0.0277607881880827
0.0241724353579125
0.0276339928217188
0.0244173812206854
0.0272926803716354
0.0213946094059073
0.025316421053384
0.0231235980909482
0.0261212477003024
0.0203995860222302
0.025305220865048
0.0257784758203635
0.0261113947046597
0.0218430639969159
0.0274554302691536
0.0219676698840947
0.0253572352350488
0.0248012553162202
0.0281232571340182
0.0237628795215854
0.0265056347963565
0.0262008103673724
0.0262635914085685
0.0239250168921613
0.0278698491898625
0.0249357215817117
0.0266502912571799
0.0248011852968177
0.0265515083496472
0.0245160262860434
0.0251320393147357
0.022496115306988
0.0241723596839954
0.0248962938238183
0.0276408288234365
0.0246763781213234
0.0287051768204729
0.0255953477539261
0.0278413342760962
0.0248186618370601
0.0257279000371365
0.0239419017042026
0.0258400105382479
0.0242004040092869
0.027112431812831
0.0216091109498017
0.0259704548112406
0.0237166648662274
0.0249869748687589
0.0242925518826379
0.024495161767636
0.0220111230498009
0.0272091774733538
0.0237414393074212
0.027056813943815
0.0242639836448148
0.0242408067357413
0.0276319258838032
0.0233962903635156
0.022240968852762
0.0257397729738093
0.0211155365618738
0.0259420176127382
0.0222525149165484
0.0258291249446005
0.0236910484687424
0.0238711283081124
0.0232826395575557
0.0249108185083775
0.0230894376144082
0.0261917549070164
0.021326342585111
0.0260893765518558
0.0242917058606299
0.0240767819799723
0.0243236204958877
0.0263957289426826
0.025501613598197
0.0251140311675853
0.0213653304964182
0.0231606131947393
0.023394269055927
0.0270691552197776
0.0241348204254512
0.0264881783989913
0.0250835995290455
0.0264065346507065
0.0240733907063992
0.0243078976208831
0.0224818165894237
0.0270748851547731
0.0251745797470016
0.0270415409750223
0.023782846206383
0.0248495715165329
0.0209566779592618
0.024955966381616
0.0239556588684902
0.0251909610606894
0.0247362088598045
0.0286406324333124
0.0247316791076732
0.0260701409384517
0.0251693341063293
0.0254005930735859
0.0226921253747905
0.0280525760809991
0.0248169949132854
0.024505014515132
0.0232572559630605
0.0235942176685512
0.0248212760514865
0.0269722781716711
0.0246866404352284
0.0244526290133382
0.0234904068299215
0.025905634849392
0.0222647493921807
0.0255700943837469
0.0246081350158419
0.0241397878832663
0.0232672513767809
0.0251757524155761
0.0216542589465676
0.0270062166030239
0.0232324994138505
0.0247709993121495
0.0248176124789542
0.0256614050878469
0.0237188842403907
0.0256370338891565
0.0224690866671635
0.0226872979812029
0.023181087330956
0.0244478341275958
0.0229269715075301
0.0236951206865668
0.0200401831941188
0.0242110814265748
0.0235257559384852
0.0244666759661741
0.0227791253562547
0.0240493647623237
0.0220497361482955
0.0227934142153922
0.0214170709653579
0.0230023587608444
0.0219741050814381
0.0230832431831233
0.0215063412742851
0.0260993506802188
0.024092449461171
0.0236698213551961
0.023027291781397
0.0237038365473864
0.0222176199754643
0.0243961510747007
0.0237599578216212
0.0247019241385485
0.020469174865398
0.0215495645762604
0.0225493850195907
0.0238841072903601
0.020590742368312
0.0223677030961797
0.0237853830671772
0.0262799384446414
0.0236006783035782
0.0233859246706821
0.0203772982862611
0.0221409032358579
0.0241357866543779
0.0241889280341386
0.0233761857822353
0.0234397526634931
0.0198740355797397
0.0238140631365951
0.0217377854748383
0.0229561140619638
0.0211659519210555
0.0236055463509466
0.0230283200192917
0.0242461988154866
0.0234886193672859
0.0239601817788461
0.0211135007150449
0.0236496812439133
0.0208202119544022
0.0224717965420432
0.0213242526482418
0.0226000683902979
0.0198708837251735
0.0230668790907427
0.0222926956548257
0.0255081769493177
0.0261833996885937
0.0232994689497304
0.0240655890153136
0.0231305789608252
0.0190197515072034
0.0236167721471539
0.0220158959860236
0.0228262223711047
0.0221147126044676
0.0232491639666241
0.0234625008916475
0.0233695140667525
0.0193539509692203
0.0196553905714178
0.0202787301216558
0.0232408580161886
0.0214808618731483
0.0226618522462387
0.0226341596914547
0.0235075084943606
0.0223356692584977
0.0238098669702475
0.020700457138694
0.0228529230758029
0.022441540356151
0.0245650399217484
0.0226150179538488
0.024408430587017
0.0209190705220014
0.022814998613803
0.0213653721576334
0.0226222697668948
0.0237698383448219
0.023401607329236
0.023038096365315
0.0214864721732544
0.018682085889997
0.0239336952906826
0.0232005086152282
0.0229709494722307
0.0224465502603824
0.0240541923809567
0.020634252213555
0.0229524094032699
0.0211937359983466
0.02203358434792
0.0204191282176506
0.022473056655429
0.0207436046623616
0.0246313563986369
0.0208502510401461
0.0242693243897756
0.0216953311769978
0.0220647398772951
0.0196798292768597
0.0199126890321758
0.0200353807768006
0.0207773064933861
0.0174119276277522
0.0198820567372695
0.0212379497442353
0.020882997073872
0.0192987055522951
0.021008740837452
0.0204787720305511
0.0226089620259176
0.0197826954948204
0.0186661761110672
0.0197139968332583
0.0189019196296872
0.0198344426083131
0.0218896617862261
0.0187829634499051
0.0201389943912422
0.020254877495934
0.0219802378056847
0.0185588944978911
0.0223520586309691
0.0287224221225403
0.0219487941059462
0.022113797291852
0.0229057630203449
0.021686966317146
0.0220625440116054
0.0190629807937434
0.0198011311597607
0.0218640642102899
0.0202342541425041
0.0208998233818683
0.0218147766714425
0.0182131537638541
0.0196380869168733
0.0215143320760933
0.0211027279642895
0.0190667221586076
0.0206547642978766
0.0189755111288911
0.0203980504930977
0.0192613186118499
0.019774265141452
0.0184181876882936
0.0221836925639103
0.019800896758058
0.0178526253290429
0.0246636679131576
0.0233312647530716
0.0212314646841826
0.0195649563554271
0.0178164592026073
0.018531068587779
0.0204689609887327
0.0212850124950782
0.0194315059259432
0.0220467857347062
0.0191171965781091
0.0210346178876715
0.0205720172419544
0.0231128897258535
0.0181210812502608
0.0181443471916482
0.0208939051363353
0.0188610083533218
0.0195452415128639
0.0201285577145421
0.0185812750834288
0.0186365246933247
0.0174978882468179
0.0204216858085535
0.0196991651693252
0.0189853942650202
0.021130111560677
0.0309546808908542
0.0193992217242002
0.0198535244710726
0.016246451177597
0.018741996393832
0.0187438762718351
0.018932385644325
0.0170680523710482
0.0197801026318389
0.019840428315669
0.022498801834363
0.0198914283204137
0.0199199674522299
0.0196719927437405
0.0201915462229436
0.0172711449449812
0.0158298071475875
0.0171317617274875
0.0197230713122306
0.0162323416641272
0.0202365168551743
0.0290841032144039
0.0236550209322483
0.0170097448142132
0.0223558132631542
0.0151422825412657
0.0314286146581639
0.0264225571778823
0.0194129479176911
0.0195704422880558
0.0176674477077033
0.0205111127162972
0.0181552245868379
0.0176929638404742
0.0186725688813792
0.021608647897197
0.0187671160202507
0.0223841405845933
0.0189385081889017
0.0177297582377973
0.0195476423867053
0.018731723662571
0.0187856502702115
0.0196507190166759
0.0183141822929374
0.0172368971352208
0.017292730307866
0.0176997594336876
0.0195750677935299
0.0152850703771366
0.0198986873573727
0.0257393398258995
0.0183603086834104
0.0188141292747173
0.0213878629923054
0.0185296390208796
0.0200530244863459
0.0293230845946447
0.0205922596313915
0.0191917933407265
0.0198220286613259
0.0194427020933098
0.0197800364389187
0.0185804660361983
0.0172318161278774
0.0167560908886209
0.0181430105355792
0.0197337125746338
0.0197832286353374
0.0182261506257903
0.0186280022733347
0.0194721941976583
0.0173828043713184
0.0187604348126106
0.0211857335382879
0.0170504486704536
0.0193893785895465
0.0163687064269777
0.0230869475004482
0.032388438092645
0.0290661517627159
0.0264759117294041
0.0207670140960885
0.0187956800100097
0.0179250832715922
0.0191698732169358
0.019330011120366
0.0207158421003587
0.0193122678391795
0.0204725798145907
0.019871006194212
0.0194819771875098
0.018243691924303
0.0181091882229615
0.0167333956411279
0.0202783975244316
0.0170664079129015
0.016862218814196
0.0150378530972318
0.0163362412099328
0.0165082321525417
0.0240684925005327
0.0223842312416512
0.020131581517663
0.0139769658589168
0.0312031910900079
0.0391942044505974
0.0204583983282342
0.0237359329353798
0.0166845753907163
0.0176782951451627
0.0170824912629677
0.0185647230982366
0.022142086136006
0.0199584695234674
0.0174225168480926
0.0180995561880307
0.019126451714834
0.0206363354808087
0.0155539573147748
0.0242674521142532
0.0382811145878775
0.025312597374536
0.0204722425481681
0.0173683033390508
0.0244793080372138
0.0364646417303128
0.0215692997976607
0.0215101461749833
0.0213895811611323
0.0170267355128643
0.0188010183591133
0.0186306269468217
0.0178501688529545
0.0218052005606768
0.0209685345077805
0.0174429191122122
0.0179128836989981
0.0180978845505319
0.0212080545814142
0.0206845686499259
0.0253018254975815
0.027439190261249
0.0188155124636614
0.0218799392781287
0.0219740855343318
0.016626146389938
0.0188896442520421
0.0180669679229199
0.0165806783823809
0.0232008692044971
0.0289925512601882
0.0218043597968107
0.0285265205935461
0.0284484958515406
0.0176306928513052
0.0204835423400203
0.0257061921534275
0.027429786464587
0.0139440120324663
0.020800729076751
0.0414199825211492
0.0374647288062251
0.0362087144352344
0.0218137783032672
0.0200564839929907
0.020126106478751
0.0164170632380091
0.0214734035376839
0.0354514295674716
0.0246356831228464
0.0212441465326555
0.0163948591454006
0.0244222477293118
0.0307418229718486
0.0231029499294947
0.0244103721657821
0.0196602497060911
0.0193888786854187
0.0322636213284715
0.0232173173406112
0.0158433642072801
0.0332437771882303
0.0420210418595079
0.0423961871524141
0.025245962411281
0.0175123634147453
0.0380775209238816
0.0298039501456365
0.020978271191851
0.019200622030458
0.0226945355866675
0.0193561529611384
0.0269667311765592
0.0461685359779275
0.0258462254685681
0.0225434170122726
0.0252738377118347
0.0198975172441984
0.0323284200106159
0.0290269257032884
0.0212558490085835
0.0235120315205225
0.0230231210657735
0.0174822644430515
0.0548519459734126
0.0388203964139626
0.0338641496943517
0.042714417856576
0.0372636492088906
0.0338491083015505
0.0299968444064413
0.0268318383709087
0.0353353294503273
0.0388999909292811
0.0298640327755698
0.0198971453647513
0.0365570601411829
0.0402853151544764
0.0296309783996961
0.0298049316784471
0.0233007907768584
0.0182219092220079
0.053268250731397
0.0650028907494302
0.052304161823786
0.031067846040916
0.0281536772415431
0.0462669729150629
0.0346335524433206
0.0248704524060344
0.027505650900023
0.0267922120994621
0.0283068878075287
0.0251971706111186
0.0320358445192685
0.0283572850967776
0.0309691109666175
0.026587146048689
0.0300611037163055
0.0369002071365275
0.0618961933618951
0.059449728474924
0.0358099792718825
0.0481968059288072
0.0534919818184127
0.0415867867364381
0.0322469161854513
0.0278346666820166
0.0366196953411554
0.0373497621922732
0.0341715968053415
0.0304704498185993
0.0444567571114568
0.0446793108162633
0.051622002591468
0.0504163979280753
0.0432732778832099
0.0362494683052068
0.0360176364478818
0.117410431246739
0.068985543442525
0.0542995479145008
0.0466236633450011
0.0515567631336461
0.0952870410586205
0.064415112141673
0.0498253178211852
0.0567832150177012
0.0475048718367828
0.053410934644497
0.0555859567382388
0.0599315461385921
0.0679992177196649
0.0626660225203455
0.0532289850616456
0.0679336339656516
0.116587255043135
0.11149509784065
0.0826610923021216
0.0689725704265641
0.0794299265765418
0.085326931871459
0.0720190549297398
0.0819051704030538
0.070024060405778
0.0879908746851174
0.11644010803418
0.0954483628462913
0.0795023811584722
0.0893313569084519
0.102739338149264
0.0866795412372557
0.116965384607036
0.109581686440587
0.100552865978092
0.0922719541518
0.0987810789708018
0.098594908138519
0.096810963820384
0.109000011338437
0.120316646353123
0.107719417541753
0.107390857980721
0.109498605026182
0.106015995330738
0.112419481630089
0.11351091463318
0.10806773458026
0.120117774695221
0.128967412623606
0.198375558411223
0.139462315170378
0.126734873743576
0.113178042269136
0.123349478817344
0.134252740628077
0.128624422282641
0.145231360783471
0.127758764167506
0.117062861332701
0.119371067580392
0.117232076602183
0.113281196385104
0.111822894451382
0.114225046098179
0.107588145000843
0.12714422949144
0.106083718454476
0.144609293698296
0.15246720769286
0.125569301679086
0.111540252872224
0.112840894289961
0.105754093841048
0.115241750385307
0.0988402121769854
0.114724332871176
0.120488406882458
0.113684757370049
0.107526066569133
0.0975696179728959
0.11488394142184
0.121148262129866
0.105925321583214
0.10243180444926
0.0933377106692475
0.106140826010363
0.0894188479169831
0.109300566578174
0.122975921837474
0.104692364670773
0.0953797360462598
0.0970642108706317
0.0939394980168195
0.0924976618630854
0.0925879548080484
0.0997634584010625
0.0915782558381201
0.0939386067583788
0.0961234632646044
0.0922938090162689
0.086956392272044
0.0885291190045977
0.0927396536395887
0.0900992874909808
0.0927856155232734
0.0902253061189479
0.090473323073962
0.091941731158071
0.0895337569510229
0.0908125331216516
0.0878548062704221
0.0940800272763568
0.0938899487580382
0.0937389208881811
0.0917011242416064
0.0880548737172252
0.0911556948792485
0.0893361197624226
0.0882890581541935
0.0911757389821205
0.0894845670630473
0.0900944908115389
0.0874516429653256
0.0878513392215132
0.0911547607873314
0.086027748394642
0.0891606189681266
0.0886942484592867
0.0899855665070293
0.0923157926154507
0.0767236677650417
0.131005288060536
0.0988644003378953
0.0948413713132546
0.0855813192156864
0.0939548400204069
0.0812291840055725
0.0796942164221905
0.117425012061625
0.101990540667582
0.0891843978716624
0.0862093432792062
0.0755064449141334
0.0959539959121514
0.0877303458452081
0.0838644007100821
0.0838042333564263
0.0700620537082818
0.112774546317367
0.0972532470135632
0.151486555077044
0.122412428030059
0.102774482722836
0.079268367554746
0.0998211389180107
0.10061952428836
0.0863322124914313
0.0872394823230369
0.0759280373115914
0.10911190509835
0.0874232570038922
0.0869004824329505
0.0774096264503077
0.0765192543437331
0.102292206387304
0.10867880706816
0.0846299893248499
0.100693030935122
0.101753627234855
0.0915329559422456
0.11340949751476
0.14033153545309
0.101974813141288
0.0779696007511249
0.0776672625031013
0.0700280518476922
0.0734838709234991
0.107805904849153
0.0850310521670724
0.0899712544710024
0.0702609445820105
0.0798500333080398
0.0713948384790625
0.0934939268664874
0.0715888125986654
0.0867279294628056
0.0982917519878734
0.0691551376848324
0.087011124261774
0.0778621526159209
0.105456003845437
0.104166653761148
0.0842441928978309
0.0598370150102938
0.101515775567677
0.0935574220262917
0.0803202504391975
0.0850743805893769
0.0605614666705911
0.0696210802445863
0.0782417026657169
0.0641098071755444
0.0803706102328035
0.0807977487512646
0.0862227405776339
0.101016761257145
0.115522652585892
0.104608924159012
0.0701138986489269
0.0587530383341039
0.0556865170705713
0.0600302191236249
0.0618920156212144
0.0462295429946093
0.0970849283537026
0.0606512167226943
0.0538711949597991
0.0829272523215012
0.0689153135219524
0.0548629714603624
0.0584583120942035
0.0535700918110568
0.0550645392961168
0.071781865133092
0.0940107709649836
0.0624662911249015
0.0792850187518199
0.0783375278721137
0.0708076085276932
0.0646872104902196
0.0664478912317391
0.0617351967582219
0.0667014929711795
0.0772459294878067
0.0682140045137175
0.0649707373926736
0.0742476292500768
0.0578366932796317
0.101044412474772
0.0893663797168998
0.0727172967038239
0.106185128699411
0.0869823526692069
0.131450441135554
0.0906601855421309
0.0911653769627114
0.0829111483283927
0.0862806475224552
0.0907191753103519
0.0796064025998637
0.0999183793672529
0.117126350472587
0.0943568871359236
0.096817731320717
0.0916273880947287
0.101620005289382
0.0919662545961329
0.130157613635753
0.095558604489795
0.168573169265291
0.121496106868246
0.132374613462541
0.105965167223552
0.100014253252293
0.112771271767684
0.105393143388253
0.106377969235682
0.0987306948002372
0.111335867068757
0.127494231132325
0.104258276940282
0.114307702368172
0.10436625529153
0.108283670710423
0.107491540820169
0.10998248887542
0.109231984601389
0.111113979770028
0.115724502658089
0.111487063174823
0.113473243259652
0.171574685814717
0.121206146007491
0.127182114649871
0.115696575624042
0.131575618880523
0.115421676260773
0.123362946390505
0.134936195817558
0.129726402100221
0.126442834895845
0.124277933505111
0.118940162980255
0.123696007744911
0.127263570165447
0.147108605183772
0.119664710965733
0.146226669916464
0.110389838252258
0.180077034923462
0.140776463973583
0.151347753587594
0.144232613218995
0.137376332292094
0.133719886927078
0.133998168321687
0.129629936868248
0.136055674565699
0.137064009091549
0.132196811802935
0.136162600841666
0.130183171845683
0.138059216791715
0.132336397648246
0.133906267097883
0.15258197743587
0.134954767098035
0.138095548929282
0.133157495589635
0.135765504459971
0.123390495536792
0.159295938378837
0.140224661783007
0.141937444069501
0.131076066775227
0.146722652167903
0.150159159559352
0.143809185982015
0.127940045145289
0.136852607288928
0.126021109822903
0.139045391700838
0.121912202177888
0.147741790504888
0.15154281415357
0.140914040612947
0.133752844991245
0.13449927037888
0.130950164691448
0.136377653262718
0.13075418163453
0.136589098789267
0.135247221328879
0.13552378986272
0.139665171756302
0.134783083957525
0.135863867830501
0.139826742228185
0.153616828067974
0.148953968970451
0.132101939705836
0.138166747345185
0.128171002513188
0.132137549941258
0.129718668872024
0.136953746772331
0.12433665048891
0.132167881474601
0.11931954350841
0.127767515241589
0.142208058867731
0.123760393249421
0.140039415899736
0.115774720936768
0.121392198136657
0.117374933227604
0.120745766117067
0.112142668481384
0.114626752235426
0.119326896133797
0.114505205325074
0.114101860158087
0.11117944591202
0.116220934511987
0.113694068924717
0.113642751595158
0.109232822812132
0.111962898069515
0.111595787330365
0.110397831209355
0.109036662287632
0.112294922115381
0.111863582132739
0.10671466225075
0.119929707977661
0.117859588440274
0.126067115690156
0.1131041550909
0.116747820878667
0.112869244816183
0.107908635770253
0.111933597546863
0.105429726910522
0.111285506144216
0.106474097173583
0.111013681000765
0.107235139836843
0.11088859067112
0.107768452936951
0.11061687923815
0.106843754187601
0.110146976418364
0.107688139630159
0.110418653868805
0.104627950122008
0.111724937895818
0.105883691143992
0.11515332047349
0.108431706980617
0.112871880135219
0.10897808759066
0.109498417208263
0.109461803731722
0.109570739622428
0.111146103883377
0.111155403016811
0.107333421449027
0.104127491963723
0.107417299554185
0.110949978578276
0.108205036922782
0.105759763414371
0.106251983740267
0.106117297012902
0.104728907025412
0.106694515791094
0.102460724733868
0.104909723066264
0.101474482359308
0.103152522438235
0.100781069062679
0.104037103070683
0.100396311352862
0.100777937873224
0.0973109723625511
0.099030346769604
0.0947149979921633
0.0992732177442337
0.0949896936119681
0.0962367233327323
0.0974862714130232
0.0955273445049557
0.0934448120106724
0.0951439914072117
0.0917579771405988
0.0943873624633549
0.0907793926271472
0.0935393228117455
0.0932033328732833
0.0935445156262789
0.0912460238815054
0.0936955001635119
0.0914044318068057
0.0958653184341063
0.091693122319731
0.0938918491431552
0.0948477135620475
0.0975217800730964
0.0958708514032458
0.0957847018157598
0.0965957717230209
0.0979774507726201
0.0948836778787769
0.0990249567155338
0.0997746222566269
0.0983052747764292
0.0989089219619052
0.096756237049812
0.0979547683099759
0.0996073922772498
0.101003963075663
0.101564335013375
0.101129770321418
0.0985427132265174
0.100027837921014
0.0985298133801668
0.0986932032917503
0.0998401502359584
0.0982891302374907
0.0997038196053034
0.0973202359668371
0.101253921486533
0.0976901634854353
0.0981684492318433
0.0968542831247581
0.0996435784861113
0.0946437737031047
0.0967413602573611
0.097038087578426
0.0977144749212121
0.0950232976205289
0.0942953801426472
0.0957684501832689
0.0955884106131378
0.0945063533531429
0.0945179638111158
0.0939810304098047
0.094488893892908
0.0935014469465602
0.0959110990678463
0.0924402552447649
0.0941405888147345
0.0924023129219333
0.093767943100489
0.0903504607754714
0.0918591002763125
0.0911401241692903
0.0924262415519824
0.0919208164254907
0.0903021049875433
0.0900652832190637
0.0902221410029832
0.0888405961599427
0.0881336309372389
0.0891562807888121
0.0897064497886563
0.0880218982164749
0.0884414298361624
0.086207437276822
0.0852474023655181
0.0834668732369581
0.0858043763763745
0.0869736141063702
0.0846387562220968
0.0828756365224751
0.0828322601445123
0.0812032377704393
0.0831088074267323
0.08222447220713
0.0837787879358858
0.0807926359771459
0.0825443555857124
0.0813912886553339
0.0810450932159877
0.0804875504280039
0.08295817037578
0.0803948329733131
0.0811714919525199
0.0784830339544359
0.0794085496655786
0.0795842780153537
0.0794281293061472
0.0781325146826116
0.0762417252316663
0.0761188548300981
0.0761190880998305
0.0755506676001213
0.0744490087396507
0.0742130610609512
0.075570353257139
0.073203101876671
0.076126308776269
0.0768933004147083
0.0774349136854229
0.079007310653991
0.082733063759048
0.0820780238392863
0.0874952640874932
0.0886142678970702
0.0920647454786137
0.0957059610216416
0.101508896881039
0.105305020651351
0.110248664621531
0.113740204500149
0.117081591144028
0.12180046295174
0.127040043639589
0.129668432907359
0.132271889828742
0.13593417021818
0.143275409743537
0.14428589039142
0.14796936645764
0.151811683291234
0.155576134662994
0.155142340825151
0.161763373555137
0.162232844135212
0.169768329128069
0.168061468204903
0.171292451582783
0.172217089478987
0.173445842954831
0.174422470197786
0.179740288755947
0.177670703805176
0.178591090766621
0.178972018651913
0.18235265635626
0.181012644660157
0.184459023111224
0.18116952218522
0.181655542980458
0.181072993644604
0.183496611507516
0.181455481944351
0.183580807251933
0.182136298679749
0.183516254536535
0.183406190442534
0.187161567415565
0.188816713070725
0.191838947069797
0.190007737749861
0.193130162849218
0.190280704845653
0.194514512244793
0.194604058213537
0.200033558822139
0.199601403500355
0.204660264068083
0.206341302600931
0.204887930857611
0.212518409846115
0.21317552822113
0.216907129909566
0.219148373689377
0.222103943791976
0.224090980597809
0.225343932809914
0.229966584289502
0.232273532340063
0.232821123116406
0.232860500899055
0.233631631961676
0.233570406655346
0.235646111385802
0.234858275605897
0.232610462315167
0.232053291680161
0.23516219685372
0.231187601381583
0.233981007421152
0.230323638670215
0.234191271902257
0.234878039431977
0.237934221427078
0.239282331861952
0.243925229823521
0.247767125738983
0.251698864934376
0.253251403836567
0.26099299441534
0.262263177742093
0.266573289781163
0.271719654791512
0.275905442602752
0.278193231712452
0.283165182118439
0.288037724836759
0.295998971378966
0.298903276441487
0.30176175073901
0.30445911807897
0.310220336236188
0.313837367409826
0.322339475344647
0.328058202709886
0.32665364080461
0.335028062225489
0.33963216482786
0.345857630477902
0.353750307093448
0.354133857393124
0.359168578358206
0.358343740921168
0.365800246943755
0.369696555281466
0.37372849695435
0.37150427982146
0.378331983379209
0.377859879275454
0.379440862002865
0.380500598526647
0.383577737957901
0.381621391142658
0.38050269553062
0.379298352693028
0.373997057616943
0.370274405052408
0.37099138503775
0.371572047970201
0.368354426924762
0.365339913105123
0.36516754722934
0.367215330673368
0.36559748175939
0.363797055879497
0.36226014115645
0.366425548247462
0.366470463424082
0.366111321547275
0.371780558567658
0.371722589500481
0.373886462041055
0.373535295666918
0.378152084016208
0.377451372673248
0.384215568918554
0.38059172396124
0.385679659254977
0.38742029159766
0.384593439216005
0.383018135061888
0.381242300229953
0.379728045823128
0.379896336646906
0.379804596689438
0.380651870301868
0.37670756796799
0.376900942142316
0.370152200153614
0.378263505188143
0.383686309017072
0.376327352381368
0.371567550987641
0.36961343691179
0.364474876609153
0.359113495823815
0.36110070127603
0.355635213642656
0.351207165565117
0.350845547818152
0.34640806207393
0.340717020106431
0.334520293509714
0.337692265583806
0.325853544987521
0.323351214869126
0.320639583930864
0.31000858715027
0.303650780318936
0.295088537745897
0.288751668953878
0.281584116742657
0.272376027147824
0.261513728451741
0.253984051252424
0.245032377805214
0.233277444809667
0.225242840270733
0.215567901749269
0.209029086055937
0.205215017424701
0.197942565980258
0.190210254711441
0.188265761982156
0.188500294279351
0.181647672852201
0.180883364186119
0.180967666179765
0.177713475191296
0.175870422701255
0.176942390274623
0.170638377859355
0.172992344777744
0.170633103413956
0.168567958413603
0.162376736382759
0.16256171772425
0.161171187048448
0.158509770907378
0.151996866620137
0.149535891029337
0.145603609813308
0.142654058447437
0.138502678597377
0.133692852915608
0.130100202055511
0.122962917326898
0.124063317779272
0.115713956837177
0.10747065086316
0.107034799274083
0.100713188064133
0.100105388140164
0.0909816082120588
0.089999700693251
0.085338312259648
0.083232618433973
0.0781179831621908
0.070672992194859
0.0723537049349177
0.070117403217021
0.06718007091563
0.0612107427453038
0.0609178830878198
0.064177185474288
0.0598501219851655
0.0600773786044567
0.058491131848823
0.058528050930724
0.0539610492372395
0.0570143102343363
0.0539764457536346
0.0521707718199455
0.0547181686704906
0.0535664702102551
0.0561941704943573
0.0547141503661672
0.05463004406178
0.0540215694015508
0.0542052935339736
0.0579731315398815
0.0564688560600383
0.0549422254379835
0.0594652642770085
0.0591066970013049
0.0575480928883025
0.056990295351196
0.0529356958166182
0.0584587564959831
0.0551514988915263
0.0546174509963037
0.056992350888449
0.0528018949256538
0.052381625808861
0.0521043425854811
0.050474894817497
0.0512473671776028
0.0529570388190617
0.0536670042113373
0.0540002560309618
0.053647320447308
0.0531156824194898
0.0541204794133341
0.0560412438154934
0.057906280207475
0.0574765073605071
0.0568786846099558
0.0564252103359979
0.0580589425712474
0.0570868079920127
0.0614970557275716
0.0573885341114226
0.0588932610968432
0.0618988315985946
0.0623212779824366
0.0548763278458625
0.0628397958715359
0.0617941459801341
0.0638914575690064
0.0631383403249222
0.0616782433700776
0.0620683273912425
0.0658557678194174
0.0641668177753975
0.0651513817330167
0.0660453288291261
0.0689668155259722
0.065507141439526
0.0678972083988943
0.0678673917845325
0.0722079930162294
0.0756423551969402
0.0756017142360585
0.0713025876845406
0.0768143540972952
0.0793160659904756
0.0812471270364732
0.0839476589326571
0.0830910236904443
0.0799796597321954
0.0820824750182044
0.0801396680515761
0.0829683842282275
0.0832022856033693
0.0866605609655891
0.079401151478239
0.0810908978925962
0.0778402341508682
0.0756271047798811
0.0748569991935985
0.0775575494401589
0.0724998055564627
0.0727545188904996
0.0698807321143268
0.0690351714467493
0.0680334047997675
0.0697403199244512
0.0738579704217738
0.0712374452751793
0.0689540863714855
0.078026137638071
0.0716945733828285
0.0711154362674132
0.0717906495474018
0.070612341152123
0.0664719211078853
0.0672501389171278
0.0612093680849499
0.0633253381231591
0.0572185521846701
0.0630683382588989
0.0625936625955164
0.0689699767644955
0.0663496291615223
0.0626830756500479
0.0616497816016924
0.0627308828178295
0.0591810505666677
0.0517364267301442
0.0563060755135671
0.06037380321936
0.0559856618014931
0.0648762902802031
0.0603237081583692
0.058592091883645
0.0580008730878865
0.060521236954482
0.0533338178313108
0.0549244626776446
0.0510349090626739
0.0577522862321759
0.0568911414647197
0.0573172081237351
0.0548039634991441
0.0539651483177569
0.0530466110460572
0.0529461720609333
0.0484119387386806
0.05029334847523
0.0518900389862168
0.0569208699914552
0.0503362354034596
0.0492698409138967
0.043516073180556
0.0511283037558135
0.0511023601564939
0.0486751811259286
0.0457787321000272
0.0475260978479571
0.0423365097313006
0.0528177097525491
0.048012538476906
0.0489385621115407
0.0439967868622603
0.0580099263612119
0.0527569071684752
0.0515931454578171
0.0475156395223987
0.0596128333965285
0.0512266411020872
0.0538109600966815
0.0424021245255222
0.054913043438597
0.0525603578316997
0.0523402579428061
0.0497688975377272
0.0608173859244883
0.0490762438620786
0.0592967593511464
0.048717980687569
0.0503401229106984
0.0675398634104526
0.0595684962566763
0.057194481063754
0.065106227146876
0.0563952310935483
0.0565136619101245
0.0658432824036171
0.0706858381431143
0.0674793848736653
0.064122997021405
0.0666405620872352
0.0724860620628903
0.0662859776247239
0.0760998948823203
0.0718723195816807
0.0814962520480955
0.0832834779977243
0.0830250670358043
0.0856286800088811
0.0894070766073705
0.0907834002240358
0.103253153207512
0.0888320113107075
0.0993153624143944
0.0964364968179369
0.110329104982361
0.0894581655109235
0.104653636683435
0.09998755421782
0.100941539662461
0.104734826254298
0.102667278337267
0.0887840463237554
0.0964221834856139
0.0888738821183448
0.0968529544920057
0.0872737251988459
0.0935070266254171
0.0971953938730842
0.0961171294576771
0.0821475951782851
0.0844182804778014
0.0786612884582388
0.104470860852104
0.0836215019262213
0.0872014559562459
0.0809887894219456
0.0857568883759996
0.0833615696932776
0.0898501513660726
0.0684068081587712
0.0775051814437579
0.0899865748414482
0.0864656805459852
0.0788436972535228
0.0724346444503246
0.0684957651525944
0.0910769417664038
0.0708410405156613
0.0948987186582934
0.0762283920271606
0.0855893814589412
0.0798826843251102
0.0901798814352846
0.0532538547927803
0.0901850537644002
0.0882856393741927
0.0626271122400399
0.0708763141967752
0.0905661358109407
0.0722763021620016
0.0961176195768554
0.0880662247399248
0.0842812360005684
0.0810777794592925
0.0850584017528821
0.0688693309064677
0.0805768708174419
0.0612160868963531
0.0766627380281838
0.071121423074999
0.102179163508003
0.075855200714032
0.078450328520423
0.0756164130962613
0.10088760622332
0.0852383626649983
0.110987271712771
0.0875474260706107
0.0890866293991013
0.0699982492688383
0.0901542910073343
0.0878403143942492
0.0858076562784174
0.0988441860819165
0.132607913026277
0.0935345264680147
0.0947457143482409
0.0829965943998408
0.117122223457699
0.08087257304229
0.103731028886179
0.0889549380738541
0.13003610469132
0.0720580411857933
0.105099305649496
0.121342150944312
0.100317967204235
0.102305352361615
0.133349139516356
0.124921876530413
0.134722780717448
0.125798368762137
0.118774348446481
0.111025123080568
0.106803312716049
0.107171356912623
0.148134432160914
0.12303536084394
0.143424378905882
0.135754414011545
0.101554862507912
0.0791447407839171
0.114792839814114
0.11178577030493
0.11718092686083
0.12504496499492
0.122390566428019
0.0883649913191681
0.101206718414727
0.0963772903586922
0.105836221965994
0.0821725617402833
0.151085157691375
0.0850925852821591
0.119208983075302
0.0910325381934115
0.138843547487015
0.15941951155548
0.122941439003937
0.125341860273137
0.132926165397172
0.0563674640135307
0.0840618636334528
0.0663397491439382
0.0817579341991816
0.118981807918372
0.122372982420847
0.0232814322515658
0.179683644757535
0.173498462558356
0.173422037626007
0.15786876567954
0.170357761544596
0.10794904769492
0.17346468354884
0.0799484635067028
0.0829385877326217
0.00492936877184042
0.0647257504749768
0.0471208386313526
0.17187219739231
0.149690497009293
0.132841509033565
0.0792040254490892
0.029625180313219
0.108886497215499
0.0706101100111329
-0.0805903069148446
0.274951031625737
0.238322204245072
