3596
4000.36533379555
650.420452594757
1
2
2
0.0476356019046558
0.0508990893520316
0.0565326620022245
0.0534521172418053
0.0600177575821403
0.050825995747544
0.054802347786312
0.0546933644190174
0.0571162879334013
0.0504232124912542
0.0613747416148108
0.0587806470834377
0.0533267613248009
0.0505703620992714
0.0545573363598975
0.0496136064321587
0.05148190360443
0.0493642318015845
0.0586524847980698
0.0596535989224071
0.0589936744134085
0.0531627756481508
0.0557511895030269
0.0491966856517521
0.0563019602822906
0.0543333353167479
0.0542584470786125
0.0531668991712798
0.0715368664520193
0.0612908446579241
0.0597505373802892
0.0511187248529794
0.0610504437728621
0.0504812418221346
0.056632200432364
0.0581797443216672
0.0521280379914565
0.0577702862327184
0.0509742712168149
0.0579163721805867
0.0643239668741483
0.0514491771128048
0.0628987761195462
0.0598213969019866
0.0556344336783114
0.0543397628424974
0.0632522599788446
0.0536651072151895
0.0520092734264247
0.0550007870007675
0.0616136967947928
0.0472425283542769
0.0602246452928281
0.0642636310833854
0.0619726768540181
0.0646896337548548
0.0610392448253356
0.0553955623144275
0.0565623144843507
0.0563621838591398
0.0675969288272997
0.065100377516052
0.059557433403978
0.0523135786018543
0.0566761867041252
0.0518666332964167
0.0640020541000434
0.0462939692279742
0.051540231350676
0.0517280746296951
0.053488375383803
0.0708645071041794
0.0634887687358729
0.0497899734886818
0.0617565324413014
0.0518711473372532
0.0592806519070945
0.0471296059868856
0.0469087886542716
0.0677157921392049
0.0706463239276794
0.0523184677424381
0.067307260321505
0.0513526790785565
0.0598839833238846
0.0649787898163583
0.0532902192633699
0.0560030006518836
0.0721329106351233
0.0551325685309256
0.0591512816929608
0.0469202184942654
0.0516228488209766
0.056818103722625
0.0558419061568854
0.0429400336811265
0.0522498063683174
0.0548982330246825
0.0493267601946826
0.0597055854854339
0.0587492134202606
0.0673122578848852
0.0810208175956272
0.047990504984222
0.100469151542225
0.0645698120075255
0.0508233627307282
0.0946407132992473
0.072729943451987
0.0583464846442123
0.0575236469571931
0.0524539573516834
0.0633075250102557
0.0555496590980413
0.0471425872908196
0.0650085470676725
0.0809621036074524
0.0596400252659244
0.0632352783992135
0.0459136649241903
0.0378025677202116
0.0744310448378885
0.087770072244471
0.0526656469109672
0.0581283165542317
0.0559837531750193
0.0522048603923042
0.0849684728556466
0.0843718070287865
0.0585243127821404
0.058666926902781
0.047437545889027
0.0390293845293023
0.0536510004618359
0.0843994250808111
0.0612845844250689
0.0501760036116811
0.045436845248819
0.0709211668696672
0.0915812146602609
0.0792404504675074
0.0530607907895278
0.0476318814274932
0.0460996298636481
0.0796802697239706
0.0529364516952566
0.050508694728224
0.0654290972284024
0.062746567891959
0.0516893708074716
0.0468207214712446
0.0416047105123643
0.0649766251792624
0.0607419184334765
0.0195709171208413
0.0903908357366131
0.11382748186415
0.077975844281583
0.102290131780224
0.0616034680995089
0.0599502180726034
0.0597432091516953
0.0545257634961111
0.0510453383385741
0.0526155472114301
0.045332167730231
0.061740733882524
0.0734231594497426
0.057225330500494
0.0531014241274072
0.0812925888933531
0.0475448565453562
0.0506323052804395
0.106826795740092
0.0718185121407271
0.0361381214814541
0.0774704406097379
0.0686754351910015
0.0449211648348508
0.0622840208678195
0.0797014031273895
0.0500561327706391
0.0531109754879039
0.0460452935839296
0.0493974281124734
0.0650045640174154
0.057430481303052
0.05302014112876
0.0466260526859646
0.0347320681396431
0.0465605990912744
0.109971773626713
0.0863117922603161
0.0594759344572648
0.0602710401947552
0.0248350244518779
0.0762426373714959
0.085440100075063
0.0539132637280242
0.0505397203314634
0.0517888154140091
0.0442250653400918
0.0451465841265608
0.0532153802509934
0.0406810013368086
0.0377304064898868
0.0914181946160268
0.0759545134044175
0.0485449314721322
0.0511604642847075
0.0393722690534597
0.0478447689430916
0.0941083698046046
0.0851834882463548
0.0629425688053186
0.049445102681239
0.041809595431927
0.057552774115467
0.07005798740647
0.0522202833703302
0.0533126948354845
0.0490616299004826
0.0543511136344716
0.0489502952062996
0.0449818167264504
0.0512245419921296
0.0499985836928707
0.0504177930124822
0.0480953401242201
0.0506593219642404
0.0592134930532429
0.0548120088627535
0.0497441422364138
0.0415480688605895
0.043503637364404
0.0641867569115128
0.0717290769676077
0.0528201528895836
0.0529319952826462
0.0457318445669154
0.04935101087391
0.0470123348809825
0.0446901127176616
0.053616071925824
0.0454206006264691
0.0479120212983261
0.0873737732367728
0.0708985609950287
0.0531523045993955
0.0352011200065348
0.0688321674318968
0.0657733243351863
0.0536765436777251
0.0464477750152831
0.0526199223140834
0.0379485205136425
0.0404260104870226
0.0777002518284467
0.0544590023225952
0.0385148148699976
0.0704082946289341
0.0592750119643624
0.0502934115728469
0.0361930232909911
0.0388402311689743
0.111539582955052
0.0564916344703217
0.047285586197339
0.0997162756562714
0.071330186708404
0.0573664392429565
0.0449245844357464
0.0168061217311388
0.16083871239721
0.11038489328555
0.0561776841305604
0.0515686812072408
0.0714207355114132
0.053497561784541
0.0574470404831432
0.0488641111008651
0.0675036074848335
0.0723554038106191
0.0877903346091258
0.0940162214789477
0.0533446655804213
0.0680963673787382
0.0796601444934406
0.0560608125751344
0.0577900576714551
0.0495553122938751
0.0426487176946302
0.0614737333056804
0.0570646715879889
0.0675256585554567
0.0548252210042255
0.0439295380029982
0.0692896363155337
0.0678370924993147
0.0458369172528066
0.0568399483648374
0.0606325351150167
0.0457059876203148
0.0486232108817513
0.0477398148433297
0.0603615878154616
0.0427736136771976
0.037239112916847
0.0937253561932622
0.0595251193871168
0.0526127004043159
0.077482713820666
0.063646215414328
0.0509546146254705
0.0520801055845972
0.0564137130825166
0.0525798461589787
0.0405715480914075
0.0415824720871523
0.0763830888264492
0.0592180015277403
0.0619213029396095
0.0566557653365684
0.0456008149220858
0.0475653696803949
0.0519879394675641
0.0445554724973882
0.0555909346011834
0.0516693641688018
0.0425007917633854
0.0711167439325242
0.0747854700026676
0.0341611773346876
0.0985075817651364
0.0855820637764917
0.0548594231285284
0.0496733799290341
0.0526572809103945
0.0492954138568019
0.0454710831614484
0.0553575559922116
0.0537137792050706
0.0500016318144096
0.057109313213337
0.0644824785385711
0.0533236195820855
0.0346775956086251
0.0802649235596362
0.118233465874544
0.0728624824679183
0.058682002838263
0.0361219421138751
0.0793058628248858
0.0782795236027501
0.0820722768995547
0.0790589928523442
0.0584592990451664
0.0550063680248856
0.0558972008094518
0.0603880240778879
0.0495981329284432
0.0601371982887384
0.0455405811443797
0.0574911071960789
0.0543719223464179
0.0535941455547122
0.0350547109722347
0.0507479984144322
0.0849848350874213
0.0677858672441211
0.0593735553195539
0.0520030824700274
0.040625443622267
0.0715745100202067
0.0699761463661274
0.0997219425420476
0.0811183000074684
0.0810472476617441
0.0961683480095105
0.0673707373133679
0.0640403238831423
0.0592600761558366
0.0568680874928322
0.0574831555434422
0.0615018394542022
0.0674163276965649
0.0592248779502148
0.0584931662479924
0.0706103191732275
0.0646389453514297
0.0595887123389688
0.0579585626130232
0.0772964134098082
0.0714885173593068
0.0691509098610145
0.0538360815947675
0.0729298871287318
0.109346428496395
0.101584251077871
0.0712731907169091
0.0775219718693256
0.0718372808041206
0.0726836630984183
0.0743841811242456
0.0657393471933892
0.0683303857210325
0.0723888946903239
0.0993815777479526
0.091266010386391
0.0958013881905435
0.0888921589279875
0.0645064405314398
0.0831795512567923
0.0868915679231446
0.0846231885026774
0.107897904385911
0.0852439844505878
0.0629223966980174
0.112869644877596
0.0901133012914712
0.0898442733237942
0.101420657951393
0.077720161781855
0.0818842933522005
0.0801247580785352
0.0971651318298399
0.0836144133045434
0.0940632689506574
0.0854164394362265
0.0912468793931252
0.0920457601318602
0.101846793272313
0.0885488770748945
0.110839907519811
0.101755134308302
0.102019856097053
0.114579802758689
0.0998871176177909
0.0983975226015252
0.0869331939473286
0.119833795048024
0.107879966568528
0.1148304211802
0.125099056307846
0.100920866116802
0.103150930392089
0.103687746582672
0.101120658867197
0.106234587295311
0.112834280468846
0.108992186102254
0.106979477791714
0.107143326396039
0.123208627351128
0.119493276456671
0.1182080208218
0.120173883533842
0.118928328527605
0.112379475442325
0.119075884676888
0.125758344899756
0.123709129565482
0.138702922657755
0.140272647366391
0.162243924842897
0.155922290779703
0.130934121356163
0.149355325441703
0.138408755131956
0.134633339992982
0.121152795508716
0.145026873297056
0.13503198335565
0.153491602289426
0.147602839094056
0.14564120342036
0.160057609711911
0.152303324279607
0.142730620711193
0.162211807582467
0.169816333122964
0.156129260449668
0.16378144912237
0.162220062629372
0.160469427213181
0.171362048364623
0.159176968060062
0.184420629226452
0.167798752353683
0.163533956884641
0.154536129185916
0.170428202606891
0.170786359296033
0.171156532386597
0.17726456382846
0.171757787970514
0.180390205213898
0.184804197933586
0.167862554686248
0.190185322314099
0.18619351418256
0.187277443145716
0.18865950475477
0.204017454298104
0.18447032616417
0.196417762046168
0.205217715050679
0.207310854787606
0.213658933159576
0.214778306202231
0.227002904999131
0.215445616011224
0.201431325415075
0.211345652852962
0.204357395925322
0.21888554574764
0.219317681592491
0.229107315995986
0.231696074095751
0.217816699194246
0.215230020046673
0.229839825468333
0.226263985166806
0.229426106349689
0.239393732594598
0.253550884626526
0.231259723160826
0.245847849090737
0.249203409759798
0.249705848152711
0.248391019793695
0.238707759645466
0.25205201217472
0.277558678833063
0.255769145962772
0.243829147390938
0.258958842992901
0.241322667774127
0.257116909754074
0.273681657946785
0.269657441247962
0.265303621967425
0.267922505001208
0.26990921890944
0.266764129881718
0.267818463100597
0.269670216735784
0.260874502468793
0.287241953848107
0.295986769196342
0.293157782190421
0.294987222572017
0.299465991672188
0.292884883563351
0.30170516444955
0.297487061353072
0.302006719925007
0.295385563914203
0.293974896761011
0.301499640491741
0.301418069932901
0.308280549100789
0.306891732299631
0.320458420983086
0.306121076568394
0.319797699548143
0.302209187176483
0.324557841970576
0.311475654992868
0.318008138188055
0.315610631354179
0.334239939585744
0.315714462737634
0.328876236581112
0.338436722200529
0.333125466909073
0.321009443418523
0.331509220066789
0.327292123534267
0.363616637609204
0.352766742715738
0.345991022790749
0.337421198140605
0.353306887645374
0.353180893983705
0.353645295438814
0.335973066775194
0.352872561889956
0.358299682005606
0.357899859311141
0.365119367296443
0.34990196226854
0.369165935119771
0.374387218116021
0.352997745215646
0.386373106254411
0.356422417151212
0.38509258965443
0.357844836786408
0.379608493652008
0.379847135491696
0.383051686198353
0.359137437812026
0.384853422981044
0.38960023046043
0.38466930278806
0.368636670231473
0.406754384295794
0.37869462296271
0.39853836437868
0.378243625458089
0.399109243545491
0.402305048832746
0.407221689499443
0.383965949357493
0.394816597857361
0.413569835001587
0.406631726268719
0.39252701893827
0.407203910125302
0.386419489380426
0.417337987621014
0.399738902446897
0.401047673962521
0.402559227576824
0.428587754359557
0.405735711483215
0.413862838244645
0.401352700668998
0.402655609992685
0.405096821778061
0.423384781590331
0.407094949504802
0.421231473377653
0.41402180577572
0.420706826598548
0.405243104626511
0.452542511707063
0.425966853260804
0.426678718075737
0.420010126243377
0.430752129586011
0.431819963238147
0.438781367712416
0.418622431386507
0.443882314952753
0.414367526804071
0.436772384755586
0.4358554492625
0.434709423686831
0.418398797174632
0.441965215667166
0.427261010820876
0.435599640954749
0.432798407743679
0.452451783835752
0.417541531889576
0.459114306051593
0.434860289262965
0.426608555180307
0.44826894633877
0.451519265570334
0.444710005843195
0.442006202012247
0.43138851868646
0.445339325784514
0.440080480752591
0.446035849336867
0.421004123156245
0.459961324219597
0.45234222614078
0.431523143774016
0.440883349736842
0.432226112692295
0.438707297038948
0.43713622280261
0.449723933911705
0.466526909721103
0.44342785111341
0.466326258423249
0.460880752118917
0.460669884614346
0.448668796761875
0.451586346565037
0.460173366940176
0.459795267245825
0.435512346410881
0.464296184368643
0.45877880386303
0.470268055292977
0.43480068463279
0.458390312382503
0.445069899395079
0.458556081521829
0.445515471622187
0.46044035286135
0.438003525599314
0.443266208362935
0.456985237574774
0.448996736029492
0.461234610188953
0.46368417311938
0.444894084973692
0.461786418978825
0.44697290411056
0.447336778001335
0.457319714876234
0.446585802624467
0.438700616551346
0.464209521080837
0.456090293790145
0.453813050697431
0.46098388358248
0.464374035096304
0.455864385917787
0.460973700168173
0.447880981720621
0.444373059349042
0.447774587550368
0.46137452133206
0.452953206735711
0.450452375310325
0.443705394223496
0.459579986395818
0.448826117506307
0.43539001216562
0.440136722942211
0.457331842790215
0.446318559677095
0.442145658910201
0.452698016204525
0.45148098763517
0.450534641403426
0.460402011784935
0.447488917724294
0.43761150475478
0.449874253743738
0.449095978440646
0.434873417450437
0.441849461377401
0.435620374408063
0.444062568273644
0.436117451585486
0.452160829463965
0.429607263451216
0.430139024051616
0.440142725765353
0.429139725213514
0.432276357633588
0.435948209501384
0.428027892845382
0.434782814951613
0.445288049544645
0.441902708045909
0.43113493555162
0.431025197796502
0.427613530132038
0.436030754458592
0.432991965405173
0.430286528504718
0.420199825703404
0.417022838035856
0.423742064609818
0.438097239958218
0.42842544863452
0.422095523763321
0.410773243709657
0.435289612877354
0.427604324370319
0.420839541861327
0.431550233181028
0.437936177818962
0.417398100263868
0.412664407607117
0.415788128245569
0.419032040190499
0.41955174742545
0.425042744850162
0.403509800571507
0.40915599983234
0.409646729321746
0.412593087514969
0.416270260838572
0.415712455498117
0.406932693891636
0.417501202188647
0.406804064060563
0.396223616941621
0.400573974621687
0.402944753417546
0.392454708738786
0.406976679058223
0.390595084948392
0.401991957055215
0.394567324834472
0.3923650497686
0.39452507877347
0.410127648217008
0.38564708868797
0.390814258966779
0.388247762801775
0.380817640036035
0.383932623583406
0.387726131174403
0.376447762487686
0.375732551375988
0.381551583959626
0.379675843891131
0.380421912504464
0.371532483248234
0.37693107671634
0.374718652575619
0.377678629076217
0.371429630190426
0.361807296469712
0.366516144494541
0.371713772741011
0.358575231146374
0.373443313533992
0.362156288770986
0.360959176931765
0.362453347614764
0.357635224339449
0.365137274539274
0.357025915921152
0.355128780752995
0.359250779848053
0.348499416384225
0.344539424523532
0.336185092838156
0.35016417188438
0.356596616076683
0.340356867607697
0.336228132807068
0.335997618641115
0.342106109178784
0.338531724650029
0.335185167575201
0.331777112273655
0.338015469093651
0.337418490322906
0.326430963493656
0.331510754597467
0.330835696347399
0.333800547338493
0.332886053128068
0.329356313706693
0.321768282305159
0.32917910087326
0.321002323023564
0.315324713292219
0.315063257852123
0.321487453127526
0.320401628956359
0.318463218682603
0.31822603235973
0.31754446208605
0.310512992408795
0.306961492538531
0.303044495673467
0.304457970627096
0.302033940706776
0.302197178220769
0.310833301829111
0.307481948737708
0.298501218572449
0.29772503565586
0.292075593864206
0.298323498472443
0.283691437807776
0.28957748032914
0.29655338103086
0.288768289833213
0.286351693384118
0.288191783307054
0.284648956315371
0.288847306905642
0.282039075762438
0.28053201605356
0.277658661037723
0.277911243653405
0.26952573107451
0.278223985436839
0.275396975195903
0.273040925747471
0.271243385099676
0.281430432072931
0.264857595032543
0.260591410849786
0.263733980059727
0.269394311521401
0.270209182371915
0.261863639949424
0.25969490515154
0.259095869607451
0.263593285600075
0.257364688312512
0.253420583893478
0.254598186373329
0.25094649694279
0.249325069430219
0.255038071354312
0.250137986148907
0.242311115702962
0.240831343855051
0.241547683960715
0.235377869042939
0.245343734802263
0.237233632188807
0.234565432344422
0.238245602584741
0.232421270375718
0.243145484721941
0.235780487593286
0.229360364844432
0.230478028205971
0.233915694007761
0.229568024630699
0.226753952845943
0.225675887017798
0.225253741988884
0.221961594591997
0.225763479300294
0.218063033506009
0.212976483954503
0.21803920372702
0.216589919532139
0.216438444258538
0.219478013063268
0.214014816770667
0.217380747187159
0.21567901094325
0.21792605748851
0.209126527518903
0.20556216061519
0.203306978488066
0.213886861954486
0.210277632467129
0.202714295909502
0.206765628204184
0.203742059561194
0.199151341606631
0.202475942062603
0.197844438589283
0.204074178898604
0.199789194200665
0.194097502327403
0.195308715938504
0.19417040708434
0.191031278487793
0.198013594398229
0.194782644240903
0.192031374677521
0.185779665497919
0.189611810599915
0.189111556833612
0.19136270734285
0.184323994675881
0.187874298983079
0.187653427854156
0.185338882967433
0.185080002978833
0.1803196957742
0.171560205289152
0.183689079010034
0.178278788547323
0.17770617279245
0.175861505384067
0.178948520758146
0.174371799513842
0.169733408501314
0.171725812365274
0.177309313932243
0.17041946052612
0.170396695026348
0.170285993665246
0.168390838123127
0.162667779929474
0.166235158966824
0.163495957065907
0.161651397037483
0.166205313007092
0.170002823937748
0.162888382057506
0.163303961769749
0.157796331309418
0.159422372471096
0.157580600858857
0.161156984357158
0.154263608835727
0.159676267173059
0.151420994230756
0.160270029660022
0.15448777847618
0.155839039562759
0.152573717543844
0.151395576477248
0.147729338748287
0.151374251200182
0.145752537701846
0.144466075162161
0.147655776532062
0.149606444672481
0.150716279001418
0.150113133577181
0.145223488481025
0.152403856964917
0.146465404350042
0.14461650798397
0.143615924217035
0.1435184388339
0.139186991011695
0.148297403074774
0.143959012690026
0.139934574460197
0.138960440508929
0.141110145221144
0.131339588231442
0.135903956132394
0.138031327436512
0.141127463854097
0.137050031382173
0.139249330115837
0.133619277679462
0.138366642474855
0.130155546273779
0.138127254687075
0.127628960200552
0.134943772154472
0.126550520496404
0.129997615547057
0.132151431265992
0.127634703572804
0.127954071888184
0.12905081433223
0.121839624886837
0.125152898163566
0.126461779635804
0.13142214720657
0.12691525912052
0.124632121991345
0.121043062992194
0.131087530530067
0.120997632874005
0.117056821592092
0.117488526819287
0.125646015217164
0.120611349593585
0.122490396966372
0.117201984532679
0.113072303060918
0.113944738993039
0.114821284343258
0.116719425802249
0.120510113991008
0.109430345301597
0.113875658894456
0.113315774315707
0.116880355303334
0.114398514362027
0.116432089487031
0.107862260834023
0.120377261628755
0.109043489438435
0.112544673488496
0.113152882697366
0.113869910533829
0.109136091607351
0.113591709477461
0.110945100755709
0.115835134863397
0.111323289386056
0.112341781451693
0.109850923622564
0.112168606298566
0.111394377568682
0.1199985959595
0.108833174117563
0.11558827484745
0.113920662430397
0.115292496475391
0.11340189204658
0.120064110782952
0.11153015438391
0.115619500314658
0.114833559360523
0.117466038512982
0.113994475164898
0.113971795262257
0.114214816219294
0.116144174442756
0.1124755403217
0.117523133447085
0.117843523075592
0.122556955884155
0.117900301947393
0.119784627383467
0.118572810754192
0.120670874196296
0.119506602708757
0.124378102890199
0.120851187999577
0.130200641831785
0.123255772703402
0.126092950335062
0.122390986689569
0.13200144114153
0.126052802443468
0.131881331440683
0.124652180064378
0.131022211359868
0.124572237483207
0.128244372870433
0.130834090646037
0.136761983800023
0.132773839569582
0.136752038838463
0.131387569053191
0.134371721084579
0.135858142832879
0.139017992804235
0.135163126551838
0.139684610699698
0.13584241714145
0.146757921887973
0.146666681176389
0.144071631598809
0.143939969228768
0.153201389961174
0.147208584795673
0.14484582216863
0.143901263105923
0.150898554535546
0.148873613440315
0.156948526797091
0.151093359283598
0.161227442374359
0.155479329852629
0.159634261084882
0.158010852147093
0.160179362701649
0.160832035541819
0.164299263563764
0.161383872126284
0.168226460224651
0.161286221612258
0.167741769384004
0.156618010690559
0.164622598942141
0.165947670153805
0.166375101945018
0.163854682937268
0.163449477443194
0.169214102100799
0.170255004060747
0.166149683804789
0.173602421905664
0.167524568673841
0.165684230124445
0.162463787704878
0.165924503151812
0.160059281364916
0.16258742396586
0.161813347983171
0.165488503782694
0.157405819292775
0.160185282823509
0.155237826694545
0.163349464932347
0.157474688677256
0.157846968646251
0.153635480942748
0.159910126853427
0.156709261438304
0.161965226121455
0.1581040613829
0.155576010237136
0.153082318962099
0.161152622081578
0.155712645541485
0.160745519113061
0.157519410008739
0.163400177180506
0.157699584098275
0.159581483578909
0.158588057468512
0.163128551789983
0.152878518970905
0.156872002470863
0.154993147253061
0.156573705831851
0.157238663538285
0.161135013248576
0.155452695638925
0.160067357710611
0.152599733829634
0.154714627771891
0.156394914971595
0.157891588990999
0.1569627103914
0.160345453058943
0.152892562596381
0.160942417234379
0.151727294536391
0.156493689791139
0.154023425012275
0.155681720669667
0.150210969001039
0.15143691461902
0.14810551531374
0.155710031810909
0.144508470118052
0.151307181307051
0.147335908033518
0.152442377344372
0.144958200224978
0.147988327077065
0.140281629660679
0.144332532291176
0.139835661942877
0.141467697933502
0.138977649432557
0.139338991236582
0.135289443850939
0.133713313195628
0.12561600740253
0.132154768184534
0.129039599554973
0.137633646855659
0.126687023864769
0.12982651806145
0.120768761827959
0.123135338802578
0.119131717428392
0.121938808422811
0.117910190008825
0.122221584685674
0.118984583180068
0.123860459883096
0.113765622744804
0.121315457051433
0.116122197273852
0.113842087370522
0.109966594614006
0.116182023288764
0.110506474766565
0.11651832064696
0.112939943809832
0.113478586791106
0.109436982362468
0.111416179813857
0.107793741354106
0.107110498269641
0.104935187400528
0.110680500771775
0.104733850272912
0.111696608369938
0.106849805004839
0.106928297605975
0.0992773914652781
0.105031585095615
0.100008756860905
0.101348616831848
0.102196349031753
0.103623505401836
0.0967203794562336
0.101803533044156
0.100233507976046
0.0972547982841556
0.0951562520527858
0.0993686305355421
0.0962888971921106
0.0975943769098406
0.0975240688696797
0.102561424177123
0.0948393427800567
0.0962227659161569
0.093028891227715
0.0951030650575872
0.0948462553704117
0.0981514687522543
0.0926279746505209
0.0939480792143537
0.0899143601020275
0.100135279800033
0.0875797483755513
0.0914626254718432
0.0912074647708315
0.0911097533044195
0.0867969375003966
0.0961748996804619
0.0906674684373175
0.0938709782238401
0.0853925421278066
0.0888287895843464
0.08147041876969
0.0845240013361995
0.0828841027129581
0.0904433072474757
0.0870240011675722
0.0857255404412833
0.0869292920075989
0.0900332636954881
0.0864119122737353
0.0878443814809894
0.0848801708090478
0.0878093809856951
0.0834189820443993
0.0893017717192445
0.081331946369136
0.0906519943618569
0.0805755131184758
0.0888472397922825
0.0822249431536466
0.0862075271649581
0.0815877024606475
0.0885413012903244
0.0829338597612933
0.0883409060839637
0.0811572320340306
0.0832995337368008
0.0794890396558385
0.08669565516749
0.0807186194938979
0.0838387964135057
0.0812826047215317
0.0867059454314438
0.0794121015120569
0.081114698391473
0.075276073429594
0.080849309177673
0.0788546680005654
0.0798265433891322
0.0786014995452847
0.0823032179165748
0.0746879570749942
0.0814699361228779
0.079919579551373
0.0822033091508493
0.0742994829628118
0.0796248287465823
0.0751820693634229
0.0786848224680099
0.0746807884139252
0.0799204986221881
0.0767041699875485
0.0804482060419199
0.0734642230067103
0.0801813601861676
0.0747435119038187
0.0786322711056827
0.0718639096222405
0.0792583450389991
0.0758117865538604
0.0773042101261586
0.0777208937901119
0.0763052081145841
0.071742541137635
0.0782512410015513
0.0752093630265272
0.0809145322154899
0.0707541102569993
0.0762324661713948
0.0741147926274037
0.0796772617972107
0.0782612165012608
0.0788981834897486
0.0710143194884227
0.0741576661488384
0.0724666301305514
0.0790456321845735
0.0738154150411155
0.0802001546886718
0.0715637295175009
0.0754782192893994
0.0693565749772968
0.0755892116090169
0.0704442262044626
0.0785274274259234
0.0754419751873091
0.0756218311499954
0.0722833434616847
0.0754980811781036
0.0704259063055515
0.074787955502493
0.0743926931583364
0.0727019189478445
0.0665571677106807
0.0778593372506944
0.0674434490178581
0.0717886387921539
0.0682086446935803
0.07256883301559
0.0652779168915911
0.0726188633712605
0.0673913889378157
0.0686843649845669
0.0703742341829628
0.0696492390197946
0.0688314010079619
0.0735100891388592
0.0684603069711688
0.0727840722492717
0.0692531677362398
0.072861114066307
0.0667670164776308
0.0724752876064963
0.0665605870772824
0.0681920719476526
0.0670073864098128
0.0695421212263034
0.067709759220986
0.064540014966106
0.0657851294421739
0.0720127910943807
0.0666356936465731
0.0683756952914127
0.063252860280974
0.0688557463453642
0.0626849876261377
0.0692000332705371
0.0653390922045212
0.0659039965726803
0.0631319086514514
0.0693050346870457
0.0647712296954625
0.0652209866677289
0.0594648094795526
0.0659576539647042
0.0628639006783074
0.0651916677370241
0.0637897011455025
0.0683318820437102
0.0644454537697139
0.0662126275387507
0.0579948735154689
0.0647883401068092
0.0634211555139794
0.0602570424333909
0.0610074115167774
0.0674253907542452
0.061030065564674
0.0606813091955662
0.0627106735142444
0.0657838574150948
0.0595815483912743
0.0632950654062725
0.0603294824681184
0.061787141607766
0.0573874385320431
0.0637457343024662
0.0599989910024342
0.0601139376275617
0.0595878099796458
0.0638025299158484
0.0579400185046709
0.0595661335161978
0.0584863795094959
0.0606632523049831
0.057899472348366
0.0577941238208594
0.0535759803875119
0.060890675644901
0.0597420740381539
0.0636671564598406
0.0555033965987129
0.0570468831032709
0.0556373636163686
0.0566805604517413
0.0516532078463962
0.051902021632231
0.0555334773137938
0.0578112003035623
0.0519221853553189
0.0594027337301326
0.0510544798930026
0.0573779718932373
0.0529075439482334
0.0561621100949856
0.0549724387262852
0.0546918434121614
0.0503254669444787
0.0572878009913487
0.0520491802208517
0.0544231598929083
0.0559734378859978
0.0518212215110543
0.0514431259113446
0.0558005776982355
0.0489716078743464
0.0565086433733994
0.0520679024906036
0.0575142909873985
0.0491550247715117
0.0530266114670354
0.0507422022094357
0.0559214921467244
0.0495398274954887
0.0545835549424925
0.050115410366485
0.0551749946788745
0.0495612029788338
0.0516160482078527
0.0530797944869746
0.0552271919437219
0.0501737229698574
0.0504196829894734
0.0502473195522252
0.0524513340890628
0.0472812578076583
0.054172334517424
0.0485863451421115
0.0532896449810358
0.0521403434259795
0.0532954576013539
0.0462014833714948
0.0512072290787424
0.0473286933117889
0.0518569696429463
0.0469696985863236
0.0488639353495392
0.0497972973112029
0.0526592800313577
0.0470617290208952
0.051186268933277
0.0459424876328481
0.0503006689715885
0.0472126714798705
0.0497161354276511
0.0478571486917345
0.0514628007902226
0.0458499047740348
0.0464391530888492
0.0450481353181081
0.0482154888219451
0.0455417074146369
0.0479537529354807
0.0433377066620006
0.0462567098473828
0.0404295956713764
0.0496452596440159
0.0448249925363458
0.0460905253239291
0.0469383781874773
0.0484994443350527
0.0450785835158013
0.0505529057201981
0.0458323376796558
0.0472560905821833
0.0441965542161899
0.0504880486580366
0.0443853683420085
0.049934413118878
0.0450568872067251
0.0488695706142313
0.044946802347502
0.0519769216484416
0.0441085972550373
0.0483533619346633
0.0443650833398081
0.0475520931008782
0.0447760244038154
0.0466893832676098
0.0430471130050953
0.04778066690129
0.0417186327355378
0.0468721744465066
0.0437953630150001
0.0442616198479969
0.0406978384543373
0.0475699843573585
0.0445543975901335
0.0463410144142078
0.0417012296154703
0.048179545056697
0.043286731956504
0.0460220121586457
0.0420650608145918
0.0447236504294246
0.0414633022437018
0.0439899125695898
0.0433699422954355
0.0449234103680273
0.0437118400610835
0.04466633907992
0.0416751831106936
0.0436097552010448
0.0410257396769971
0.0426893235935889
0.0423908925844124
0.0415839356756714
0.0392303546056605
0.0407838001047413
0.0379788628301741
0.0470530346363182
0.0431103933949977
0.0440634474375729
0.0412171721967611
0.0434407484278524
0.0389962740223319
0.0423373786598768
0.0387674620153622
0.0420317162207885
0.0426343860562796
0.0456474515695964
0.0429324061181193
0.0427297555312376
0.0400875521010322
0.0427445582594434
0.0420667256919419
0.0445671299395235
0.0415386180588844
0.0434275225161007
0.0396678532266714
0.0447387581779411
0.0405746139805559
0.0416860110061179
0.0405286328601
0.0446572264371283
0.0415640539462724
0.040168660726717
0.0435907622857208
0.0414522806707782
0.0378675817119241
0.0409416879772697
0.0401579728273505
0.0393576391352771
0.0385460279440307
0.0421034730827325
0.0399643680288482
0.0413230901833375
0.0392868540935421
0.0391680731648245
0.0361876268720408
0.0394255407838635
0.0381423013645399
0.0374148099293278
0.0377429054798919
0.0393712844763961
0.037913707532082
0.0386469869498353
0.0401654088629767
0.0400400339510062
0.0344963913028305
0.0387880293004721
0.035017450708896
0.0371494968236763
0.0374446291031621
0.0386444035371618
0.0366542424073568
0.038035256833912
0.0337481374935171
0.0380315572464714
0.0363178263310082
0.0376096961016999
0.0339124989927176
0.0401241456992365
0.0371660233484328
0.037788972618848
0.0348721572202479
0.0379554971150066
0.0340803366012432
0.0372766469558316
0.034116737338213
0.0376745850953789
0.0341645785871805
0.0371398509673804
0.0355489098566884
0.0383089351464935
0.031663347972447
0.0360485511849012
0.0342715372773751
0.0369407703394615
0.0327419962517583
0.0366932048741462
0.036759465909682
0.0370773564359504
0.033853606395903
0.0352474674728743
0.033832574083817
0.0355391182836585
0.0330113904344325
0.0378369359838701
0.0333321716491539
0.034343700745753
0.0309328947285574
0.0365562978484803
0.0335436160250244
0.0337033988108346
0.0267663556076131
0.036401778404424
0.0355377052441874
0.0350519027629341
0.0333036710006433
0.0341409574590339
0.0345671870258714
0.0310067261632996
0.0309300065235592
0.0341326057675948
0.034452943318525
0.0339395243991087
0.0279007356771986
0.0328636983969721
0.0283163719500489
0.0343197828843913
0.031214163553612
0.0349936407233546
0.0332787936565653
0.0325143825460338
0.0293106737311802
0.0303101952996444
0.0310187193826776
0.0328308527100934
0.0303728672927699
0.0345510719075552
0.0310646291326019
0.0319188416151008
0.0265485109256469
0.0300214393911174
0.0325329029081282
0.0350490289438257
0.0311000944209033
0.0332822558358789
0.0300024893017363
0.0328608124875058
0.0296115985082725
0.031381526483607
0.0287975760209304
0.0308776328039644
0.0284226175326471
0.0322481928301096
0.0314141963367081
0.0333838267285236
0.0315619371935218
0.0314948935855866
0.0285141735787968
0.0329246533786427
0.0291462012433671
0.035889958295259
0.0336338529558173
0.0338136976177609
0.0330719609585434
0.0331270382432389
0.0317691954585389
0.032055619535038
0.0296178331875514
0.0338537936555266
0.0277045412348504
0.0326315142344099
0.0264446243595102
0.0334025729978509
0.0312346594950004
0.0304207282372153
0.0252557122931939
0.0286691698602774
0.0282511849832399
0.0340016515123878
0.0193556910740044
0.0250879352440338
0.026915928697552
0.0297568194566009
0.0280228754816545
0.0339989480609478
0.0281042294815769
0.0315363996539969
0.0306836516618515
0.0320847025063211
0.0314334414434902
0.0265551770309633
0.0306939852594788
0.0325690048090163
0.0295505117367895
0.0241175580677831
0.030298634967003
0.0220448445782617
0.0323370309211013
0.0254502925917577
0.028540168964982
0.0205721446726728
0.0314978256057025
0.0269993421626013
0.031841427676024
0.0214838724283516
0.0367204292793414
0.0177029213732802
0.0396874397632067
0.0157489971825528
0.0343824990024893
0.0142621872988136
0.0408644305640551
0.0186437349325644
0.0491414447129571
0.0141106571739075
0.047737087376144
0.0136919106377918
0.0497843066095949
0.00861499341937998
0.0546773456562952
0.00901120167001453
0.053706376230961
0.0117673987627373
0.0508188679256057
0.015637093672701
0.0486149953304139
0.0210510199659683
0.0396184602599801
0.0280172292503593
0.0289961118559758
0.0343536460209003
0.020166203980589
0.0427889422033531
0.0171507034889321
0.047137994577993
0.0167539200627889
0.0378115201343263
0.0203516254836942
0.0357604596367345
0.0285346458003292
0.0295099520996406
0.028161570923686
0.0256180926076603
0.0293812115373912
0.0298972592723957
0.0281021587456243
0.0283783929360756
0.0255972580486404
0.0306647860121835
0.0209651960662951
0.0296521377273046
0.0243690367117732
0.030413794986111
0.0237465282063532
0.0282778628968152
0.0250087823708728
0.0252416029246976
0.024708567327327
0.0289349290187773
0.025314337761161
0.0298467663881797
0.0250437665413262
0.0274323886677927
0.024006592164568
0.0284398397163536
0.025460788444685
0.0271647663649842
0.0227360099515161
0.0273463316446078
0.0246805905252493
0.029196913468602
0.0244212337810725
0.0277062832716447
0.0226752788392373
0.0273529084295522
0.0247696019077602
0.0301946794348764
0.0244335471459872
0.0290422481378606
0.0238219053804452
0.027910728804789
0.0228994463529744
0.0265249516485082
0.0237521892056639
0.0280457715218164
0.0278332880378946
0.029235144608962
0.0263862710477908
0.0256904186785183
0.0244521842872546
0.0283758799625674
0.0211465555906418
0.0281795271361086
0.0248786594500305
0.0270185636761087
0.0223160593479132
0.0289429520707144
0.0227832474188728
0.0259542701484642
0.0254458794659781
0.0272758269411048
0.0234499824217588
0.0278548898513133
0.0256333725219495
0.0275284771047432
0.0238698308067217
0.0267379061298339
0.0246410006116745
0.026349640368091
0.0245801583052202
0.0257454119278337
0.0265035493350646
0.0263427586891099
0.0222136530644333
0.0279097760863176
0.0249871853562763
0.0247071316549917
0.0249709200246156
0.0274543343892664
0.0241237226493404
0.026362213196298
0.0232606336937213
0.0255292377957924
0.0247248437052935
0.0276426722567624
0.0227019617836054
0.026955799946332
0.0247754956138729
0.0298159268098847
0.0250507980569934
0.0287323243290391
0.0219503355376105
0.027604559498025
0.0249233109062409
0.0254558865036454
0.0257926410981866
0.0258244134322274
0.0250480296426981
0.0265458777145103
0.0252741956766066
0.0266962187275574
0.0251619692839557
0.0289347781563268
0.0234891934610523
0.0249633887350729
0.0269436519124409
0.0271028545025388
0.0243986063074577
0.0281438953027161
0.0226452473012057
0.0269185240833465
0.0260561196652802
0.0249667208663253
0.0252208622697543
0.027193335332936
0.0255978579919228
0.0263666947752001
0.024289330644984
0.0279792721368404
0.0233337533037993
0.0254057231382832
0.0261465843167012
0.0266536007289424
0.0232570221614916
0.0268555802411762
0.0229722987736009
0.0270950064918045
0.0219902773434318
0.0256444624095287
0.0248583064215612
0.025820399561548
0.0223632954779508
0.0264463044851451
0.0236386558532322
0.0244315463399986
0.0233089993532923
0.0256356723566797
0.0244817551976203
0.025718734765138
0.0248723730781977
0.0263725204075223
0.026137554133839
0.0294129600188052
0.0233606893178275
0.024491411814684
0.0224028535543398
0.0275969367128992
0.0234645308444813
0.0256200956201963
0.0236864921341181
0.0236080130627441
0.025129864923703
0.0258728639004583
0.0238096353878431
0.0260958278422709
0.0253928494783466
0.0271640834723918
0.0255185264833698
0.0248809777695102
0.0234785664647962
0.0271063792966023
0.0249560827499222
0.0269253287053185
0.0242433486585566
0.0269678720879986
0.024490325880186
0.0270063606810174
0.0246722413457744
0.0256061548666025
0.0225246297472132
0.0273015682091159
0.0255818158048163
0.0260639527683663
0.022929221895016
0.0276647605439903
0.025153452045048
0.027828549794997
0.0250574168630506
0.0239177030611015
0.0228215892188732
0.0261313043281647
0.0224596872906924
0.0231848164544029
0.0241372543027559
0.0258338557460081
0.0242971114000636
0.0242714414252591
0.0236121248035825
0.0266618169235877
0.022973940886566
0.0254531157312914
0.0231652091470148
0.0234036833836763
0.0212963955555738
0.0259227564380598
0.0236752532337649
0.0244118983970791
0.023373199994389
0.0259685248077608
0.0225778881274653
0.0236020283938628
0.0202217482194521
0.0237499883403479
0.0224912650356325
0.0244057003687713
0.0224494361797352
0.0228066398290247
0.0222534336574866
0.0234367903493712
0.0233264363768861
0.0251127577096418
0.0195345668487204
0.0265738574140732
0.0239228118781556
0.0250889121332377
0.0235943635263369
0.0253174859670186
0.0237484654437153
0.0250474076408567
0.0236410003881223
0.024148145122849
0.0236457806441248
0.0255253707550843
0.0225099708998821
0.024709120977318
0.0237778429137881
0.0246522238047498
0.0215915911644772
0.023777061146174
0.0253899978466839
0.0252491876115135
0.0225627516716972
0.0266675345391029
0.0221058281663767
0.0235753315319852
0.0234602565790189
0.0245376461705156
0.0223394499625571
0.0246965402058077
0.0224741023028501
0.0238219219370902
0.0232328765060182
0.0223426701684467
0.0207679616045765
0.0224284042952085
0.022192218391715
0.0254785068234174
0.0242426878439378
0.0244162841131446
0.022349558401806
0.0248819118712808
0.0220604844675544
0.0211845285024632
0.0208793229769011
0.0225249161766563
0.0203603525801146
0.0234609262115512
0.0223702979234514
0.0248724701170596
0.0256049549642487
0.0261516111517898
0.0236787574292012
0.020915392824099
0.0217303256929512
0.0223786726932627
0.0236871337471386
0.0237560792159293
0.0198814841925523
0.0224729213189593
0.023054716342251
0.0226347448959763
0.0204246110189527
0.0219113157324357
0.0209476445223708
0.0243797810829157
0.0220590737754436
0.0245926747176845
0.024801114229772
0.0239358358999141
0.0229367891673865
0.0227351775087837
0.0228699259954842
0.0234841303777203
0.0208826324551115
0.0260445549413292
0.0213859976331725
0.0255163471874947
0.0228977583120845
0.0207418877378397
0.0216927654475514
0.0219207256398441
0.0221196138446864
0.0240308460185933
0.0229056000353124
0.0233819168176178
0.0190381578313146
0.021704595169946
0.020790070783221
0.0213301305218991
0.0239395432589392
0.0257517222723933
0.0211741352670011
0.0221467620936164
0.0215426053141195
0.0215083990804351
0.0208971537583902
0.0229343561897612
0.0225292297232281
0.0235544861454207
0.0204607309804547
0.0251460613877524
0.0216150826199656
0.0212571670524959
0.0199773849691265
0.0229278934904183
0.0216033559861468
0.0220104874461602
0.0196071083640903
0.0199825014221104
0.0198994917655745
0.0223245292363153
0.0179076574664383
0.0216630533989764
0.0215730727685693
0.0226332557452029
0.0211175308508875
0.0194920350079033
0.0202477530674297
0.0215145986714615
0.0185042683914141
0.0212556500542179
0.0186187368346717
0.0216326351821051
0.0231563674195886
0.0210964269170591
0.0201292467429053
0.0243148019959023
0.0301744803022056
0.021352309893639
0.0220656896744898
0.0236270655051001
0.0229996562935986
0.0217985792028318
0.0207392532035127
0.0198943227605719
0.0209865101415383
0.0208371345286313
0.0215114730079177
0.0217379849289538
0.0201573621569606
0.0208193184058322
0.0218676846778145
0.0192783611848679
0.0181136908910031
0.0221260525898917
0.0196520385744511
0.0193270582625742
0.0208216119951421
0.0212531461069446
0.0200336983877108
0.0219138738822415
0.0201092684155533
0.0174852744755154
0.02516696841593
0.024483354660868
0.0224525666595836
0.0197531784767334
0.0194064207006246
0.0193453634429548
0.0205592178621203
0.0207019082122888
0.0190058400183593
0.0200012714517007
0.0206438068152623
0.0192956884618769
0.0182318040569696
0.0222564219605109
0.0193285295925392
0.0173468603407458
0.0212511879033866
0.0165729021400072
0.0177953355245592
0.0207674320186361
0.0185216911390404
0.0204752812381657
0.0175825769217477
0.0213889019736959
0.0207332535307263
0.0193830212316144
0.0217813150604699
0.0327571465622047
0.0209354275885173
0.0205680687289764
0.0170216658338411
0.0218122800485524
0.0197960317158784
0.0186413738489564
0.0181179249661824
0.0191257414052447
0.0209944914738196
0.0223588393365123
0.0181553136781906
0.0204414511452548
0.0171413805234447
0.0184284065072093
0.0186445371323446
0.0175091417184532
0.0190594415996686
0.0208446237328428
0.0174758826877835
0.0230832773649234
0.0304444916991907
0.0249793049894608
0.0195334301072762
0.0221857334397369
0.0153499577687827
0.0324639924581278
0.0262891038353588
0.0195244655059505
0.0192587866353888
0.0168044482999342
0.0194308411737056
0.0175684088285272
0.0168916650353766
0.0198147733850435
0.0225538517224366
0.0191393440399227
0.0237483869552591
0.0208756865888417
0.0190884699846077
0.0185884403624107
0.0184798741708888
0.0193099898892908
0.0202538710719498
0.021051577618632
0.0191716620555262
0.0177643586764019
0.0162754679270154
0.0195108732238093
0.0172882409363843
0.020407104391604
0.0249591553077623
0.0165519550617561
0.0211791413085418
0.0206652042294891
0.0171325109244318
0.0224241736430966
0.0316443861236051
0.0199139934375447
0.0192579363722018
0.0185909828823305
0.019587526746984
0.0226155793103714
0.0192755073099977
0.0176124826241017
0.0194794157468387
0.0192317902336778
0.0188798036961558
0.0168117692385332
0.0168100081629596
0.0195093177025053
0.0183785251227838
0.0179753028849448
0.0203697468661169
0.0203164670957799
0.0163377313372821
0.0208575283927465
0.0181445314440036
0.0255623023747
0.0342366375479781
0.0308978264185507
0.0269098715453842
0.0211264036890095
0.0214363268048244
0.0177779105437548
0.0187474476579249
0.0187543395147836
0.0209420526032801
0.0191423829180126
0.0200396511648694
0.0195096627551185
0.0200732605355308
0.0180027536758002
0.0177729895853198
0.0173302885907737
0.0203762615524093
0.0154218183386675
0.0170938429382353
0.0159613900647564
0.019681884163966
0.017685449949085
0.0230421832302549
0.0233900251070125
0.0214491877468956
0.0141908494936791
0.0325753242202369
0.0411598268914867
0.0208704421373139
0.024961129757751
0.0179363234200289
0.0191992056384352
0.0183314522540769
0.0199965638744826
0.0225705109556784
0.0194508547056603
0.0178669610264158
0.0179374078907202
0.0203196174845118
0.0215010433406461
0.0158472492949309
0.0251794959407704
0.0383963769913426
0.0279045731829382
0.0212417159042257
0.0166172546140483
0.0260368745648375
0.0417238075642254
0.021897328874763
0.0223225578312671
0.0226134947286058
0.0187081199787416
0.0193895092892686
0.0179656658841263
0.0193865974039255
0.0206884978298252
0.020873191564795
0.0206027818372103
0.019385521795983
0.0185216946762825
0.0222667885277719
0.0218133403498996
0.0255083562176876
0.0278887337595963
0.0198793684895559
0.0215955730142642
0.0214760582993854
0.0159204024807286
0.0189674113735785
0.0206473826429365
0.0180032564044961
0.024106542030954
0.03262271237258
0.0222767925082736
0.0264612634379707
0.0307182545871019
0.0193743309340716
0.0208158757876257
0.0270446830145966
0.0258566807877893
0.0171451285078025
0.0235760588412266
0.0451494668935613
0.0384404598238833
0.0350660932453565
0.023628040039355
0.0222102158674499
0.0210211141479245
0.0193479163354615
0.0238655732449237
0.0371480556478473
0.024917111879993
0.0196044449820865
0.0163546347750026
0.0237694298678003
0.0306654203273791
0.0229426921710446
0.0254600209685446
0.0217947765339234
0.0210427615369113
0.0313630168872188
0.0239957899280909
0.0189253548660582
0.0356903968849588
0.0427395358211161
0.0430799164536603
0.0249827998659191
0.0195466851434504
0.0403342736976159
0.0305612832901589
0.0223469219049939
0.0203155115046008
0.0227576617834346
0.0205322859997208
0.0258456859229522
0.0441626957868834
0.0246748325116961
0.0235390707480299
0.0284284627216226
0.0213141894554112
0.0364231217224316
0.0333593066690666
0.0230077954742978
0.0252619971048049
0.0245226911371014
0.021978275642824
0.0571836490634688
0.0402976817179762
0.0339868694373968
0.0458077841749254
0.0406867972679495
0.0349450813475712
0.0310636636460408
0.0295140679411036
0.0357334851429631
0.0405856282038469
0.031707367659587
0.0203218804367848
0.0375662098349273
0.0453982835672825
0.0296947597931295
0.0315430095665686
0.0249768138774092
0.0194255750936929
0.0529042324762557
0.06608756310945
0.052665465999788
0.0340178517729631
0.031947519698195
0.0461796063203167
0.0357376048969265
0.0268015745581878
0.0285862151106196
0.0281846297838224
0.0281050179724866
0.0272909266804562
0.0356548373067081
0.0309688904111644
0.0318265689862268
0.0273068933787522
0.0288734818822964
0.0387545335605037
0.0634448881038321
0.061482170472342
0.0382545709388542
0.0495328893269523
0.0553053668841752
0.0419471355356896
0.0330363872618204
0.0306557583312413
0.039271437039323
0.0398506835523437
0.0360831014818816
0.0324727570304268
0.0458279349383647
0.0467392630676993
0.0535676841255634
0.0534102915550222
0.0446278556192118
0.0379813582729002
0.0476000503817098
0.131626612162751
0.0728975080493654
0.0566002965650654
0.0507707783858577
0.0568922737907614
0.0971013676975585
0.0678526131543519
0.0547439785601429
0.0591543221839334
0.053478617906475
0.0607663723302145
0.0605568287418472
0.0657408562538856
0.072286786309324
0.0667423992533069
0.0595778776913796
0.0774774592317914
0.126881239645308
0.118601471683667
0.0872337623142967
0.0775802288056152
0.092180642588589
0.0922626184512133
0.0798339504766772
0.0856272216173872
0.0769501602443649
0.096881531961346
0.126094005321936
0.099929325411313
0.0895901528742889
0.0983484481691811
0.110689375979079
0.096822986276535
0.132632311874937
0.127436564371575
0.110516322258024
0.102445472050411
0.110707697189254
0.111667452383211
0.10816442428733
0.128406736354922
0.139089224366591
0.121428590262748
0.120234970123812
0.12227336919907
0.122047762856408
0.127042050589971
0.126257613961467
0.125464092981671
0.142731999102775
0.155000833277824
0.225599371913063
0.158751182028027
0.138947811517394
0.122709607181904
0.134311299061547
0.148228500266552
0.144414062841759
0.166823181785011
0.146940457059602
0.128761783272654
0.126961419888155
0.131321977980424
0.125158791110138
0.124560487207149
0.130917378147927
0.121581853787191
0.143297269981179
0.120938603176915
0.163482727611285
0.168300225503323
0.139062313208163
0.124179020111067
0.124198906715468
0.119896366459464
0.12827001495212
0.112057971404723
0.1285445505822
0.132723713656486
0.123314271592311
0.116797626411911
0.111135980051041
0.120417939099999
0.136291744443692
0.117611185912159
0.112788240514999
0.107498534219829
0.114088585693271
0.0943778519624278
0.12075814153062
0.137460622450063
0.114072241246929
0.104769457830875
0.103980385702225
0.103859637088152
0.105096980394993
0.105537735296488
0.113215403161683
0.101978664026148
0.102762121065955
0.105240086755495
0.100972069171086
0.0988762338125998
0.0981723697454114
0.0999045051942286
0.10273742804669
0.102730288363379
0.100416573603252
0.0973725940223948
0.0995218264188689
0.0990162537529268
0.099068652008569
0.099687507509832
0.102124237539881
0.103444469236247
0.100423734680375
0.102906755994439
0.101159461044657
0.10010291627067
0.0979261664245049
0.097222552297727
0.0997375584501807
0.0981888524276342
0.0978591595953939
0.096490039601557
0.0967514585905408
0.0982381442286246
0.0971481237188388
0.0994638058752937
0.0971217810204091
0.0998398692976213
0.103612169174783
0.0838503684128272
0.141072287820849
0.111297818384926
0.103314639561621
0.0915726405877813
0.101186832250202
0.0924745751810889
0.0888792760519802
0.122334707121305
0.11019227331222
0.0974287140234154
0.092039257955038
0.086602318075879
0.108512137823022
0.100139375407035
0.0924604221187588
0.0955739944983615
0.078279832613087
0.123629035441905
0.121433279414335
0.168822924753374
0.135482316167017
0.110031855370436
0.0865442565178866
0.113776329057063
0.112242616347506
0.0945039824805817
0.0919873336002751
0.0816958264078674
0.116859534594687
0.0994829935240289
0.0955251354483859
0.085885217950985
0.0880034788212841
0.114907976259885
0.118346849973649
0.0969618307399157
0.107524961357417
0.113182905304326
0.104785051881321
0.125245674099777
0.147148293615521
0.106331181220764
0.0861519454577914
0.0920045747943203
0.0818605679436265
0.0851680315585763
0.115774265056386
0.0928193228841113
0.0970105921612795
0.0766673847067069
0.0828796756191111
0.0794163809538033
0.102193954936709
0.0806426681121975
0.0962118330441424
0.10562027183965
0.0792091610407633
0.0964057690519564
0.0885782061274496
0.115999913949016
0.115563622543347
0.0901904060339905
0.0651583070959655
0.111295839162089
0.103153247599133
0.0891589630626712
0.0896990760194485
0.0657067177659365
0.080375874767834
0.0832711989709644
0.0692536572477516
0.0890696937114795
0.0863032852013181
0.0923765247367343
0.11084585313499
0.119512818740253
0.109481362357448
0.0794324870475658
0.0653642601995246
0.0637242895142524
0.0647870835832154
0.0702747248168412
0.0540254673314612
0.103262877378681
0.0647374564607509
0.0647977826254474
0.0924429195346224
0.0727085763710822
0.0621186460386108
0.0628250290600738
0.0591951449336708
0.063141979507655
0.079823386794163
0.10369805737536
0.0694302335349066
0.0835921646337797
0.0841075967264439
0.0790935265771838
0.0679724606587156
0.0718451669185041
0.0683736382612506
0.073014268972277
0.082568353670551
0.0750556744957294
0.0723820398792496
0.0788119469349316
0.0627124092873819
0.109045820856094
0.0948066983519953
0.0793542993818544
0.113982406714105
0.0952888413954781
0.137839263265768
0.0966608510960887
0.0989556765438627
0.0912051388880386
0.0968428539798064
0.102420573247444
0.0887046916707168
0.110054436577287
0.127024681557211
0.102175741452182
0.108167039742353
0.100692842966106
0.107960460480775
0.101536752809027
0.142727442451712
0.104186721698484
0.182131545556861
0.135850792659227
0.139226256424662
0.119448399646088
0.111658302647332
0.125487841663368
0.11892906846469
0.11887386452564
0.109213088626283
0.123104890097189
0.139676046644928
0.114584640945323
0.125608584699539
0.115196956044534
0.123370766107196
0.117528083115343
0.121361403713829
0.121246009648814
0.122711952971117
0.128820635472197
0.120452840465058
0.129229399948254
0.191832990693234
0.129634563240376
0.137928373833515
0.123678816214614
0.145211408621776
0.128030011029845
0.133309997232944
0.152716036055062
0.139673907246463
0.137818918492086
0.139948752949916
0.13632065432829
0.135326832761934
0.143067098345282
0.165172154683913
0.133510596416979
0.156174412596159
0.119567515616073
0.203143353602878
0.162938547959824
0.163447841176154
0.155355313509676
0.15198932959323
0.147381633401238
0.147607473272116
0.144827637764974
0.153461252608637
0.153721901042408
0.147918186560683
0.15175841172612
0.146610852180579
0.15103445382495
0.145954606653241
0.152865750389003
0.16893732886897
0.147046325541216
0.150332958288538
0.145342009167634
0.149257125645284
0.137068940502954
0.173537273767653
0.153021134239115
0.153128223053215
0.145764651220528
0.159849155771257
0.167972193998995
0.157610533977736
0.138613662429898
0.150631515767163
0.141402283490642
0.156316353368158
0.134661218119694
0.164465963815293
0.170274895130986
0.153162623003942
0.148766687730263
0.148501998710864
0.145521673770748
0.148779203146748
0.147666996065248
0.149130306680409
0.147275934655788
0.147699591038273
0.152403588180521
0.150704000704299
0.149727102873438
0.152630247647183
0.165887104746047
0.162351267136098
0.145951795593561
0.150297450166854
0.139057190918539
0.148700802904693
0.145851343478214
0.149177589119576
0.138063826032621
0.145336618365863
0.133071429437739
0.140710863905903
0.159850631397788
0.13530600608168
0.151728356434267
0.129516805190371
0.134284896823797
0.131812590152243
0.132317200229764
0.12634051575456
0.129402188181483
0.130766075552787
0.127821586233576
0.126115833895228
0.123944606970541
0.126204430723006
0.122573087130182
0.126290258988028
0.122075507798277
0.123561558215974
0.121847488381745
0.122078887916112
0.119336414687209
0.121866502757673
0.121687036059421
0.118242281488854
0.132599019194212
0.128801375811326
0.137686665851062
0.121607319128835
0.129960363530311
0.123633205272411
0.122837494866976
0.121356992722363
0.118656602686943
0.122709677788555
0.118382641686794
0.120982273262208
0.118673503150921
0.122175244263135
0.120191048883024
0.120064317372313
0.119019176566538
0.121991209439178
0.118382949421244
0.119256975979731
0.118101522242539
0.125490917986759
0.117900577716789
0.129377716072209
0.11982102563413
0.125100808829246
0.120684922817123
0.121090098319575
0.121143324547141
0.122576930203362
0.125108852179431
0.118900347410484
0.1184624307678
0.117431857557085
0.118325352276425
0.120622466838999
0.117181141573298
0.118602296306589
0.118161219211957
0.118115792995183
0.115877458172115
0.116910531403445
0.11379919148486
0.113664924210592
0.114085144502804
0.113147745168207
0.11000916654848
0.113595581323796
0.109452360415042
0.110716029666279
0.106718258596827
0.107823865261036
0.10456340527468
0.109066745597786
0.105905796302762
0.106360625662621
0.104837683747494
0.105859541692259
0.102964346176021
0.104880265725362
0.103388289984394
0.10526139854875
0.102636847546645
0.104232324187594
0.100438569973643
0.103640626410244
0.101730476300615
0.103183969534672
0.102255774160819
0.105920863763787
0.103684266435398
0.105339534824781
0.10230933317364
0.107550117430843
0.10436462874057
0.104047935298623
0.107263658304639
0.107574718396269
0.106985713259843
0.108544008000199
0.109189928003694
0.106803064229017
0.109220882368913
0.108766210786654
0.107924513432844
0.10943021224215
0.111263535593849
0.111059823759813
0.111553816185324
0.107824461860609
0.107233338388034
0.112110588767789
0.107389619732033
0.110807938836597
0.108981952676569
0.110759883254804
0.108149403138695
0.109380078942484
0.107170496495789
0.110066532643737
0.108043659636821
0.109654367869051
0.108467054091507
0.107715085062185
0.108550434540438
0.106948653246047
0.106072931753151
0.105304063350518
0.105580475954546
0.105617148105741
0.106066278136571
0.104847713261732
0.106532138655022
0.104865283473859
0.102806687066805
0.105735317903281
0.102657608819112
0.105073637001919
0.100659842759025
0.103190668537762
0.100192835500417
0.10270832638223
0.10385405874859
0.102847376542971
0.101209263537865
0.101702195909957
0.101034446610512
0.0995400711896552
0.0984679206587947
0.0998435429611352
0.0996988934039011
0.0999473575555612
0.0972035705305491
0.0981263987032253
0.0947426853262771
0.0963914188986375
0.0938353313888158
0.094915725701783
0.0964504426850166
0.093843756866337
0.0926811431282902
0.0921882360798306
0.0905157631184994
0.0921417460936541
0.0913668896621193
0.0926451250432477
0.0914556527652251
0.0899640561529866
0.0904659933604747
0.089214968305577
0.08834612996276
0.0895030003529133
0.088922021732019
0.0908086748852542
0.0884712514114061
0.0877935193282189
0.0871873190601706
0.0880149642641142
0.0863694652291889
0.0863707726136663
0.0842981096630901
0.0852646145494857
0.0835289410891705
0.0827918472183725
0.0833456939116567
0.0821569451638791
0.0807874561209715
0.0827491098327355
0.0839566784524478
0.0852014286380958
0.0866062559039112
0.089700408679656
0.0928522379682877
0.0947672729637809
0.0970067205366245
0.101805630196132
0.106044386274127
0.110853510493092
0.117032224190377
0.121370649741834
0.125221004639422
0.129588475787898
0.134771467016164
0.140784930837527
0.143169873996249
0.146723138280482
0.15175625261757
0.157535540645493
0.160577012025777
0.166222930527751
0.169970352079408
0.173551460204253
0.176774876273111
0.180302419964966
0.180982219643649
0.187997970204678
0.188747052197375
0.19162500641584
0.193732814075891
0.194941610257941
0.194874840246007
0.201163693291944
0.198289610923057
0.201185656806358
0.200532722912032
0.202766220470537
0.204319368189549
0.204727929013118
0.202776692090461
0.202308231087258
0.203305859045022
0.206202592799059
0.203788486517303
0.205223352223979
0.206088646849482
0.208418858470472
0.20978813979829
0.210285766488023
0.21072834170327
0.212387623546589
0.214716868630902
0.215408783791563
0.219105484052702
0.220188813746023
0.218371352279889
0.221709122347884
0.224552369389037
0.228137013676961
0.229503163277105
0.23143879948269
0.234336321488028
0.243020513209313
0.241404630546356
0.249594390593739
0.24701124248551
0.250044352128276
0.257404134532823
0.259529274226591
0.261050759793783
0.263639427909455
0.264739030736146
0.266722108826629
0.266298373993377
0.268999969575725
0.265538256191725
0.266433999402778
0.265239062602829
0.266775980571799
0.264079804131586
0.265045439763487
0.263530835695255
0.267064934229889
0.267563156533504
0.269159028568651
0.270845748770579
0.276405310340486
0.279675546103451
0.284726133819548
0.286075529768921
0.294212105745667
0.298416358199657
0.304193286353251
0.309202421207131
0.315522876542319
0.318360333877556
0.32722952302413
0.327926596380482
0.33320849503686
0.339964016682994
0.344588274158864
0.347434016417642
0.356294350148287
0.358902875289247
0.366105120923177
0.373929345772652
0.378086207025674
0.38717055693058
0.388858646170295
0.399441327849731
0.405738349408813
0.411915157529425
0.417658889887168
0.415041056535803
0.423928756589857
0.423495498964689
0.429918524310712
0.429747762268574
0.439553815968294
0.434991945023308
0.438756755027068
0.441858754044303
0.443162466162415
0.44146538380881
0.44337325857359
0.439155442609512
0.437634315547366
0.430534793741708
0.429860019550404
0.425465343232262
0.428871540816542
0.421889603214105
0.424776881279977
0.423400355819401
0.424378779911367
0.420671956520067
0.421530524062132
0.42494801848355
0.425799565694739
0.426340470206848
0.426489431599561
0.432702560240906
0.432908454032586
0.434674652557602
0.437004526819372
0.440603938962939
0.444784319092307
0.443991923006054
0.443937296361683
0.446646596082428
0.446896140634906
0.444556590615086
0.447304539420469
0.448552026942033
0.446748503755491
0.442812075794
0.447635539736559
0.44004939113821
0.436514758583394
0.438012616430705
0.447078705595291
0.445048433999787
0.436651631093299
0.427622954419937
0.42626022228053
0.427822188282955
0.419648266312616
0.416867913660527
0.416024129073618
0.411735735859956
0.405188152610816
0.398717259770418
0.399797075937327
0.393903132913722
0.388044235233671
0.380799492098672
0.381549151976081
0.372692668461309
0.358116361433554
0.352639124422696
0.341950597121216
0.33310413893404
0.328542045803262
0.315364634820971
0.307621250330949
0.292541016674185
0.284182393665446
0.271020969694957
0.260787471025332
0.251541806904609
0.241170011236319
0.233714607677482
0.226555440840803
0.220920799727101
0.21623916982627
0.214590713676144
0.212499856382793
0.20670468892707
0.207598640758462
0.203177828895757
0.201529374827762
0.202286068132658
0.197713749714031
0.194329382243995
0.194450276432026
0.193215202585414
0.189075558708537
0.185646545919464
0.183025873072215
0.180178654697709
0.175272359397704
0.171987481694701
0.164359313232269
0.162168285395506
0.158602950994249
0.156624255409187
0.146994047145349
0.142261748317428
0.140407653532184
0.133385094930765
0.124285508445199
0.120747534030437
0.115202364831309
0.111540868854293
0.103648952156922
0.102266910074035
0.0949877200040663
0.0926487488342263
0.0897392981822248
0.0822286396415885
0.0808145679760476
0.0765465370549571
0.0761446262338406
0.07323109277006
0.0716234195939682
0.0700781274280509
0.0668377654093675
0.066501150478997
0.0636509732060473
0.0636687256216557
0.0631603035632736
0.0624685104416801
0.0633903606121701
0.0597047581185079
0.0650920281061454
0.0610714849554893
0.0624563201983348
0.0634164268620839
0.0610937183804147
0.0590114907870203
0.0586941363317257
0.0644928259491381
0.0646095788800005
0.0617130462455557
0.0629909744756419
0.0670072701731782
0.0655942283536959
0.0630890724145137
0.0597352409603745
0.0627247542404614
0.0624205027827862
0.0603294064620994
0.0628378524657862
0.0571671588290227
0.0592839187740039
0.0589777104135063
0.0584474431358393
0.0609866515778484
0.0588035137021407
0.0576423229933772
0.0568386996125956
0.0593870673350322
0.0578456125030318
0.0599942299419752
0.0623146857494466
0.0633490906809239
0.0625260930302999
0.0633694298092276
0.0648794970861891
0.0668080562277066
0.0659207422832379
0.0681873216627758
0.0649285222580067
0.0668328089483905
0.0692568458465948
0.068113481557208
0.065590464545935
0.0681679446570218
0.0661612871550932
0.0713396709001239
0.0699227779496295
0.0692200097980837
0.0680736637246271
0.0700784463594165
0.0718338787102529
0.0733199265181127
0.0720321651534078
0.0730511016743471
0.0712576542799092
0.0755437279951407
0.0790860161924009
0.07840351769794
0.0787918127620742
0.0793921839823945
0.0834482846293701
0.0880391350883573
0.0879325635285043
0.0920336923850242
0.092483092861355
0.0945872045951462
0.0919675954510421
0.0982806491211478
0.0946922824716877
0.0939611065867356
0.0917546429711513
0.0980782375312428
0.0897232670324822
0.0856345882786549
0.0820968862368118
0.083105808839165
0.0823248337635186
0.0812287782274798
0.0782481427919872
0.0840392034668201
0.0789574091464016
0.0748456967723377
0.0769208207287892
0.0806767169699276
0.0773142214284689
0.0815191241256762
0.0779266517499236
0.0858768652944101
0.0792312997065737
0.0770999697843398
0.0786715030681652
0.0716099147837032
0.0755680877198874
0.0733015232736938
0.0711812739626624
0.074036389724017
0.0716241838425232
0.0728782446699334
0.0686138626258197
0.0769460159832619
0.0730880279454182
0.068295019047584
0.0705004847904075
0.0704393007243813
0.0641714597083045
0.0623795945659926
0.0661799962783041
0.0694016606355067
0.0639141754561749
0.0684520741886609
0.063067859466034
0.0627730004714077
0.0659781098712973
0.0671725140175155
0.067596063650228
0.0629692738213979
0.061185317525284
0.0703129180210453
0.0615505603904591
0.0629952335693846
0.0582794742427006
0.0611441934564927
0.0563154402813752
0.0608773692253155
0.05480679878664
0.0564564493143534
0.0577168636057215
0.0582871071185994
0.0536838236670156
0.0571391150078371
0.0498792420154995
0.0619368842192763
0.0551686720565741
0.060540486852102
0.058250170631175
0.0586230249234543
0.0505688225663868
0.0576464699265621
0.0529927254928783
0.0566235798374781
0.0446961068134151
0.058800524858225
0.0564024082434887
0.0557079271674103
0.0495383048810676
0.0642100922141461
0.0573226055669966
0.0592784318865749
0.0498694158766498
0.062198388781427
0.0618604881843938
0.057679388268734
0.0568612984366307
0.0684418457320281
0.0564866450397151
0.0613419286529219
0.0631040312427641
0.0578403797376958
0.0735750746168032
0.065326318563113
0.0646817505586166
0.0676473965838636
0.0618422285772452
0.0756742625986271
0.0759773171474727
0.0766972635336575
0.0757511234077841
0.0686445575834961
0.0716009469150441
0.0868507482984968
0.0811016555725872
0.088858844560075
0.0922721897488491
0.0982514829638331
0.0937032271866605
0.104443385106439
0.0903002653119678
0.0974085017568451
0.0991501940394312
0.115442729578386
0.103507320516759
0.109943355935539
0.110755878117547
0.120486867888372
0.10402471945784
0.10586992807381
0.11016264073798
0.115304325070684
0.114783019899239
0.116182561297049
0.119160182139513
0.112516111872385
0.0980668275532864
0.115826066682544
0.0951167298413399
0.105792446159317
0.116797405059361
0.112128894779813
0.112922046862154
0.104161364793706
0.096175286815604
0.109827908321298
0.0956310005064674
0.0959054760646251
0.0801169995414683
0.105670814596992
0.099663004196787
0.0955112110659082
0.0869280620071777
0.0985790935465794
0.0908899363140896
0.0909742719247706
0.0884664372000951
0.0923551205148016
0.0780241036990699
0.0920124485038798
0.0837042978804385
0.107678027451884
0.083550898275783
0.107524707059932
0.0934369127216095
0.0839896789935692
0.0595191120549024
0.0853762272454114
0.0942259431824082
0.0961623742839503
0.0964704836677661
0.0920323913884451
0.0899502018412858
0.11134404894257
0.102136101256025
0.0921740762188657
0.0807714659672377
0.104177496493522
0.0912941219302397
0.0927401080666829
0.0813420939562284
0.0900733065700812
0.0973500052386857
0.117035871546423
0.0862425817448804
0.0981245136678106
0.0894476630214918
0.097814390073476
0.106231556381926
0.116309840188864
0.104188464043439
0.0944116570896517
0.0703884417996052
0.111482631110864
0.093430810127276
0.0931348124551333
0.0941960216513743
0.11033323962105
0.103677598546532
0.0997285058220746
0.0982099087058042
0.135842733607642
0.102519235366794
0.124140956807655
0.117912543066963
0.132641064869367
0.117910532157396
0.135636336203083
0.13571333820819
0.139305667955837
0.138878393266268
0.148505136395667
0.122318716541625
0.153278292632396
0.132482219880198
0.151719335333783
0.126437283329208
0.117069587206363
0.114313416426865
0.15293653109914
0.149819451473368
0.178032996819805
0.136161734711402
0.0981356647892641
0.111828683554799
0.156568057708765
0.0974932615711155
0.131311916262692
0.149868725487803
0.162261474419981
0.156930402326645
0.138218250983031
0.102107117334595
0.168411123802805
0.118893365771485
0.153559281717616
0.124708149203012
0.138636971989254
0.0747176472210057
0.0932825024606859
0.145253822006431
0.153422682959807
0.134155348488778
0.178758300141698
0.0832017486170443
0.127850005419544
0.070712121028403
0.0892179312610005
0.140808056390077
0.132955726388798
0.121120843008213
0.200951999876727
0.147525201936746
0.258762448246276
0.118094384522607
0.159149892758531
0.0839068984956616
0.138708799750591
0.0795912831984514
0.136349751771991
0.0665869235259597
0.0716563341065544
0.0883626416235945
0.117164708412591
0.10428909387604
0.202429538165782
0.0968395018892894
0.0550458858522184
0.0516155859891253
0.0762631779064444
0.123360464703744
0.219538928114948
0.121045931466561
