3596
4000.36533379555
650.420452594757
1
2
2
0.0641368386030197
0.0719422380519831
0.0704863865988778
0.0570679173954364
0.0732589412572999
0.0668965580659648
0.0741750745126315
0.0730971713121785
0.067060601671898
0.0646780736865971
0.0705786983636863
0.0645974561029131
0.0717557805077066
0.0702547938526764
0.073607475294044
0.0602231313300836
0.0651779958071963
0.0579679446834651
0.0694178154360461
0.0658702609302422
0.073003868493787
0.0603245168297351
0.0604263789045762
0.0598324779088931
0.0737080745703541
0.065578432277609
0.0671547905055718
0.055793792872613
0.0758080091626823
0.0733757373567563
0.0788817752705177
0.0684126019514716
0.0742368384162231
0.0662228531222166
0.0613139699572319
0.0720693320283961
0.0763607101378508
0.0702032063268535
0.0710008212420745
0.077506458360913
0.082862025117406
0.0652562292137918
0.0732201074801363
0.0729636065807398
0.07090671779292
0.0670349436386567
0.0732522786093145
0.0673088655453753
0.0675610769059151
0.0711381531448074
0.0743898453808405
0.0555609187944148
0.0774274296878995
0.0759604199711082
0.0708747158402277
0.0777484010747444
0.067686778615589
0.0739696007224217
0.0761380752433718
0.0641653696077338
0.0742502839900591
0.0796133835648858
0.0683762730367
0.0678374425562866
0.0695347703182942
0.0610553052716254
0.0747839055713101
0.0601127791471983
0.0678251852134544
0.0620942955653747
0.0721342293361013
0.0816752001337899
0.0804127050120037
0.0659780081026858
0.0781700703539558
0.0654726418409872
0.0710190557623065
0.0582330100012432
0.0599349794642735
0.0778516412521406
0.0875916175078726
0.0643776552664821
0.0809091624947482
0.0572550510637449
0.0712239181408116
0.0852520346125039
0.0623233045592486
0.0658189523928639
0.0844196137459531
0.072782669392423
0.0723426202801808
0.0650937041365136
0.068826326920671
0.0643018706814494
0.0684838330614974
0.0591774567960076
0.0617074627791926
0.0635274589166531
0.0594013367351534
0.0683217723169199
0.0747893143130537
0.0758699949893177
0.0864356864250015
0.061874642399984
0.0971573893139256
0.0802718768981676
0.0654550631641314
0.110562726456205
0.0803341247973283
0.0682630624970301
0.0705807493560204
0.0648485597216675
0.0729063049899955
0.0650117787567112
0.0553841349950722
0.0745668182487656
0.0896033530686705
0.0633617841971301
0.0677008746825617
0.0555811129016028
0.0499372870751589
0.0804048656286148
0.10299551276375
0.0703422139591878
0.0745780475189814
0.0610477071394401
0.0565878675138518
0.095732427296716
0.0968732507143141
0.0735989922337943
0.0656200745139348
0.0577359068236574
0.0540983238227969
0.0662568742591616
0.0953712902341325
0.0763138621941648
0.0621555492250637
0.0479336521870843
0.0828897215547012
0.0989398508132755
0.0918059776384233
0.0618650762996868
0.0468144737331151
0.0557659861403623
0.0902684271694291
0.0646743523927075
0.068933397833881
0.0756442510396171
0.0774480325485701
0.0627506497123859
0.0653868714538369
0.0590259158710097
0.0731104005052633
0.0631946188449831
0.0341274106679699
0.0965197133714472
0.113887086167227
0.0746793418205634
0.107938397154932
0.063859795549381
0.0627134113087812
0.0708150476342943
0.0633836805506684
0.061236750038646
0.0658344052274413
0.0576109779960317
0.0774376616631244
0.0845882565399603
0.0588769073642337
0.0639051771191335
0.0879044581713388
0.0581532476122367
0.0554495333969544
0.105751385983877
0.0817068568184695
0.0523561990123144
0.0788705741896226
0.0714090427113974
0.0561160562281902
0.0680886144353966
0.084692972052589
0.068800724086407
0.064606612923252
0.0600627088949928
0.064022808008675
0.0699924817821213
0.0608445890112351
0.057518933012193
0.0549658588606896
0.0499964804074981
0.0666561791160942
0.099262703776061
0.0843149720573281
0.0757265535353644
0.0610428814262061
0.0339180598801754
0.0943556105954158
0.0963114970332461
0.0628650194029382
0.057694399016269
0.0616119212851726
0.0593333913830846
0.0594965582887572
0.057516402276382
0.0479813953333563
0.0380928461819236
0.0935837507754979
0.0792041617373574
0.0579319692559526
0.0686056065700068
0.0556292729407185
0.05848501758486
0.101436843106778
0.0961184650330527
0.0697815475285915
0.0635723804921934
0.0553064473049078
0.0650085409686963
0.0844019074499044
0.0611515172286626
0.064318059171481
0.059847274125458
0.0617186393257139
0.0678356067275579
0.0633931584061601
0.0573896370044766
0.0615911805100126
0.0610207289608134
0.0656919871651292
0.0669979744187965
0.0696223104402813
0.059431295849602
0.0579868833652425
0.0525342449153982
0.0595443974801858
0.072594238453401
0.0840824673733687
0.0617142064998681
0.063994752216926
0.0533563606198167
0.0605708291415931
0.0605395776825965
0.0616477458736798
0.063479683662806
0.0566893033200035
0.0667146911973397
0.0938589269048112
0.0755009201769186
0.0602216566649978
0.0527424513985219
0.0786184160231925
0.078051727907779
0.0601779420916917
0.0601959907555818
0.0632186873405127
0.0531620175075672
0.0566401574237019
0.0853979097525004
0.0685907111949379
0.0510766577064093
0.074445985448163
0.0703983969695962
0.0656708213457783
0.0460245652540966
0.0544334533675964
0.1205641318953
0.069295574055049
0.0566674662306845
0.112706821171864
0.0777528882220783
0.0753594281055318
0.0580172352544503
0.0356986272121998
0.169956981826139
0.118031857637307
0.0643486120469912
0.0650223691661568
0.0826110980553547
0.0641146545468668
0.0701422628796429
0.0656373677475571
0.0764658622693961
0.0791957959655657
0.0953788594427622
0.10878051474222
0.0585020119871923
0.0856280821333032
0.0885493086435446
0.071770826482983
0.0665682868999317
0.0549138591903237
0.0580776909254689
0.07508521879074
0.0786431104802653
0.0817143582436911
0.0741559013893356
0.0582430890080792
0.0888181769586948
0.0861495152632472
0.059053774501757
0.0708161927134128
0.0684861977896811
0.0611600252123497
0.0684683068257378
0.0628932184290572
0.0767480256378981
0.0602767439927004
0.0601168853435149
0.11369360140256
0.0740421761534686
0.0664871283071495
0.092095904751353
0.0787373860769214
0.065228654050964
0.0680285245752824
0.0641792556221549
0.0704704857711971
0.0615570450542332
0.0564229005667203
0.0869135016247562
0.0758042017336984
0.0728926411095907
0.0696049368543949
0.0665973769457097
0.0653166046440898
0.0672462215021206
0.0686357568722702
0.0632506807652471
0.0637172168328242
0.0608818780773857
0.0815040970075399
0.095423946673847
0.056700483308902
0.108939056194149
0.110385175139982
0.0740492447208939
0.0732298403209784
0.0768771407033541
0.0668335128846268
0.0711181644472922
0.0732506618075034
0.0760283946917946
0.0754940618052921
0.0869823295280113
0.0853265217976473
0.0751021063555623
0.0663866709997308
0.114111973254621
0.135507461749141
0.0945920408910635
0.0795878709673384
0.0611320597373842
0.114374154723776
0.108145863117416
0.110863392932612
0.104197555756103
0.0836683749417077
0.0846274568565404
0.0824207431132325
0.0848386871479129
0.086892969824688
0.0906847086268002
0.0835073965503472
0.0871507674945989
0.0910706247158881
0.0924329566760061
0.0821310973190731
0.0890571258793962
0.13205329039161
0.101789729953934
0.0997278242154401
0.0934354706249944
0.0881833380263491
0.127197576210655
0.118502191393281
0.152819803243098
0.128344361476782
0.134492747576762
0.132701393464528
0.109964779603162
0.109743872884593
0.106477540854052
0.109818439193916
0.117394795028487
0.118072311629767
0.114095942337982
0.113824334676151
0.118678964068287
0.124613738348066
0.126961505960576
0.118578085904461
0.125103017314495
0.146672608940431
0.139799537833204
0.133078936131925
0.119304497421553
0.1459960641609
0.168333727927582
0.178421070407295
0.141004287121486
0.147779973610281
0.142064435498568
0.151447520809914
0.153739990337751
0.148876150114062
0.15265126561783
0.156856635721378
0.179338487923508
0.168961350137883
0.195176229285288
0.178331978355978
0.161475912098762
0.181330966995435
0.170259394808424
0.176211363405408
0.191432981912934
0.172619880016137
0.167091213278005
0.212379904467573
0.190410337880961
0.197167021637913
0.205299870549456
0.176911682407013
0.183807903565229
0.196524948387727
0.206669191127564
0.194193507149672
0.20589936984269
0.202753003197129
0.216035360658041
0.215225257444264
0.21695822615223
0.2107479957982
0.235688865284133
0.221877502415236
0.227979548468819
0.231401252927691
0.219098645378161
0.225632312814715
0.226469368817282
0.250444866377991
0.241224888886836
0.256652989756249
0.250758071758699
0.247706522504765
0.255521294578207
0.243087531099249
0.246123388918664
0.259379240941364
0.257907275238876
0.264463409409881
0.248392766364531
0.265065269741201
0.291869700581636
0.277325057674868
0.286034905316098
0.287362712550807
0.277302442180247
0.269011924359896
0.277737730149562
0.280875738456452
0.30019859176896
0.334718552673163
0.32693670515569
0.322766444697185
0.34827575004614
0.296094379817248
0.327042874291935
0.329823334782046
0.341399299549466
0.318650656442504
0.340273569612057
0.339841346944585
0.34467206593821
0.35636745464306
0.342373750125513
0.332080510454715
0.348853230304979
0.343148724306758
0.35694256949695
0.370780618682748
0.373558571132969
0.390218764934237
0.371988688270908
0.380755655090273
0.383980575650651
0.383669484973994
0.396581580648339
0.382475148427361
0.416052627386147
0.389235441938769
0.422723562928437
0.436689665047634
0.436488052046464
0.412611525588144
0.421012609608735
0.434687137992063
0.443401612517848
0.413796030196298
0.452875798904515
0.42261548857817
0.444850631908061
0.45218669528058
0.474348999430389
0.458313276414173
0.457258876931533
0.469927347289123
0.465693419050412
0.495418181453277
0.481788403197305
0.493512024637541
0.514521296962333
0.500213766483751
0.530670183242861
0.527613380661797
0.526194788526601
0.507333696086836
0.525985560584566
0.514229002169064
0.542720970784283
0.509383555076364
0.561913248865745
0.523151093396147
0.562203324044332
0.551374397032102
0.579260658775623
0.549778614203465
0.578693062661463
0.534274296182358
0.606020374328124
0.569179330645221
0.589354289652561
0.55436215310815
0.617666361478961
0.572886387017656
0.618305440635368
0.600406039656946
0.608150026404218
0.599198366051589
0.626166248995016
0.644018169863948
0.639468646556872
0.614194280013447
0.623804198562373
0.600571326670757
0.628467223278771
0.627447792907095
0.706514249509588
0.617434680323322
0.676022516709099
0.642576421129204
0.67709798802271
0.697240130982912
0.697501419558941
0.684504450939377
0.694175617016286
0.661008907170997
0.692875834093244
0.722270787587418
0.74155327333311
0.69033406432652
0.761034215423659
0.677049096342426
0.755042853963764
0.706875073654502
0.76115493077798
0.711566952897922
0.703317218156326
0.714478681603106
0.764493862202522
0.730846057430227
0.800274258975786
0.735124791314
0.789731169933224
0.766176141338775
0.796655226079419
0.746347850811977
0.767019721272982
0.760009737109726
0.853320479943682
0.794042841897332
0.819282887811039
0.774759927383095
0.916977660091985
0.802114715321834
0.853059110972725
0.830110562349376
0.848940887759991
0.747554167682636
0.882903906646571
0.83474388337068
0.913816300651282
0.841197160561795
0.921557762415687
0.798997522646805
0.888880939037106
0.850195392076139
0.955841504014078
0.85331253112712
0.889652649921835
0.846679684876605
0.887839100816536
0.840763059503742
0.925195758853567
0.844531978752418
0.89876882607565
0.882618372625787
0.976398399286212
0.901308676978816
0.893316119791554
0.849867914768239
0.938783371187803
0.937148581947143
1.00220337551349
0.915894223131697
0.978566700071846
0.930258045376311
1.00427286566419
0.92798585615582
1.07151527829442
0.92878838463429
0.955073900250423
0.973906121277231
0.989118247808799
0.908480227428381
1.02096254442691
0.99582516255089
0.978264732193688
0.93327668487852
1.00282076617599
0.942780229033753
1.08685356752562
0.969335859998382
1.0222827953459
1.00813096073854
1.04031674237768
0.983893588717535
1.05021782337791
0.965006796399087
1.10329074845375
1.00974526530933
1.01375236891876
1.06278674273962
1.0716479556134
0.967090956636185
1.12182888900014
1.10718630404235
1.09908733115283
1.01276316991154
1.07040318480107
1.08462676545706
1.16680787346022
0.986405094666185
1.0599866234205
1.10545417019835
1.17548577302859
1.0348885572471
1.10168469735438
1.07162089072491
1.11655219319619
1.02515531707607
1.17049795946911
1.04261379251022
1.15802355714369
1.03696713857568
1.13281354911024
1.05110230998899
1.1095064780244
1.05294926675251
1.15380506376568
1.19321298810695
1.11826327896375
1.06065742369116
1.1576758927935
1.02687200178499
1.14684442082253
1.13858667448203
1.13133458469757
1.0442622580186
1.12183933225685
1.14906248674182
1.22785080203415
1.03610671086494
1.14187019933765
1.13358485159046
1.23127604462672
1.08577270952702
1.1790524789333
1.10570642758761
1.14326426106243
1.1407877350994
1.24363706731526
1.08210042016101
1.16962578969902
1.09695796523054
1.23152136189793
1.15969462768376
1.20195089661393
1.21337254587861
1.1774062223779
1.15545164682625
1.25875770224022
1.20131176002002
1.20165702262525
1.13533259275702
1.20869208014044
1.12941243322449
1.19215788428697
1.09446940265923
1.17455834074039
1.11872341440001
1.2204769957351
1.12622803765732
1.15160328569445
1.15775860314276
1.18215227362253
1.11669882401088
1.14078865827704
1.15637044169813
1.24119558939278
1.16123369101756
1.17982406268255
1.11671896690766
1.2321929005981
1.18836131754784
1.1676928704517
1.17973366272864
1.20538545713521
1.11339017167597
1.25889884413217
1.17824653039861
1.23761503496158
1.17679659215852
1.17838171663535
1.1035287710052
1.21969126177509
1.1683918446316
1.26131871011532
1.14107392407543
1.22074694527046
1.13618355620964
1.2212864235527
1.14022981310548
1.2098325236538
1.16918545490031
1.24052076281236
1.18102881266622
1.178163136811
1.16571609838739
1.17844284947917
1.17328945342211
1.19743063081368
1.12367120296124
1.09924377063878
1.18263410650977
1.20892921928394
1.16434653540052
1.20535605177406
1.09246990985555
1.22651273913263
1.17090140265411
1.18316882100591
1.07731599935678
1.19424782955203
1.18518671944886
1.17909576493125
1.1507561209474
1.2262010675839
1.11658097858434
1.15453752228729
1.14987714875159
1.19877460626621
1.14612683851163
1.16286960214916
1.11680614171529
1.19174938627565
1.14617687998742
1.14034104331199
1.09520965992265
1.1589812061798
1.08214244642968
1.16224249117601
1.15159797014945
1.17084310368148
1.08968079459496
1.21111815451568
1.16280015794405
1.14647654412272
1.1208593154086
1.16609404233749
1.12465682518268
1.16621679442637
1.16376615109395
1.1004927137587
1.04534467707964
1.13340393714848
1.09983809615527
1.14760892151073
1.0917782726152
1.14221650546448
1.11646282330777
1.09239164927945
1.08146762424348
1.15615718160141
1.08340709508615
1.0997501542948
1.03254305967119
1.12449113333017
1.05492911404666
1.11249449216957
1.03629953802689
1.07221014748617
1.06641609249752
1.12817375491299
1.03941306695718
1.08050774361239
1.03981061225834
1.07046848243781
1.03834190259829
1.07879569657336
1.04011485884386
1.05373628810758
1.05431180974329
1.03915918093753
1.01013599319961
1.08413210203133
1.07090799183341
1.04199224752508
1.00050423841681
1.02993184336614
1.00450285602001
1.0490154650561
1.00296088125626
1.06675541087919
1.04037564978233
0.989378397365528
0.985360402074712
1.01236701969286
0.992898274734196
1.00220374273067
0.977148408301303
0.998217481301946
0.989712683583846
1.02169711770261
0.987849743560722
1.01889807050348
0.997618351556543
1.00579711685864
0.987162066808001
0.958331158331217
0.925437188094156
0.953794374146666
0.981510886699807
0.980761909479459
0.915698537941783
0.943190553272121
0.961274846203867
0.94333768246468
0.932603843796468
0.952235667031561
0.92694024681709
0.956346894042223
0.900661625381595
0.915569174732339
0.899431684067901
0.926264815356444
0.92484480874961
0.923197663777903
0.936351330841901
0.901743330664478
0.869784777754101
0.905363432801146
0.85899286552707
0.914621948693905
0.916281790260248
0.888624881713952
0.864929013154225
0.888129069731135
0.878806915784011
0.860171983687126
0.833379871254803
0.86033134101413
0.860620231465559
0.849324941330357
0.829321886469647
0.829572988484555
0.837643243429408
0.846787057626567
0.810407398431516
0.854513296122807
0.839174359966157
0.81171704072446
0.840312868603038
0.824533212052004
0.783797475217945
0.814795047279573
0.806481284329119
0.785835229649694
0.780997997108659
0.824275786151328
0.793687639791856
0.78553291410543
0.765578751928754
0.781251180758583
0.770746641487355
0.769523886085633
0.77305645352843
0.77312980135482
0.768875135993238
0.764373503539128
0.762993414826522
0.763657510212464
0.753083272572506
0.733356831655669
0.724507976746561
0.722231036316375
0.731520312154364
0.735773166684004
0.717739187206655
0.740866980798436
0.722007849595542
0.706898706768859
0.70009536091426
0.703963922740081
0.69888138326918
0.713848353933463
0.686046975108084
0.692786061960076
0.690932187084432
0.693077585320526
0.691781292936099
0.695177021623569
0.67053097248637
0.666172532045471
0.676690062704941
0.667421783622734
0.670728964349863
0.677879999248457
0.651190564286109
0.653977708703125
0.651949961079481
0.649566423374398
0.632442235168902
0.635593457230007
0.631528261138354
0.629548086909235
0.628238117830269
0.629546696402104
0.628792975260392
0.62402223271785
0.619034822863759
0.622719475306593
0.603420808795967
0.609221062712093
0.615201322299376
0.594395456987148
0.599608679891182
0.604277437156182
0.591112847425057
0.599066796464154
0.58372267017064
0.581155716768013
0.59689291965211
0.578179141133787
0.573580575731419
0.575666403956553
0.579881137448255
0.573644542454659
0.576518109691334
0.575496954970365
0.556411304539066
0.550677388698618
0.552839849829218
0.553627774376651
0.549569016075347
0.546365007451526
0.549034498636557
0.546389807436045
0.545159955843152
0.545701949941896
0.539242361247642
0.537114497604674
0.530331520951234
0.53401483587562
0.533156318873901
0.520108151866004
0.521086368438642
0.529117580162097
0.529142396482424
0.530545510552954
0.508252507135612
0.499934445197576
0.514375001516521
0.512778350274223
0.497812400250215
0.504892463308132
0.49867950118296
0.490677380081375
0.501942350705491
0.48984345731509
0.47945298111821
0.475618716651702
0.487739365129323
0.482904743788097
0.474000798489619
0.476650402085478
0.487059360520733
0.471598314095584
0.467795551903035
0.467530040633371
0.473405689318934
0.461586538734458
0.462695166632239
0.469131648543165
0.461960610796968
0.463095544168707
0.456933441225218
0.448313495685775
0.450267204411102
0.44484585234664
0.444430884232078
0.435236611143174
0.445175253381803
0.440000141348412
0.428966594611899
0.430439804384092
0.439559942353673
0.426775623586981
0.430564024678745
0.429868193484083
0.430990065145222
0.417305823475641
0.421807083407827
0.418062431143051
0.408943395630088
0.410692835038562
0.410831734687594
0.409762251475722
0.415277799038655
0.401667701639331
0.402374148758879
0.403936227993081
0.401378636188057
0.38960793232041
0.39342251452306
0.398360132120621
0.389541337279073
0.38409632438839
0.395688986819908
0.384116211736185
0.384692160730909
0.38646884896459
0.383346427353101
0.385668787295502
0.387242535917556
0.372979227685624
0.371750058775225
0.376031174004362
0.375740855834378
0.366200989057159
0.370122615387594
0.361525968467495
0.365065246366682
0.364552300541582
0.366881670719036
0.362782860909298
0.368620834227284
0.360237175700904
0.359875977330307
0.362917728174303
0.360851933710914
0.353665677247551
0.364492453028506
0.354389363571232
0.352943638888558
0.350176104156926
0.352993984757803
0.352420601604419
0.36057954443907
0.357970719959487
0.360053398689423
0.360475363447376
0.363325753331389
0.362311967284605
0.360508692772216
0.355022760986932
0.356100052131297
0.355917592160735
0.358951969304573
0.359392411375984
0.362388106907934
0.361711502641513
0.366106194140827
0.368938538872099
0.368525178090227
0.365900583425762
0.369619786891669
0.363183715234651
0.372921584079097
0.377477088883859
0.382861813183354
0.372659626259881
0.382218139387885
0.381203930338097
0.382514942714515
0.382141073808944
0.388197363818481
0.389515528911442
0.399177466195039
0.388074995134834
0.397067750088776
0.390047734840493
0.390486177425792
0.400490017127807
0.411238928590421
0.403544337343971
0.40578000412824
0.409294044892686
0.412996275651603
0.415168308645637
0.41362067508317
0.408331287298529
0.4198814929936
0.421386706496094
0.427330419193581
0.422671806806232
0.433329339132369
0.434838199431236
0.436764212285446
0.437454978890925
0.444274866415623
0.444834318703327
0.455090939897659
0.455202996290968
0.457199724583188
0.463266648440404
0.467479736299966
0.466909118903263
0.479050073807047
0.464547060933376
0.474842444064546
0.485740491699306
0.48544313288068
0.476107831376263
0.487413512985474
0.489001831439832
0.494267825999142
0.480242798961486
0.496111009230154
0.499084770403718
0.49414136538138
0.496022802952464
0.498316949619818
0.495800095231634
0.495573782225536
0.489887101239851
0.497026508305812
0.497742163659928
0.495223417145804
0.491812247953445
0.493443013168926
0.493037231071429
0.496426551119582
0.485175784661326
0.485682691021421
0.482642407153768
0.48618307268047
0.48339100943077
0.49549978040076
0.488609901945637
0.489513209699659
0.48812847624986
0.491105276774886
0.481559193125788
0.486104044975692
0.48296109245544
0.48476611510753
0.493502000324414
0.497338229764804
0.484241166925332
0.494048990751884
0.490884724398654
0.498257581400065
0.502149745351001
0.497008135368418
0.486796739989545
0.496579602802801
0.486157596825968
0.504631074499625
0.494374351507753
0.483882061284983
0.488083015729462
0.493063871588425
0.486225155057654
0.490722964748749
0.476663125563642
0.478348432316896
0.477901622708046
0.486298832555214
0.491786505814223
0.489292639170958
0.478931504047675
0.487079657965143
0.482543938298322
0.488395382460098
0.482071792778313
0.48764934725909
0.47635207254511
0.476663971483803
0.469210746634819
0.47049779338779
0.464540531728899
0.464694491539119
0.464491056952246
0.47312708593607
0.457040638463413
0.451126956897937
0.444085043586938
0.455842368563356
0.440138974431258
0.4405111655376
0.443224881704094
0.438123126869744
0.435919182428091
0.433106497780472
0.424461968954854
0.428538514478669
0.420859595630901
0.426522004148504
0.41018702819982
0.407673936829365
0.403514998275586
0.405291525857945
0.403123047398887
0.399707836694538
0.392395375598197
0.387235743647347
0.381312303468692
0.392056219318583
0.378484799980099
0.374573189543689
0.372991985835608
0.372925120295558
0.369464139733119
0.371218319002824
0.368214884511876
0.374293441785035
0.365960837605472
0.367055655368226
0.356450583797791
0.354514679054423
0.352329251688743
0.354924595907065
0.344964189179644
0.352886481030627
0.343496561579385
0.345797882179824
0.340733118831889
0.344296890083514
0.33664454851819
0.334052815884911
0.335923172491647
0.339795119878452
0.331277575585127
0.329747372169549
0.321326048639083
0.328176443518323
0.325155370453198
0.326183715211205
0.322070186368274
0.327913016350528
0.325168539513353
0.317872462230777
0.315710533778301
0.317946821613001
0.30642728116205
0.314616698150153
0.311400037745855
0.310103786775957
0.306243117592229
0.317991496032442
0.309062352519869
0.305866851253488
0.30344672158145
0.311429537752739
0.298746144314865
0.302851155887925
0.301041380050441
0.304524703562772
0.297500523413817
0.296646548985889
0.293774929975569
0.299031117834162
0.286222895466844
0.289522607416999
0.287483772184639
0.290314718844218
0.283176930046753
0.291202345708941
0.284668236544356
0.286775721748382
0.283426836547859
0.281570739006885
0.281931186399365
0.289478064577737
0.28290136547589
0.284552895043947
0.271068667885389
0.277055782686311
0.275130080443093
0.282960622286347
0.27783198659731
0.278372532264677
0.275041884728813
0.274009562637679
0.270089902545825
0.273495102476945
0.264707471527422
0.272807500039994
0.267924506490913
0.270245721703795
0.267700088326164
0.272167929368388
0.2661632913839
0.266323141053124
0.25938669882589
0.271094548002167
0.260581922209689
0.265129721740995
0.257558086577063
0.264568751948607
0.257530354219932
0.257678817829003
0.251889087464113
0.261814437754251
0.255155356127315
0.260537361960489
0.25378749373758
0.260373394522506
0.256840365294118
0.25742283937706
0.256439595474325
0.253624717062355
0.248577910646384
0.248688904621074
0.250354397721006
0.257723150449109
0.246335137466417
0.253518357050695
0.247644858542122
0.251469595859079
0.245008700367857
0.251866462258001
0.250633801932111
0.253808775561607
0.241916612950432
0.2449966018892
0.243115649745597
0.244475202122975
0.244858834520765
0.248425792752408
0.244464012359154
0.25142133441042
0.242557721703485
0.247729148126699
0.247967944442723
0.249760605244681
0.239469532633805
0.243590690229579
0.242981927678803
0.246252732848584
0.234941575670355
0.242979734706458
0.240096351205481
0.247669047576192
0.235575286654175
0.24149655520409
0.238603238075948
0.239942369517456
0.238950472973238
0.243357928853252
0.236756405793258
0.239838046510884
0.231170281596689
0.236913805033547
0.232370864234634
0.235049479284463
0.229038862378258
0.228880787647423
0.230745550692791
0.233046869490301
0.230889807649083
0.237892323471937
0.226216669391837
0.234703349695882
0.229228123348794
0.230547387208183
0.223407482117067
0.229962384635128
0.222327429462141
0.223877753323387
0.223431082653902
0.229745632539402
0.220333977226927
0.225622541070167
0.218253384057165
0.226068312615361
0.217220904813678
0.221439724245849
0.222676346170328
0.219449486266741
0.221186532258821
0.217721997303181
0.216847573693758
0.220070804853624
0.216988821437043
0.214595658346113
0.213948953645709
0.213904676831303
0.20981209229562
0.215252262345311
0.21275653170631
0.213705829479805
0.209501130306513
0.213271262440647
0.21118404698018
0.212202040541877
0.201811644025738
0.210589202485625
0.208124887818019
0.209005663938595
0.209048917001085
0.208720200632541
0.204680853523184
0.205083595572419
0.202335014500743
0.199764610666872
0.201967880404234
0.203515242613402
0.201389970426587
0.199612030040983
0.197372366884148
0.198084688055793
0.192606772748781
0.197190725989971
0.191176751415573
0.193148092939264
0.190147153499801
0.196805300662656
0.188758318197819
0.194119629648278
0.187960975987865
0.193240387019988
0.189990261767821
0.197981696297413
0.186208656661185
0.188398103021938
0.18738204482494
0.18533956953624
0.17985915301612
0.183507186956675
0.178829895680437
0.185924717895336
0.177716699768961
0.185396597178222
0.1739119378971
0.176811088111888
0.173271863675143
0.178637802005597
0.174449661315554
0.174907369127964
0.171312300208187
0.174504159802101
0.172940756584571
0.175357401574435
0.16841253994018
0.174238640889246
0.168354847167992
0.176910018733944
0.166803282485162
0.170734588999454
0.167235731487642
0.172901147730962
0.166542310342814
0.168788956279819
0.162622858604558
0.166482181251566
0.165342503545255
0.165849794642552
0.16030695107636
0.168557533907317
0.158744387837546
0.165480145409273
0.162104159925417
0.163437059924587
0.156615032908395
0.160345627793256
0.155090045022347
0.160222609490216
0.157333559947013
0.157999365304418
0.153636305190399
0.158417227521113
0.154212217116067
0.156967793942381
0.153001273849385
0.160514314509935
0.153646328485801
0.158085105347923
0.150549463165475
0.155086999246141
0.151236349469144
0.150669288468477
0.150453782513531
0.154597075392561
0.14775573492521
0.151499498614249
0.146126620027479
0.149601448752911
0.147817399594409
0.149148687413768
0.144979079602876
0.150943674141047
0.146524309908225
0.147105582627755
0.144045143494617
0.142022329960337
0.138168133375937
0.147894778300885
0.14305860687606
0.142640755659985
0.143454476899336
0.146317084595433
0.139407998988346
0.146277129517562
0.139191679546493
0.144771514662522
0.139031656167722
0.143664141552835
0.137038366705288
0.141223896384236
0.137422549097009
0.141187601538596
0.13947381512656
0.143450444170712
0.136792228642147
0.138219020352381
0.140893347848531
0.142802777950452
0.13285028352146
0.14077311225618
0.134440296067623
0.140006245243867
0.137850496634139
0.138886899197918
0.132176828838641
0.139328422867828
0.13686441879767
0.137236774962376
0.13192336378548
0.133316626018521
0.136381822168003
0.134643013024635
0.12874158783245
0.133563232942148
0.129773170489551
0.138573246990927
0.130754901346857
0.130755948881667
0.12889313039115
0.132256585538271
0.128618992564255
0.132210358404736
0.130885162751718
0.13537716156078
0.128043395855574
0.130812889451179
0.132040905272543
0.133138161624613
0.13042245681445
0.129354351073761
0.125864995289509
0.131576247847624
0.126925865645526
0.126765718354258
0.121998077181457
0.1273736892257
0.123933469279879
0.126820319326604
0.124429866237879
0.125807898568522
0.121840379219845
0.125153268012033
0.121158017025486
0.126131091996678
0.124775049829971
0.122633085925057
0.122364767953349
0.12599172093503
0.1220473867401
0.121715256235124
0.118507726384094
0.127000577513759
0.1216495773696
0.125832191713466
0.121262591881377
0.124760356209599
0.120076481878286
0.121984360959776
0.118196376782356
0.120235673647617
0.115451403537169
0.122995814372942
0.119438914183752
0.12366155918736
0.119171499298757
0.123167807169261
0.117915570247475
0.119888039878376
0.113116713189768
0.117187862969692
0.116888918291669
0.118637208475542
0.113482917166847
0.119320824661417
0.11537246095506
0.11808134285759
0.113364063143699
0.113493392828858
0.114874662526414
0.115509634719925
0.111357215264898
0.113790355880468
0.108539529655907
0.110133377655025
0.109030061171113
0.105589456009083
0.109126148645171
0.111859584762144
0.108969847894512
0.111459239923084
0.106597720040878
0.110685458496238
0.106235354369698
0.107430924032354
0.102423766224932
0.108371671411973
0.103486815952486
0.105566000233855
0.105986262167553
0.102399742346518
0.0979455849497848
0.106315756788998
0.105200851050278
0.103973040286664
0.101950726867847
0.105164289788855
0.10155566044693
0.102259615789156
0.0994961887914987
0.104284299818673
0.0969915329848976
0.104258576071855
0.0942493099470703
0.0989520527480357
0.0961349360580887
0.101620199421146
0.100910234060498
0.101697818462239
0.0928165939081974
0.0955200178333286
0.095418776228551
0.100607716269157
0.0943825760366646
0.100208371674144
0.0994735199730749
0.100567635955244
0.0942330548161236
0.0971446800266215
0.0931470972098105
0.0959994483516913
0.0925097613034558
0.0954843087998766
0.0943463131177925
0.0954472420767609
0.0906124405106762
0.0951199454290401
0.0892202233934692
0.0917532841352362
0.0861802329652503
0.0935376387762597
0.088662823359476
0.0908861682729353
0.0890150675295179
0.0898787706104308
0.0873115277554497
0.0894181783232667
0.0847964666437689
0.090819565876226
0.0863289564584162
0.0886648956657745
0.0833153305813257
0.0890458075135675
0.0840034715222239
0.0876265539216659
0.0830114072137802
0.0890698188447996
0.0847671880774768
0.0851357805349844
0.0810103155434874
0.0861896299261409
0.0804975370004403
0.0836154897913778
0.0850705680918764
0.0863050008361829
0.0808002623642557
0.084402044478817
0.0793277410210901
0.0838178730008822
0.0808689346873289
0.082351604012153
0.0827035508481662
0.0851545122670522
0.0804229716755927
0.0801566785254643
0.0798821763843364
0.0818762517931099
0.0776806969807113
0.0807637557692998
0.078470903932195
0.0820864099655549
0.0790256085060423
0.0814407302928896
0.0786173815265439
0.0797837057870268
0.0772665238830211
0.0832087099490843
0.0803548721417557
0.0830442250964345
0.0826804662988249
0.0819661799727073
0.0796338561174042
0.0851302250447803
0.0787059133884853
0.0853054157384058
0.0754804929448706
0.084359089234284
0.0789740734593643
0.0798331014589917
0.0735409877610918
0.0805952666105544
0.0761004611045318
0.0776888017127699
0.0703412153996689
0.0726344482841771
0.0762476106905817
0.0769634601256707
0.0754560885462706
0.0788206504480196
0.0687345552060779
0.0751914401263112
0.0720799565645947
0.0850371095508333
0.0746412281069911
0.0770647681546531
0.0718717446152553
0.0741815480630508
0.0798659932719214
0.0751261582208184
0.0771178508564297
0.0770425045272238
0.0744151793655147
0.0727687342089574
0.0737301824454393
0.070730204823401
0.0728445448049438
0.076275319378723
0.072739190586577
0.0644718107364695
0.0795991961994151
0.0679544256081445
0.0765453841443549
0.0665045082630963
0.0824799331088805
0.0686868159868379
0.0792458877175069
0.0663595655222973
0.0815938241094667
0.0580424825870304
0.0930804394069584
0.0631491552971686
0.0939563055208645
0.0557964876407873
0.0916438783276508
0.0545256577754381
0.0940620833186284
0.0496266814484455
0.0986773398443125
0.0496487152832747
0.101982915836921
0.0502530429292066
0.0974952239528148
0.0533564731344338
0.093407400253384
0.0617602819517648
0.0815129597517984
0.0654485297612055
0.0726964786924696
0.0778399704056087
0.062937031131703
0.0842193817168773
0.0603088244717801
0.0863537787547899
0.0594119939367185
0.081297737522661
0.0641222095141764
0.0807667028453542
0.0689898511671739
0.0726579909695978
0.0694217127326015
0.0697913958220194
0.0727753743132369
0.0690403299317676
0.0678433177359339
0.0713666285406528
0.066270629468052
0.072876256826224
0.0654514072169126
0.0728528338201118
0.0639121241053894
0.0704379530801744
0.0664985306443544
0.067702699647099
0.065448310433528
0.0656330704960485
0.0644185264786074
0.0691318801959312
0.06344792811337
0.0694304268819154
0.0650882466817741
0.0672516218858941
0.0654648533761352
0.0693642088097083
0.0669331686054566
0.068307625384747
0.0633745555180604
0.0678831979909505
0.0666567073841292
0.068982539472703
0.065022526031895
0.0676253727111108
0.0640975493086641
0.0689459030715895
0.065837077209751
0.0679683379952464
0.0672975188277157
0.0681725582090844
0.0660256709362792
0.0692911616625017
0.0644720862719945
0.0701554483721851
0.0658591420632838
0.0675453143525209
0.0662116717438037
0.0699226674971431
0.067114372704724
0.0694033814689921
0.0642578949795726
0.0708648691647483
0.0625868593363927
0.0681083396526752
0.0643244819682742
0.0698005917318936
0.0622944727551602
0.0671588572262739
0.0646412488066194
0.0674469214062807
0.064110149398959
0.0659913651469293
0.0641422148599239
0.0682798161482688
0.0656187552606241
0.0691796507141042
0.0648911862540667
0.0699876353798858
0.0653862802100905
0.0672064260828412
0.0637053501044291
0.0676437157039999
0.063356143712736
0.0689379727101472
0.0650318279181598
0.0651843310786737
0.0641555796267893
0.0655610665165073
0.0654329456397441
0.0687501028018598
0.0667657266513626
0.0676761377452329
0.0667572405639423
0.0689342913048447
0.0660679268712442
0.0678049765965732
0.0650299905212415
0.0707168962805807
0.0649159350736605
0.0706424038690261
0.0653815822517931
0.0680583991579628
0.0657885138796221
0.0661239936081322
0.0652250875846738
0.0687585477129637
0.064221469470713
0.0666022860729453
0.0646711239058624
0.070854707730724
0.0665318668698721
0.0684218148705372
0.0668581109371868
0.0682983985657195
0.0647973105533771
0.0705850222917149
0.0672681863915079
0.0670292845772001
0.0674722956269455
0.0700852568969916
0.066621427671519
0.0701386676404905
0.0665040465025783
0.0663373776824066
0.0666199731614913
0.0681379050877378
0.0678153263121379
0.0723085518992542
0.0657679740711929
0.0694620356506084
0.066024512715908
0.0659214314809122
0.0671477586595194
0.0684746699349448
0.0654664450989384
0.0698012325522556
0.066018955354178
0.0727609251623852
0.0647548405713577
0.0693938856266253
0.0659827328085391
0.0694329735063672
0.0662969910671229
0.0683135868829574
0.0662007831141326
0.0690962322544142
0.0659222168803944
0.0710937813607154
0.0664887691736648
0.070461194740966
0.0689959144291485
0.0690209977926401
0.0683771290342965
0.0696851833247626
0.064992945952185
0.070675306863333
0.0677069818295487
0.0697388471554846
0.0694973164330831
0.0707408667094265
0.069196920969752
0.0708156499343467
0.0694497691229634
0.0695654830945669
0.0708340303344913
0.0710979473858354
0.0714920815226035
0.072180606723154
0.0705128009506318
0.0720640089021674
0.0695140732252559
0.0713142073350987
0.071471166044276
0.0722657039433668
0.0703748522358476
0.0722402044481993
0.0722505920257385
0.0739852937865369
0.0712439802667897
0.0706903293493401
0.0668576746460498
0.0724899870399268
0.0694668112792929
0.0722222004998288
0.0684450972540768
0.071690629972443
0.0706204314178389
0.0729796060778857
0.0686110251370857
0.0699696342360401
0.0673694207354918
0.0703259401279853
0.0686307536279594
0.0695855185003085
0.0695148877644351
0.0717505256127244
0.0678721275521134
0.0709747933888848
0.0674159127278402
0.0707144571973222
0.0687524965989835
0.0685826923812179
0.0679656207729673
0.0666758918772791
0.0637516176948499
0.0687786412747802
0.0678725997275833
0.0678859219008885
0.0659219094869272
0.0701743559886362
0.0675621168436156
0.066291605218055
0.063983475177014
0.0674160963311271
0.0658076966036193
0.0702464913557947
0.0670274118518991
0.0663916938821406
0.0672702991529476
0.0689609585847122
0.0651645301600975
0.0664595933745626
0.0643973815669171
0.0654186835340263
0.0653180307219472
0.0684288217646443
0.0672188255968223
0.0678965295464251
0.0661916358445926
0.0662302215921069
0.0660128620433712
0.0687538894985269
0.06672302333694
0.0669441279371665
0.0627935213669436
0.0669944762948828
0.0648844022209622
0.0664212672397221
0.0654579365896816
0.0652638379162602
0.0651347057691197
0.0674881122428903
0.064096926985989
0.0664165492671261
0.0646548525660772
0.0659045183492896
0.0660647720439806
0.0662041675787547
0.0646924882536363
0.0649379684348991
0.0637918663804104
0.0664522628988831
0.0661384534396879
0.0646607016469773
0.0626182620098122
0.0656494270343929
0.0644366483206699
0.0665541055265036
0.064415532539889
0.065488221908709
0.0657805660785447
0.066226012825078
0.0636339360761723
0.062876436312495
0.0638092380926867
0.064456160888343
0.0633776272203354
0.0667233936822511
0.0625438162657458
0.0664343492871941
0.0668175143566861
0.0636060519348863
0.063217214350333
0.0649980902862895
0.063034250898382
0.0626602580730016
0.0625148872004097
0.0648100350081563
0.0626135472640341
0.0641726857562461
0.0647301749961292
0.0633828780072713
0.0602291492350748
0.0607566728418816
0.0612289007339786
0.06481930776119
0.0631323421750505
0.0619765401812926
0.0654756813900907
0.063230430329253
0.0637381991324724
0.0648773360840652
0.0618591263537232
0.0648569103961368
0.0614997081408101
0.0645254803522145
0.0618189532105512
0.0643347139487317
0.0632581893053683
0.0625049321189414
0.0614899902971972
0.0635114884907654
0.0639976603469972
0.0635223507322672
0.0620751105651118
0.0624534530136749
0.0586484512693696
0.0605907218147737
0.0611047706985093
0.059903425281957
0.0617099989836315
0.0641299152965706
0.0583516711574648
0.0626587229433228
0.0601767041670926
0.0593024996891578
0.0577800700520706
0.060190751643894
0.0625432654513408
0.0639995003082093
0.0574821673605516
0.0621124964405818
0.0586624547238284
0.0593725030507097
0.0570140669138541
0.0577956276721073
0.0575851488603921
0.0593664496829661
0.0569454781303176
0.0553454547430702
0.0554261242747264
0.0577820153811933
0.057777797260104
0.0590708835934189
0.0575030119317316
0.05910775614116
0.0558776118992616
0.0557669400977695
0.0553948430640883
0.0566425044249708
0.0542247235458634
0.0583859397742031
0.0549620003974775
0.0560431372931641
0.0573156217705148
0.0544309059251299
0.0547145164703486
0.0597165838343859
0.0625506368883931
0.0553384740679839
0.05529234091779
0.0587595207186363
0.058857528633649
0.0581133680173019
0.0522474976806879
0.0526997950946322
0.0551510664851908
0.0555938046076713
0.0557734192765416
0.0544843389879704
0.0538635150239535
0.0566225535528406
0.055938394998829
0.0557770085548173
0.0526936601805291
0.0549718632072419
0.0546789836118051
0.0511237795058993
0.0521352647499057
0.0533627041393887
0.0511715506808375
0.0544514958978365
0.0560030417924131
0.0529391259329887
0.0575348525431855
0.0571552714105403
0.0548564252182777
0.0523361177658635
0.0533941672271626
0.0518712628375605
0.0501508357533595
0.0532254658004556
0.0510208099917839
0.0549112948769667
0.0537017073713707
0.0524793581023622
0.0507615754816701
0.0546631040691839
0.052792610234907
0.0506252491522182
0.052618539624651
0.050450740296406
0.0498760754821686
0.051792893470525
0.0510636812946068
0.0527440685563829
0.0519792145826151
0.0526021077248179
0.0526837579883365
0.0515430593277958
0.051949123279278
0.0672943403671148
0.0538809027997959
0.0519093788311989
0.0476504943153176
0.0506389098734881
0.0500527944698218
0.050999527521552
0.0497710144636086
0.0501311435305395
0.0502859339766971
0.0527387020838922
0.0483457347988038
0.0520352164950662
0.0514888205281828
0.0536871292429755
0.0500471638086837
0.0513128736482223
0.0476033044943585
0.0518161884258074
0.0486526922218858
0.0525417228007224
0.0619692416815025
0.0550212014884489
0.0492303802774029
0.0541895888962582
0.0441835856484709
0.0627749540422468
0.0569961632131008
0.0510263150457516
0.0502779370230631
0.04838781978415
0.0499988733596051
0.0496612166212383
0.0490209255017748
0.0500516498311402
0.0545543726669209
0.0508327260712111
0.0566341761615939
0.0503408573421145
0.0497025850553252
0.0493460676605075
0.0480041093615625
0.0492893165175864
0.0500280728241999
0.0512411447482923
0.0495430043345652
0.0488298641769545
0.0486196937206111
0.0524015687038794
0.0478183773064151
0.0526641472917345
0.0553934764781671
0.0495235498007985
0.0522699924986422
0.0498707648497229
0.0467701205585357
0.0529075136944045
0.063022320415543
0.0493650287555236
0.0510416498190805
0.0504293435580977
0.049448910839194
0.0509903310065589
0.0510411263475804
0.0480557717200184
0.0482722038407683
0.0490750044336249
0.0494703752392403
0.051205240086347
0.0503501162097777
0.0502312518246305
0.049997353537513
0.0475922621320617
0.0495405153844036
0.0523772068372979
0.0472372052977022
0.0521047563720079
0.0477771262970121
0.0540575459003477
0.0650711920744503
0.0600714016830189
0.0586141086505867
0.0532779095534381
0.0522378933389006
0.0476041180505349
0.0503498154742187
0.0512424452087055
0.0527871060975172
0.0506841738172658
0.0498117852973914
0.0496347070696784
0.0516216113944569
0.0488120259512474
0.0504053696006348
0.0484387007207171
0.0514177222150464
0.0484586542011195
0.0475137851214225
0.0461290732039565
0.0504599702355471
0.0496918405480067
0.0560551821396256
0.0537819123743072
0.0527209721028031
0.047539737541853
0.0645719025888162
0.070807327727196
0.0515716909792561
0.0556690596989841
0.0496402541816713
0.0513898989814539
0.0496461718384758
0.0515885643969032
0.0552608659791489
0.0527886629093196
0.0486306343257084
0.0503483705155619
0.0527031512360792
0.0524528129888144
0.0477402275697114
0.0587898452563499
0.0714538434630863
0.0595445351248503
0.0571468495408733
0.0522786270660599
0.0566510790363161
0.0707005200779617
0.0527547960174082
0.0551108044852033
0.0571850233702186
0.0518265321738852
0.0518784944924209
0.05249050493156
0.051379461410876
0.054999049860261
0.0547295100984166
0.0519211591488337
0.052703498023195
0.0537576552632745
0.0566820609725767
0.0553662623979998
0.0586152840675289
0.0620498982000698
0.0532495257355713
0.0552811320403013
0.0553699130192017
0.0498915269050919
0.0543718918238511
0.0546116809744374
0.0503012637874699
0.058293899581008
0.0678257745983855
0.0564991604055755
0.0654408996948865
0.066800033390177
0.0542882309032047
0.0578792229437957
0.059331269700504
0.0602324215919787
0.0512156949029342
0.0596274443465624
0.0826621000668917
0.0732040920454849
0.0735454452443983
0.0579325996282132
0.0582172155841784
0.0573330555334691
0.0563024212085274
0.058010116174373
0.0716918827010641
0.0621616294565054
0.0594966556867738
0.0552398856792261
0.0612070184803496
0.0701537909245912
0.0607250002791676
0.0627676795599194
0.0589302399170982
0.0618593570440929
0.0732431455461325
0.0648239266338504
0.0564865323878162
0.077002466694474
0.0852029391454416
0.0817812888062334
0.0667691534798549
0.0613547433138583
0.0813057202413582
0.0700583274785559
0.0617851039746546
0.0618568103575938
0.0641677391131659
0.0613552863313275
0.0669604823411182
0.0881718312403258
0.0700116935807874
0.0648529742029338
0.0688301240000441
0.0644852065725366
0.0779609354305146
0.0756451088568102
0.0674355359397908
0.0702060665321466
0.0693258201668433
0.0660642492997213
0.102791844300718
0.0910895904981337
0.0818960277784024
0.0952043735981166
0.086308142910459
0.0849479339534483
0.0794036136409736
0.0774942630734616
0.0878034144750675
0.09233949093484
0.0818241111456406
0.0729312097420243
0.0896363844976684
0.0970786050062007
0.0830529582465954
0.0862002525520747
0.0810428699405096
0.073297195114072
0.10544350841562
0.126581035089819
0.109419868635082
0.0910521778959632
0.0913470816179857
0.105518819251518
0.0958215818858562
0.0884731903203991
0.0922140800625058
0.0926483334677398
0.0936939715006203
0.0932828165592064
0.100364202069333
0.0963143426346666
0.0963658605469328
0.0956090072407734
0.0983378042045552
0.109046195108385
0.132150724808367
0.132833948900532
0.106943094801245
0.122615173848083
0.128977118961011
0.115042049905593
0.108476074092566
0.106917087700879
0.115668122131831
0.115078295325204
0.116324939671704
0.11328999785393
0.126372985936149
0.131893478756037
0.13553240746453
0.137655200999558
0.129391281533444
0.12796016963312
0.135274542186944
0.213147573824698
0.166774927525658
0.148059587643139
0.145805551335795
0.152792563393385
0.201230146515562
0.175254181680564
0.167065146594315
0.174042009798275
0.169109599977622
0.180280108289983
0.186186675415521
0.192301162703494
0.203685441715257
0.201879494060189
0.198077876384773
0.211702957888558
0.267207444388538
0.270209855757902
0.244837235150671
0.235513464057363
0.251904988977943
0.254421502039163
0.249660423591572
0.262212081359651
0.256757537700852
0.281245080473821
0.320543573034297
0.292814756150421
0.285187058241724
0.297097812770659
0.318365305744183
0.304664095064732
0.345840957510915
0.343627330848597
0.333584119381649
0.333956376527675
0.339440618824253
0.345471856932838
0.347368366131808
0.367198052999592
0.380886179682983
0.369470067727737
0.379120038818155
0.381963883665593
0.383026604446796
0.392191612991394
0.398734703618139
0.395014655971092
0.425138343461571
0.454351615359902
0.507986529747238
0.426721128517852
0.41676853743917
0.406265444360754
0.418877696298693
0.429505981246342
0.433501185300527
0.450902767668559
0.432522639023826
0.412445812824775
0.419140248358661
0.419007197743164
0.41208895906037
0.414369002776525
0.421437245841557
0.407487998039228
0.432572741013725
0.411876536170004
0.443800949022797
0.457752538817781
0.431936911335389
0.4124097621797
0.416434800022622
0.405889130646705
0.414969613202438
0.403201700016285
0.415664120150683
0.40932048166631
0.403131581612514
0.395074229297321
0.39122939706414
0.413073822609305
0.409825927846098
0.38336948070323
0.385786945855599
0.372992753717084
0.373837721271731
0.357553091774871
0.386519924550645
0.403799427695496
0.380923639249796
0.363279293708018
0.360916694513049
0.358459836139521
0.358658347053737
0.355021516315892
0.359847908895778
0.351908917334091
0.353292835954209
0.351559373530821
0.347969672354349
0.344518595442589
0.343492107750301
0.34442493369786
0.34547264062041
0.344016070908856
0.344616075619831
0.34228216495932
0.343350450176167
0.34202306626268
0.344872016214397
0.340093042110666
0.3457324905301
0.345611570826421
0.339106377253207
0.34611234401494
0.344015648521164
0.342592029558327
0.346954254920459
0.344925435881999
0.342902689310255
0.339474434194757
0.337613758801769
0.342447955573327
0.340301671867786
0.340098344539566
0.337235665062166
0.334957974123066
0.336699520789534
0.340833307272175
0.335827519832708
0.321243446414655
0.384984041228168
0.346004829320995
0.333205163175833
0.325576263698317
0.336670332436704
0.321933944554173
0.317367009052231
0.349054637856415
0.337124001490241
0.319503225478767
0.320127000849078
0.310617291669287
0.329960787067202
0.317741308935499
0.312373081522533
0.306082286085484
0.293277670655283
0.333374153641956
0.337462948863518
0.383393450809496
0.360163168304266
0.322276562297739
0.292559869365789
0.317637230075362
0.320102688824785
0.301490048045058
0.296925560002683
0.293984906084808
0.322497855671935
0.304567510074371
0.299150728714671
0.288388135225039
0.290003708325639
0.321231714694625
0.322153444987547
0.294982613415976
0.307269854828437
0.309274086199611
0.301701844893773
0.317419357202874
0.343286866072275
0.292891070125526
0.273518796445978
0.274644270003213
0.267794445306237
0.275374546681199
0.308217957225213
0.277826604222812
0.277580883464067
0.259742216799226
0.259205659970104
0.2549721125791
0.278130759986713
0.251964659324309
0.264023944998102
0.273480759232879
0.245434190227592
0.260934681342409
0.258356155460908
0.281931574418249
0.279804816123847
0.249249516227606
0.226510436991071
0.273537796664624
0.267061629094333
0.251105125808806
0.250798870182767
0.222487194005658
0.234011888704946
0.237614621434674
0.22275720219882
0.241348468722859
0.238363696187596
0.239862822710018
0.260143334592808
0.267294617391611
0.26324465474272
0.224380663148219
0.207372853789523
0.208350838775575
0.210708667774321
0.211230695435106
0.205611045456846
0.248829889533423
0.213565282572185
0.207567338289193
0.236847300375057
0.221741144573948
0.210497204863923
0.212818036030215
0.213038223155785
0.211230458899984
0.231589871780177
0.258369666759004
0.229167172441578
0.242504261704589
0.247423730870338
0.238497723193669
0.230301375522685
0.240707442572606
0.236431189610282
0.241217562202932
0.260799258270932
0.250108822789931
0.255248495207636
0.261425614277961
0.2565401422574
0.296208405259048
0.286497154427215
0.278258956920938
0.315166772960825
0.298874868982914
0.345683758766005
0.312788222475862
0.314734942166642
0.312627636296025
0.321712170775336
0.325010021012128
0.322223849666584
0.34300880323228
0.367684307890712
0.341499534613787
0.352558892147015
0.3477217553404
0.360948923922654
0.354895095523546
0.400578770481981
0.365221595972521
0.445883018204036
0.390424537570304
0.409066812266792
0.382356885931464
0.379887611014544
0.390855023098145
0.390603198984151
0.388001316198295
0.384766111159157
0.396355963873948
0.412764879756584
0.391314410579021
0.404895557945685
0.39262868722367
0.403310839014059
0.402515671214948
0.408320994179494
0.410762970624957
0.414823313625847
0.414573261775687
0.416909442114932
0.418691695265568
0.480714626007403
0.426247448501881
0.440192376755035
0.43172823556587
0.454114919298562
0.433783870363608
0.451538578947684
0.470401098980253
0.461656538728574
0.457947692801964
0.462390459486201
0.454798114161515
0.461259957902668
0.463907512890205
0.495252918624613
0.462391368509103
0.489757392658339
0.457011455795221
0.534581719296586
0.503675655675359
0.508137737566999
0.502276829186398
0.496562840418802
0.494666359956116
0.49751238167037
0.494245068086403
0.499799066480298
0.498104809813334
0.500582902206664
0.503951988719568
0.498297547677035
0.501788492553046
0.496272477906918
0.504916794804229
0.525141927279709
0.503760353614248
0.50666376914215
0.492068071724675
0.494670710721436
0.49070485828327
0.529376606515304
0.503610948308595
0.508147035305955
0.500497998950656
0.514551683806682
0.520377604290059
0.510576283949834
0.496538493436346
0.508634970993242
0.491060738582475
0.504253778562237
0.488726224067991
0.510672322323381
0.531571403155983
0.517173249176656
0.506212415387347
0.50858755182516
0.513163872153762
0.509345850587799
0.51274862941081
0.512337029155508
0.514035034378081
0.528537238927397
0.522756667249252
0.519066076257792
0.51323870840961
0.528773317784423
0.538765556654177
0.536336677282919
0.514724845388987
0.521114200776274
0.509136536405208
0.514845902925572
0.505255194471405
0.509172947261491
0.497853909806934
0.507238552250532
0.489237261793618
0.503544774689461
0.504305766932876
0.483832263196237
0.49696494891836
0.475786065657138
0.474123247362909
0.472660452566196
0.464784297092791
0.4564781717245
0.463631470870203
0.463496996033789
0.45295882625501
0.450701272351734
0.445401071650107
0.456585220473911
0.45251175224047
0.448420345342941
0.447878003938735
0.444065524908145
0.439253907557134
0.446296381205805
0.440274396116875
0.442556605610961
0.442076980893138
0.438981243427127
0.448399915765152
0.449745585899929
0.46061549540668
0.444465829957883
0.44793650864347
0.440040748583102
0.431833457682289
0.433950323850739
0.435750778566652
0.44230590831095
0.429169675906343
0.43606149355271
0.436084149495988
0.441077642320813
0.441642276785036
0.439099588874954
0.436447690728403
0.435695466256305
0.431284057880498
0.434411341471792
0.42891067916338
0.438376198023689
0.426505962953366
0.440031617689644
0.433816811879693
0.440663399715297
0.432961136719039
0.435860556633102
0.436242364842542
0.442290222747773
0.442818079862491
0.437295902903952
0.433054787562268
0.435997098652653
0.4345328848108
0.44120664896736
0.431190479672424
0.433330639925066
0.42978925832397
0.431167824785471
0.419957808429351
0.429075521717167
0.421289296708662
0.421215774859626
0.416079977001386
0.415221232550235
0.4114269476526
0.410131445638287
0.402553388233122
0.397491230711985
0.393493655297066
0.393490885751361
0.385800329616894
0.390626856191994
0.382668127159615
0.383639312703919
0.381293046442714
0.383457144369855
0.376941289612271
0.379709194417132
0.374061545239543
0.37477301506235
0.371171686154518
0.375376540016387
0.372732313852084
0.375150004534568
0.371070300248026
0.373158014619056
0.376672590529956
0.378209380484778
0.37575499821974
0.37658137931925
0.375180048254434
0.379704677849061
0.381273060764697
0.380617229199377
0.381627563813032
0.388087337098551
0.387530350793479
0.388914408171685
0.393012739368843
0.394726641484796
0.393161691162931
0.390697942296876
0.394336588808513
0.400391016439016
0.401884542352351
0.39944849903971
0.399871288167518
0.39439137078608
0.397612508251816
0.399060559274833
0.396507459434183
0.397216207587145
0.398847507794204
0.395440476964773
0.39558861230995
0.395630493053351
0.388670796017958
0.392200562816005
0.389415092722985
0.389809880501687
0.390097770902134
0.387925010265184
0.384993312511695
0.388220490492401
0.382221329827849
0.384716886386584
0.383279474812853
0.381977339251941
0.379367334253626
0.379118774952499
0.376489765204477
0.381095045729387
0.376055019961687
0.377373967470872
0.371262572232742
0.374763392648509
0.370288307197169
0.369788790423902
0.363881087696824
0.367941015999081
0.366600912514722
0.364274085773941
0.365915661741137
0.363583666898161
0.362497028926757
0.359842629931348
0.357099862714159
0.35749773446675
0.355340476548196
0.350953712431714
0.347796380940912
0.351229427281499
0.343889520696409
0.342409433077145
0.338284515837013
0.337030757415361
0.337300030998499
0.33581080120388
0.329384411564459
0.3300493087772
0.325471934863379
0.32475280014249
0.322974130995044
0.321406538914951
0.320572857465335
0.320665245888487
0.319448631859348
0.318325289465761
0.318147562714041
0.320190694531907
0.314578264889809
0.314988447183271
0.308809094911308
0.309398923576566
0.309110723623903
0.306637207724997
0.301152868389577
0.299529145422657
0.296954115018351
0.292030009696051
0.287293378640341
0.284921084489141
0.283058762945814
0.282301981893546
0.279058079221128
0.282119136942023
0.283825684586605
0.289802892911012
0.290770427228872
0.300420232438542
0.306393476822977
0.314816568460131
0.323141852950615
0.335771122078049
0.346849551966488
0.360690047308322
0.37735919607908
0.393224650701775
0.403821658708319
0.418972249083521
0.433791675683878
0.450148653281923
0.460562687593706
0.471265356764688
0.490250125885447
0.506263212404472
0.514746427440059
0.530881850128467
0.542040488972928
0.557712390001541
0.561529209421743
0.574397313093343
0.587832528792698
0.60058551017188
0.606815039521306
0.612478838567786
0.62307514156048
0.63533515824667
0.637103929988351
0.64705069963686
0.648524780850449
0.658312033148202
0.654323329893501
0.660619977470045
0.662171633989345
0.663416953274359
0.662013546713423
0.657668554139044
0.663720305081861
0.662705069685356
0.666110198095059
0.670041659394168
0.668607577663782
0.677225752529221
0.675958093084623
0.678359088898622
0.683337539624846
0.682772343238263
0.693918105009707
0.696160783983464
0.695298401505176
0.708811436056887
0.712297679186103
0.716790030766704
0.717282179470291
0.724444574358079
0.734412081387565
0.746498159864284
0.762462892421895
0.773864656664392
0.775427845808637
0.788915182096499
0.798931994199283
0.816489398987845
0.81259773775311
0.824005946559756
0.842067188295524
0.850116071517408
0.853099023270336
0.8481714123067
0.849677646776754
0.856698983033669
0.847916794679691
0.850070020896123
0.854565299137912
0.854389965128535
0.848014267950868
0.845257756446995
0.831699573555669
0.842151813640631
0.843220216327646
0.855624320668218
0.862742902100066
0.871451979182735
0.889473915308274
0.887700519318803
0.902473475657085
0.902276674411175
0.926081279929198
0.935026922012118
0.965810272809964
0.961545312881514
0.990732736494357
1.00467397868789
1.01668267919118
1.0384583274344
1.04045736744526
1.0582968432889
1.06707634089887
1.10089852944938
1.10637416241003
1.12592175111296
1.12129662648647
1.16004361045254
1.18438236520571
1.20448846558772
1.21333407300079
1.2470340344163
1.26067343075913
1.30280747101441
1.32770364391473
1.316765674203
1.36353375549927
1.35841320665492
1.35147423067715
1.385448847533
1.3696550788463
1.45505971665584
1.42596195299067
1.44568878770598
1.44483941582135
1.46855373178861
1.4613669974546
1.44883124207893
1.46668759769455
1.45558653180537
1.43897531837216
1.45108483108617
1.41233373253907
1.44013463571295
1.45878232051175
1.43795468588537
1.41551867238949
1.44235279739867
1.44149369080193
1.45892254186117
1.42143117348644
1.45644300374303
1.48732841976592
1.48323266610672
1.48915097903389
1.53708307120845
1.53474472855334
1.52928281219562
1.62892752777819
1.62856617350044
1.56570200978516
1.62720631055266
1.64909891843054
1.56901262212815
1.61646893850568
1.55546888458222
1.67189230594282
1.63428842189708
1.6508252915782
1.67728257042958
1.70525265041393
1.67418252567292
1.62308691826778
1.64445726748662
1.7238082264006
1.61989291932661
1.65162705027419
1.74566040385582
1.71666797566367
1.62186234142096
1.72774621702804
1.6173377146841
1.74892122270429
1.84963530678934
1.72121424699764
1.57150696263073
1.71567755155384
1.74405201347701
1.59947421463545
1.65263609962587
1.62416238802475
1.5633083504127
1.54866865205122
1.53388883622418
1.50734852129508
1.50824357356332
1.45028402635187
1.37655817169873
1.35641112143426
1.2586055807691
1.23103173094918
1.20590229583273
1.1600552101589
1.14251735508698
1.10857303384396
1.08164012253373
1.04330639900796
1.0370760057353
1.03118352872655
1.0341318415591
1.01659806364015
1.01419986907985
1.00511256601821
0.996479821717665
0.992250599322048
0.963894420107446
0.948433730564448
0.941029638040619
0.922593745679739
0.934492556444758
0.899212650583519
0.883921909881212
0.878133194888673
0.858389992041428
0.831468868309807
0.814885964649541
0.77960761866947
0.758872541649751
0.745457140951755
0.717576419755382
0.684017002210597
0.655256310280015
0.624891096617111
0.598502282205054
0.57839965778692
0.546872312658081
0.520944785457594
0.499879769064215
0.478599095842708
0.457169007138831
0.434817008474301
0.419174160957788
0.407856129616118
0.391204345663312
0.372963419594973
0.363491996518972
0.354950599408644
0.342238930747172
0.340935893776699
0.333641019204304
0.326891985596135
0.321564517068233
0.313808696693804
0.316712478409954
0.312360254986859
0.31137700807013
0.311814045455827
0.311701712200305
0.307948983253396
0.312871812829758
0.310577640092274
0.308050676926588
0.319454132602825
0.3146441915538
0.322582841858034
0.315117377977656
0.319804350686329
0.316806511815986
0.316437337264128
0.310692012334981
0.312587594175386
0.309968081340141
0.303347740855166
0.30499059629475
0.294221475619309
0.296655325724606
0.295351969730331
0.293484136299698
0.288281792945189
0.290073334581202
0.297911565408323
0.290996611798229
0.292887586971639
0.293637426395902
0.302067949095183
0.300633690085564
0.303928488899562
0.305409528989303
0.307803201483102
0.306986443805098
0.310950563540544
0.313150480899647
0.321903957302618
0.318911710164093
0.319895897643025
0.31991038999823
0.327381181451057
0.323191695973432
0.330550006773613
0.331998270815019
0.335254764414521
0.329362697359972
0.332545931070132
0.335545225266747
0.332356125715017
0.333507204526736
0.340112076433123
0.343159659606004
0.348574851230445
0.347791758522112
0.353416125193434
0.361009615331572
0.362873564237845
0.370781358409131
0.385216606190522
0.391579574380144
0.399290020746028
0.412313210988915
0.424725602138152
0.439811882352836
0.439691403799173
0.442532639880601
0.450352060969267
0.449803265620336
0.454336910821306
0.442304951404495
0.448499708329488
0.428240060517723
0.42488437056947
0.419608705833959
0.418498762462961
0.397565294174362
0.397651492689067
0.389009235032397
0.399243123587903
0.392657231367309
0.398697697103535
0.395845482382058
0.387451809488537
0.393787412458829
0.401517485500653
0.394786852538726
0.392595034170233
0.386239045129953
0.389837319373901
0.384016436460615
0.374843065056912
0.375213916703312
0.373436772891355
0.368052566768012
0.36653702363968
0.360219067100252
0.357477257645825
0.35103286816952
0.356547149058207
0.347113686735434
0.35034746877304
0.340656856090399
0.343457678675049
0.340439670392947
0.342783439106654
0.338946968520168
0.330242901384162
0.335443238662979
0.338775611381193
0.322106409870796
0.324357200796143
0.326814927856531
0.325778379505326
0.315742470042238
0.320416232060152
0.313226589306585
0.318973136008961
0.319339250285584
0.322881420556084
0.302723065999917
0.310217325535588
0.302039219008342
0.308126537028309
0.302583479543666
0.296474007424486
0.301359280298878
0.299960769613699
0.285561290334969
0.293857319142431
0.288743710652098
0.296612791173562
0.288245147361317
0.2966322078119
0.282571723239426
0.285477861564914
0.280402213109586
0.292947001493181
0.285957286262779
0.295890528353885
0.290505856137692
0.29678452102696
0.297175442122827
0.29077315168434
0.280292508054717
0.305029783632657
0.30120126441576
0.298505563895974
0.282582749549341
0.297569353270359
0.300953546371772
0.31107758029479
0.3117183572936
0.312163903532297
0.30995465803692
0.305933578709838
0.316056104325355
0.309641876008141
0.317933457582754
0.32881855270117
0.314280893690687
0.333241562083119
0.323499880268163
0.338339320195609
0.342144412030254
0.340606337332735
0.354485391768243
0.371704667053984
0.372325854179887
0.393491848318643
0.390846630692078
0.418402229029064
0.410422380879707
0.426682537139218
0.43677272566326
0.45589418151419
0.452675398468479
0.471128540484587
0.481818899481254
0.534705258777757
0.535375792104395
0.531592168259701
0.510443322509362
0.546095010187846
0.530626498054726
0.546568781095523
0.515839321407887
0.548906018070719
0.533076987348014
0.511838099323006
0.522236327121797
0.533050986601072
0.510538205382128
0.525597645035239
0.519727712056393
0.519480622701495
0.511708749591213
0.519591588076583
0.511351956632825
0.507614123940323
0.493035366258647
0.516565077035932
0.488998315428596
0.496513104715585
0.502998487949329
0.512629468588969
0.490443181288042
0.506285475424414
0.461489541078502
0.478940148428342
0.457078184787618
0.44093154402227
0.45321288350008
0.477496948831803
0.469135063740782
0.491099495630595
0.466114101172643
0.458474792965463
0.443261116451646
0.464523734636777
0.415260513409626
0.433503686402944
0.437698228733583
0.462381344898142
0.450177790062164
0.435789934311586
0.463191875189035
0.469480679249613
0.46929341638061
0.490580994335922
0.47162193976343
0.485254020741701
0.455156577298942
0.47916979333585
0.463090108672997
0.478739748713686
0.462603403754555
0.460981548579553
0.452662804552111
0.510579580685089
0.476949242128897
0.479745902101583
0.464710779562837
0.456603942983276
0.465523504528575
0.563550108551767
0.533969317144128
0.535462874019446
0.492066871666746
0.509050015743188
0.485746790838767
0.511452023312389
0.533186998399373
0.534335405433009
0.502530990742112
0.609928168687225
0.527595058785311
0.537545837443333
0.619984572079733
0.637254545987578
0.551975315665852
0.548226742841814
0.54198722854404
0.646741331414978
0.640812397403866
0.720246197562239
0.647638735050039
0.607633960101739
0.605103384885411
0.714518353108422
0.622098600336064
0.656951169796239
0.638477713546171
0.611326702047719
0.68201783045528
0.632096213501296
0.638663998854503
0.735788346027155
0.729370054879572
0.68545024740881
0.634079019777813
0.773219760494892
0.662305331678978
0.722484938818138
0.62091045069851
0.618009649939813
0.518632348062638
0.551141875676221
0.646834170703243
0.605396632354424
0.606155139431581
0.651446451563237
0.595781439535243
0.701695985910071
0.556370978684766
0.626523839103895
0.634094166779846
0.700189194538469
0.604669185106846
0.690927038279629
0.48958184678943
0.547831894461986
0.732038804288442
0.670429332952314
0.798239468906794
0.511967042807078
0.428428295083542
0.612558992240013
0.556063738020784
5
1.296322249789
0.90198039915336
0.56771614974396
0.727741122086455
0.886585284572435
0.562850293462399
0.419289730201978
0.866449732468346
0.644692100630903
0.489011298576552
0.477232951736706
0.825466210110422
0.768347134748652
0.814998109767201
0.900075967439182
0.817934475228587
1.30599872359176
5
0.685394371531291
