3596
4000.36533379555
650.420452594757
1
2
2
0.0915011797656446
0.0911833992199432
0.087258844912903
0.0827886017275441
0.0930980498810336
0.0831957092033316
0.0902359435094702
0.0915015259249525
0.0880585518690259
0.0831079201152116
0.0880431691751318
0.0924329657406879
0.0890279186322526
0.0796954652119111
0.0893555923199119
0.0807758531774753
0.0925784115103703
0.0866348741639871
0.0968267479565296
0.0800680067152363
0.0902254217714698
0.0842350739950436
0.087431918774415
0.0775903091790265
0.0900746580948999
0.0957834246018949
0.0933839793728193
0.0832714176384808
0.102807584607795
0.0947261004334272
0.0932595115781661
0.0840150356483887
0.0912669097174484
0.0843861628371823
0.0872160023277794
0.0927426676945954
0.0897509829699424
0.0862272772103073
0.0863251561455999
0.0861831513910745
0.0955994061864276
0.0867902775592421
0.0862520433914415
0.0830370404812718
0.0926293782688733
0.0870839767520891
0.0933419104419043
0.0857168653987671
0.089135805295924
0.090562795204055
0.0947186446414613
0.0790336837890675
0.0976600535604036
0.094082999305785
0.0909032466189254
0.0966641640638119
0.0852209608970519
0.0826253569829311
0.0940494427856172
0.0920071508089074
0.0973495385083645
0.0916227477054586
0.0907303851549455
0.0840460456793427
0.0830877022974352
0.0796821197239718
0.0936377499473658
0.0771048090864555
0.0857073726816117
0.0815832838920048
0.0889333193938531
0.0973710707073979
0.0956916580245726
0.0846476652456535
0.0960399776921547
0.0833797190831165
0.0939097381756414
0.0787424844911794
0.0786144885926566
0.0959151055945747
0.106876811051774
0.0818230627005149
0.0921206669572541
0.0702206856223414
0.0955087524347357
0.0953312888159216
0.0817207314408197
0.0785384443157579
0.0970336859882276
0.0867634692325498
0.0917440007846765
0.0829978398956728
0.0878111603819299
0.0781001143679074
0.0822784260659982
0.0691892838575619
0.0790699053728686
0.0808753112806678
0.0792840364621815
0.0837309089828689
0.0896247028433934
0.0917244639722183
0.107131287187221
0.0754618163419537
0.122543574809066
0.0887601757529881
0.0734224805169756
0.121021644292371
0.0931637420832849
0.0785044365341435
0.0871586714522884
0.0818395190463679
0.0904548539083276
0.0907543901806781
0.0769162229687375
0.0912020625148209
0.103413109277276
0.0745364982132721
0.0851871110534367
0.0697773911812809
0.0742985032844332
0.094988381600625
0.122768570836476
0.0815959713027342
0.0907033171722072
0.0821817886906924
0.0788119563541701
0.108696620323799
0.103999105392889
0.0793654988091545
0.0813192974395261
0.0716940270321079
0.0730099320789633
0.0720943953166537
0.101571614043482
0.0818900064396639
0.0763063607880492
0.0581684646441578
0.0926014889945779
0.118197837691433
0.10281908045999
0.0747266282149803
0.0634903692865531
0.07364573697825
0.10511138098108
0.0786143303865328
0.083600250820432
0.0931709406043322
0.0970919821347216
0.0792995714979799
0.0719518414477923
0.0716377333648051
0.0964363159159116
0.0810877278550957
0.0523564412110857
0.119660546516084
0.1354298698733
0.0935089709039733
0.115212649263224
0.0816947618470314
0.0793968164028456
0.0797660123917792
0.0804152352178237
0.0751011946928065
0.0805773688745491
0.0724584746294022
0.0837179134285724
0.0975063682264364
0.0780466912072245
0.0826671306890756
0.0964819385352217
0.0827604296069762
0.0767935283718088
0.110925051117238
0.0948640245362543
0.065847355322941
0.10424741551245
0.087017461430837
0.0672128480787231
0.0842861014619838
0.104747074299132
0.0771523001489562
0.0798957566637308
0.0754523938764118
0.0722590476514026
0.0851436622226063
0.0857409326752199
0.07250439785661
0.0663528261039507
0.0588034697386292
0.0833589363032884
0.124268237485747
0.0922768383571183
0.0797620298202855
0.0741829562153362
0.0515342701178669
0.0957802720116057
0.106896377776163
0.0757492248495403
0.0676378909178024
0.0778146092581363
0.0743635329514757
0.0734064030299715
0.0682070737303331
0.0626715364137311
0.0614261280568121
0.114976567378543
0.102384838506119
0.0709608859071847
0.0838935360649266
0.0693421051091948
0.07647916262813
0.106199620045394
0.109153285369075
0.0850085970859314
0.0742552350640411
0.0656597912240277
0.0826720573829553
0.0901921845332616
0.0779490330274505
0.076463748091704
0.0704520287319083
0.0778458178229328
0.0779755734581724
0.0750803747421488
0.0807183103357725
0.0728612087942229
0.0716623765357653
0.0761435219085465
0.0741658163067744
0.0873580258834764
0.0798782893553503
0.0719852428557132
0.0699101101554241
0.0696835625784575
0.0830395772802221
0.100930345450846
0.0794595313656243
0.077434742956429
0.0617398539456767
0.071478988304783
0.0726477685369786
0.0703507783729455
0.0787567756006846
0.0759999415368128
0.0808425311790232
0.0966979019557863
0.0908682129425857
0.0718720017576324
0.0745832449694467
0.0961642314341275
0.0903239156624793
0.0788118119008632
0.0749257142191505
0.0761794205209859
0.0645537306682828
0.0672553033459534
0.106408029120812
0.0830838515182792
0.0700456565271837
0.0917734440676506
0.0923237370383575
0.0811259714819852
0.0676243093822918
0.082392705382406
0.132428146455776
0.0831223916952361
0.0794426356764923
0.128788109266547
0.0887397369342456
0.08393146258818
0.0802857250638575
0.0555794360475016
0.183034054539934
0.132434529577526
0.0735943709970529
0.0819511342634124
0.0943305255904373
0.0845406617003002
0.0781172791333315
0.0759055954919794
0.0977545703772293
0.0879207801911589
0.119215931307812
0.11477009302551
0.0805978981116103
0.0936107143534891
0.1113089757874
0.0927979465764214
0.0840399109946074
0.07570666217705
0.0737965368778825
0.0932042148692621
0.0931887081023818
0.0961683341090092
0.0883534784888153
0.0807361229908967
0.103032563098971
0.0977668458189694
0.0752767796907887
0.0920957419730355
0.0873867036849943
0.0811069473730657
0.0770221414724068
0.0902948110350609
0.0908474566894512
0.0774430054420668
0.0843954841118205
0.134109274065444
0.0895068079273236
0.0879871818308796
0.107678630557518
0.0960153307573162
0.0774746431734613
0.0843156931656739
0.0839209418447321
0.0857974210793177
0.0800432714463178
0.0819237408473417
0.111170775082018
0.0939385537272011
0.0871993554107673
0.0879692820133721
0.0849613587223799
0.0877898654851219
0.0931055150859163
0.08636915950294
0.093934608191411
0.0849772661866389
0.0882082779265089
0.114591508383509
0.115786165746877
0.0798472013517654
0.133657330575501
0.12699225504555
0.0955386724571203
0.0908939592771028
0.10061283140866
0.0943255471332028
0.0900968271982369
0.103405969094099
0.101494375933259
0.103508023692673
0.115464507403217
0.112709230329606
0.110600299482971
0.0979039555554426
0.145662562764951
0.158445494273542
0.13155937429769
0.104078844990131
0.0915293346718653
0.145159371980197
0.137648751235926
0.142186919670012
0.130870615429901
0.116866809175792
0.113915376352519
0.11254737929471
0.116141952246715
0.119179625752403
0.119876515436234
0.117844421277376
0.124278726370011
0.131258582464982
0.12807869646098
0.115722568989665
0.140691555217399
0.162439362172869
0.14046869197233
0.129055844418459
0.133380725484139
0.134829615638684
0.163510847341189
0.165860571446956
0.200165204642964
0.161433408433747
0.189113242790825
0.175716060975702
0.163008979118841
0.149938795600134
0.147789057700365
0.161181095472382
0.163160638443107
0.159894869844123
0.16668771162936
0.161600348624139
0.169692507533972
0.172594320877352
0.17820606899947
0.162095300570421
0.182912552011424
0.185256578242013
0.190141281051075
0.177952773587983
0.182097726182933
0.198306567089814
0.241346069443113
0.225250654094759
0.191224503458874
0.201413582674275
0.200446678534385
0.202511857396543
0.207202118438598
0.206261543615002
0.212083915169494
0.226243704168259
0.2427127952606
0.234270004972158
0.240391319026485
0.225592753837789
0.23375810871245
0.244232246776623
0.237530957959995
0.247515154715859
0.265927766713462
0.250526870887228
0.233268875512353
0.278384216325551
0.270794666824121
0.265723255838202
0.274848155198065
0.246496895145844
0.258532178217216
0.256814119326342
0.27197112478254
0.255819496115526
0.28567284702992
0.28225291662694
0.284075693167402
0.292429752197817
0.291225663530483
0.288920094161459
0.328097075685088
0.292996327511015
0.295104179202767
0.309204599425383
0.304596200165413
0.307930722685461
0.315052521284411
0.350631147618155
0.331321106266406
0.325631159949084
0.341163682628842
0.321115430287592
0.344996325418755
0.326509630222088
0.332096664047481
0.33123060559841
0.343993367369079
0.349363867876591
0.343325335483669
0.353898386227785
0.385937329629214
0.369219777888794
0.363126351825775
0.381591825146943
0.381041583144489
0.358226631225135
0.395134333939252
0.387284083192936
0.396405010828777
0.40557582350482
0.442963470578841
0.450671406255108
0.443370925671914
0.410417875097168
0.437449331727154
0.42156772683906
0.432734375563198
0.429779268332881
0.440263849049032
0.441628360656177
0.456980336399897
0.440645462580352
0.458827269926337
0.468424583894458
0.462605322273875
0.468531938897832
0.484898207101275
0.493635416875815
0.471748476549099
0.487104053254415
0.503324089016352
0.490399870336032
0.521418187935669
0.489127447693413
0.528339620493503
0.473639411841313
0.517073804637877
0.488861130201191
0.525139499603274
0.533504099080441
0.553151910365738
0.542106668628903
0.547023740700383
0.531112712289775
0.608639509323603
0.562757673683271
0.570868210444916
0.586200830550006
0.579823568518052
0.590337963641609
0.586615498487067
0.599728560878645
0.628466402325323
0.563189134989021
0.592054220695526
0.601701574681503
0.598959126238218
0.606547507368304
0.667950886480477
0.598080312716317
0.639721482227038
0.584872923964767
0.667868907362594
0.632271577716517
0.627608799534475
0.654649548582781
0.636011935252327
0.638884470113816
0.678549559126996
0.657799913952623
0.73896260231476
0.646186785454137
0.738284581606549
0.645982668573375
0.752696864894907
0.670386879770346
0.74138750816535
0.714882655205618
0.707639852854699
0.71331816162367
0.795913443005574
0.728888281186876
0.78562260773242
0.724397294268619
0.77151056648227
0.700265246142176
0.798817338790779
0.777146510652785
0.839437451135801
0.795978753033749
0.813258586277609
0.739245533217898
0.832444517630631
0.762623390928094
0.810313319042897
0.746730037584318
0.809986869239682
0.812157018585785
0.839056812877831
0.800624384562825
0.860656548995395
0.837989892813556
0.919012515865346
0.788550709326838
0.844660431211159
0.914062913347202
0.909704842938716
0.909231866271082
0.913278796330552
0.836577847588127
0.919790992195325
0.865433446624377
0.895892662754647
0.872011460453257
0.950668381533042
0.848935400780836
0.94903317368388
0.875929858163507
0.897699267839551
0.930906955992282
1.02314562682789
0.899807614905189
1.01312322440704
0.972099937074169
0.972380242656883
0.912370895820671
1.00936296784072
0.957646343227764
1.06446105320197
0.91482580506963
1.02694332864261
0.993457066134526
1.05625486103675
0.935284957806096
1.04046283301803
1.03387508461966
1.04334295276286
1.00103161763097
1.08101961014067
1.09782766800538
1.07980151438026
1.01805181856658
1.09520334343077
1.01373245804904
1.14352967605245
1.01493546399632
1.12167746795858
1.01723215973798
1.03034710050385
1.02167396764888
1.16034274455198
1.03570180982443
1.08207613113804
1.0276132224407
1.282330083528
1.19373399486413
1.09357475872881
1.08550351050662
1.19141874246845
1.06951535739015
1.20601281447477
1.14935295128571
1.19349566849715
1.11870882133762
1.22562806648995
1.03974319534555
1.2004975790792
1.20366737230692
1.18691987098891
1.11359785563278
1.16543279800028
1.17825333703067
1.23911282072477
1.13468151529233
1.29230516391164
1.24924568835635
1.17036881573127
1.22765719165925
1.30808331458673
1.08830488917893
1.20932575096499
1.21844368955201
1.22663261284815
1.18494190940343
1.26108416133127
1.17670992155564
1.20887107969091
1.1933578649975
1.21129311664958
1.15036865749069
1.38948179776215
1.16855195209457
1.207043563785
1.30114232765493
1.33708324250943
1.18955264374714
1.370562236429
1.24071451708201
1.28525548347519
1.27830665242439
1.40918823879365
1.17393619002297
1.44081502255175
1.24030343056177
1.46418403333197
1.35544420806504
1.40261767325582
1.2529272412917
1.3882345247379
1.28528227396245
1.29979522946173
1.20091646344272
1.28339742731393
1.28607793708323
1.505413881108
1.23207879916063
1.42988172414607
1.36397091044937
1.46260927113988
1.30363724454185
1.38054819383198
1.31429978363144
1.3496343546958
1.32614817007069
1.4227850988816
1.2308461043856
1.50176798407843
1.481301282687
1.40657591181513
1.22533482560027
1.57780790415837
1.38796788355279
1.34800193764304
1.24279899395504
1.52336803589969
1.48358286616286
1.53173367994128
1.28389753760717
1.60968498012442
1.287104384346
1.65825416755352
1.31001049334562
1.57444112561902
1.36771767073282
1.38632426069112
1.44604393652101
1.50250040089832
1.2911297103559
1.4773014996584
1.44322261771673
1.59305309220552
1.36800884384318
1.52992233030439
1.28908728155521
1.48161180872542
1.4045796970168
1.60066450637612
1.33476260034655
1.55091390712428
1.59992083966453
1.59008255741037
1.34405760804827
1.46346420938396
1.2506314611435
1.46348632784796
1.4006141205406
1.4751892682692
1.40934325219365
1.41313016554981
1.3435594540603
1.42106925070927
1.49695224380375
1.69041172955339
1.3854294129815
1.60776598988358
1.46344644357615
1.70929652561672
1.67630609357805
1.53975850584539
1.36677005461098
1.52563326536036
1.62758033447854
1.52236522992772
1.39300076079384
1.57575120905401
1.35645630122518
1.47613067421297
1.39094582770517
1.40976475299235
1.46029351370565
1.42544673133343
1.30204850499681
1.6320472762725
1.36433999624313
1.73334717557273
1.50828993993049
1.61746301553181
1.3991642147778
1.59732513494297
1.31220866296093
1.44303696097015
1.44456749596475
1.48166873636733
1.37232287889081
1.47291894989313
1.46229859605824
1.59662043769619
1.41934704283877
1.68773965655578
1.30919060985632
1.49107083799487
1.47880309161564
1.45697390086536
1.41035824465837
1.53306344465121
1.4081923884045
1.46568303895937
1.48832633018985
1.38244262414197
1.36525035631733
1.29722714514796
1.44591971851637
1.55640386691299
1.33085295610439
1.47404315907098
1.38726967286489
1.48764281299499
1.41202551113138
1.44283795922717
1.43029384208447
1.42838716671892
1.44161221613937
1.5570699021944
1.50603780655965
1.62015011566397
1.33095171218226
1.52552862938711
1.33812490750036
1.46066003178057
1.37479632324248
1.36572332579001
1.43011043090199
1.46140218752
1.34167687615736
1.48126412488874
1.39456904058355
1.41556236375515
1.34817282661766
1.46926762555725
1.41873218023368
1.53783483162064
1.32634410299636
1.47937879928874
1.30303960002314
1.48303295486505
1.48323224058363
1.39066113785215
1.33792408106825
1.47372025511603
1.4152862434443
1.40390448277298
1.42105110210916
1.53965456749458
1.43182931065952
1.40918242458683
1.32496287154926
1.38447305016614
1.28298923402346
1.35142567624759
1.40823877822088
1.35464913281367
1.32390069103851
1.35255194268062
1.29072395054652
1.36489310381126
1.31074258888124
1.3530994848411
1.37272104633865
1.30910001582815
1.27423643858209
1.34694396488155
1.32142391198603
1.41636767462299
1.30510451300287
1.34530966672207
1.25601316386537
1.3646185490587
1.29426631458444
1.40771088117451
1.21507205217888
1.28610727669991
1.249334092172
1.33539412157149
1.31382131381594
1.31715912642717
1.2729934834636
1.31418352048443
1.28505437493225
1.31961323648476
1.29462881514493
1.29515557617087
1.25319255315603
1.23402261442856
1.22448605996629
1.21963314875027
1.23086941445742
1.27615484060522
1.21497579075502
1.25102813694477
1.20594669831562
1.38028872648831
1.18706833240637
1.20773197988406
1.22019491820017
1.28478561029221
1.20712448625883
1.2678463660988
1.16923234185352
1.24568869240654
1.15801384553955
1.22817572605908
1.18458885027891
1.12304888289963
1.12279029682886
1.17623657691947
1.11520069806561
1.14044985723863
1.16319972973822
1.19468433928954
1.10011873958588
1.15899557647381
1.16312819570799
1.17391957555378
1.11477299031102
1.17886458116539
1.12534954324389
1.15954988381398
1.1090175450486
1.11200441428063
1.06252175380989
1.06702841246888
1.0753284880282
1.07573832445405
1.05575978817852
1.09684780658838
1.09422682634207
1.07213308624747
1.06003449759981
1.0550304943793
1.04519341103366
1.02280930497604
1.02210370344711
1.04708459719589
1.00403434262457
1.04468036327606
1.02179439838297
1.03088891800593
1.00320347047994
1.03370960283524
1.00385407318889
0.984934829731949
0.989979755149853
1.01921436808991
1.01867052761866
0.980218035351008
0.952975308180428
1.00736050748663
0.968426857579855
0.97840144559337
0.937819848733553
0.940420478581781
0.947963491898974
0.936142857902757
0.923802502330825
0.962832692934163
0.930666319586919
0.951527472969148
0.932113162518351
0.928075904900064
0.916764737211359
0.943932113889089
0.913201889097655
0.898612631803828
0.87893142262737
0.895298086322705
0.881407505017221
0.880265897052838
0.8766069851217
0.907941526043264
0.87820925858527
0.874854263906742
0.844538528656268
0.878120743436061
0.838694759202069
0.850917499064204
0.83534946026778
0.827353983205079
0.849216789898972
0.843859789692996
0.836558685987195
0.837093927926715
0.81520459820226
0.833397873089143
0.837611568254959
0.808190131476919
0.789288290671973
0.809883797266926
0.795051716004516
0.788195270270828
0.794777991025675
0.785114224435754
0.818327192661085
0.791765819586385
0.777713409174847
0.780893564967169
0.7777178454189
0.774125899987043
0.762046894016524
0.758408334841029
0.750952234305048
0.748688360201355
0.733174087008431
0.732127668476441
0.727926390351968
0.739426149508719
0.742815101523352
0.744453561178682
0.724742730589978
0.71089659269656
0.714012991386725
0.711465898224871
0.713493871535064
0.718565588410754
0.703973209252939
0.701106308460514
0.705181069167111
0.702084740739372
0.699507407937778
0.688517604097141
0.684490963772395
0.687153149686874
0.694309510778416
0.68873672724373
0.686761108396271
0.671974042165479
0.659883668402377
0.658671566074256
0.648161521348377
0.654172597736635
0.66073826445519
0.660476262724795
0.66515690861088
0.658526597614363
0.64360601930716
0.63093353875157
0.646417711772591
0.637359069526251
0.628534948011189
0.624804925540724
0.619953491516401
0.624364730539855
0.628111744133658
0.622947130755165
0.615891771599247
0.614503245481467
0.597199516808702
0.597585921893815
0.608184792559224
0.598715263355914
0.595189812357699
0.588509624200137
0.589233553939825
0.588809764904861
0.589320251086066
0.579566225679265
0.569682610299252
0.577820668682359
0.582569439541908
0.573720305511257
0.57130063896283
0.568780628436177
0.554835161496452
0.557481371988613
0.551075962853843
0.554601793258591
0.567714040813486
0.551798208807144
0.553866529855696
0.541530211216917
0.539377491264712
0.540706734989264
0.540659806944582
0.536314584181773
0.522640880144077
0.532686400816427
0.540781095062703
0.531996240937373
0.523909082762949
0.525784449469183
0.525191309599619
0.514374313266402
0.522985497456853
0.511353043395746
0.511305288285821
0.519930834596976
0.499925265530612
0.495863728875666
0.51050609725244
0.506385584215746
0.513653031555906
0.500920963531611
0.491512306919667
0.495222580635082
0.500412016095953
0.496357709565184
0.49900754021989
0.489633070029186
0.491511224599998
0.489104850955964
0.491204648555522
0.491167132197474
0.47965345640633
0.481604323624781
0.486670305913327
0.488916394061866
0.488025280032393
0.47439194196931
0.477276073912917
0.48591766866319
0.483149624227555
0.478907882901749
0.4850164195145
0.491221796162287
0.497322744689076
0.475145058308574
0.485182618514352
0.495895837131431
0.480757823987232
0.482897917034238
0.495980297922018
0.502912018772802
0.498002284186228
0.493688411068283
0.50262162642366
0.491586687618833
0.498699388030914
0.503887394779607
0.499056466108407
0.49680150563601
0.504991347257151
0.506363024816181
0.519383725199147
0.516077081440943
0.523912311936178
0.521134676419086
0.523557963265755
0.517703567072776
0.520454058909091
0.527783266739837
0.528464144261614
0.522040776183013
0.540975696692636
0.533136306266395
0.536895746438231
0.541034769453619
0.538098358021253
0.539725739157397
0.542712511483812
0.546207011993935
0.548541097885765
0.543380408293267
0.566079404278983
0.56247944448569
0.564058403929032
0.559245565576888
0.561545851912033
0.578530211475916
0.584660429087972
0.581028394688406
0.586136539317713
0.596130910752933
0.589699319332657
0.598500704453787
0.61712179682523
0.603041043775237
0.614181308220393
0.605428574800916
0.617692965794239
0.639531393118437
0.649687673355347
0.636574683666376
0.631961315872578
0.621130016305104
0.632330951662671
0.634141259985506
0.642358627540835
0.646507916106661
0.627337198198469
0.637278703319286
0.65130448700748
0.637144789535971
0.63906973829978
0.640250728321682
0.644109053006897
0.629702560775179
0.629755947521968
0.634465133964856
0.633464969607272
0.642919068292927
0.64314827294207
0.623574451285817
0.623674087853216
0.625163096461049
0.632252396919692
0.634285828318897
0.637532898702524
0.636774725716034
0.650071220633077
0.634804868492227
0.645493403434652
0.629126592030627
0.637056252302491
0.643455666084925
0.618689992789029
0.631446305349347
0.648413558144284
0.63265607600778
0.634245931188326
0.639659727935379
0.646759733153877
0.641932924721196
0.643067033309432
0.646143208252505
0.643538727079027
0.628939287754853
0.638964799717653
0.639261266219901
0.641834602821039
0.622263745062605
0.629272780549693
0.645363650742654
0.650871211231278
0.632394611713256
0.623134486767884
0.630964859858486
0.645257764666128
0.627670638464278
0.634842644375036
0.635662648557607
0.631060090796293
0.633805481774035
0.634404849271108
0.619938433442484
0.636342508731299
0.630952764564743
0.620557266629309
0.618314188140357
0.609168924025286
0.602260106127312
0.613207736566717
0.607707248444124
0.605251000548158
0.598109206742994
0.602288875292471
0.588287899310497
0.595551902653688
0.583847327956794
0.591249054191422
0.586711159541469
0.579815307340056
0.574572233206678
0.566313998539383
0.557776365107506
0.561406291346997
0.554479330893749
0.560820411538045
0.547193808791248
0.540487703497471
0.528852928706495
0.53822337766475
0.523237849422261
0.533809992604054
0.528054391555485
0.532554434292726
0.523354949961216
0.520323935897667
0.50386801063393
0.508966178572059
0.494795022440335
0.492761019807635
0.48986410904626
0.499265225162797
0.497557586285479
0.488131768358743
0.484158289055099
0.495937653098166
0.479618499857972
0.478832894333639
0.478372605916291
0.475484596491613
0.472263147953257
0.47787531985796
0.466533574868062
0.473433363073354
0.467896955561383
0.461310689941049
0.454940622526525
0.455957973718808
0.444503155296643
0.452874481092387
0.451294739386322
0.457852601335943
0.453185931690057
0.445982060346969
0.442337025864553
0.449220158204194
0.447790183429372
0.450731956886702
0.435013647386747
0.43459118848819
0.436559455983827
0.442121743225582
0.430840384122896
0.433235602446752
0.422261441202041
0.422589654635914
0.427510320477038
0.427631045302168
0.420886551653639
0.429090289730079
0.421438086983335
0.419906907778616
0.411309507610647
0.421390621092849
0.417782074341452
0.413123478153523
0.407637909067858
0.4120794016507
0.415733620028046
0.410270783774603
0.403318815780894
0.411477967287176
0.398050756951307
0.405514394073713
0.39403019370538
0.404660565044762
0.396685323333072
0.392907193994038
0.393112859225093
0.394225946303726
0.393557292034463
0.400297054742738
0.389397658612565
0.399444606577343
0.392021433121481
0.393763493262736
0.386293000081281
0.387676044500681
0.388667131208681
0.393395200153847
0.383968201329963
0.386050368441999
0.381139460402192
0.385724655596058
0.378784534241482
0.386713532444371
0.37103973504115
0.377785399031708
0.380305284061179
0.385887469790844
0.378064206390087
0.378654412854481
0.374548596727422
0.384239660977912
0.370032874091809
0.372500629110298
0.365962079853401
0.373697732995259
0.37239074324361
0.370414047411658
0.367250039929619
0.372116665753867
0.357131040540455
0.368113397955457
0.36432979567813
0.369143680106676
0.362127472154387
0.371531712691184
0.365768159739884
0.356568562633615
0.354189844149647
0.361001381500158
0.357559426797247
0.361800007936013
0.360113977239859
0.362154462501071
0.363479798335357
0.365201678442716
0.351423745394692
0.361092245987498
0.359889568403326
0.366464391092562
0.357950696264764
0.358770943389153
0.352384616891572
0.351911749590111
0.3541982974087
0.358084441882554
0.346031817448862
0.355068869954115
0.353225503402048
0.358527852239499
0.358808463629415
0.354656434447674
0.348162447294639
0.350172429680583
0.345878555941108
0.355293198883246
0.345651808241605
0.354972955071481
0.343813634107416
0.350592710980463
0.345204343794278
0.350731025922402
0.337494890258086
0.348880639269001
0.34689746482071
0.351490559147881
0.336991631074205
0.344850015227971
0.338723405960183
0.34343543432808
0.341835251001205
0.343871284264413
0.341256178635033
0.346091140593014
0.337964422044358
0.345569552544661
0.331803086568291
0.338977114053669
0.332640217656214
0.337549755165813
0.327892969545749
0.330549912223981
0.334423164781751
0.334080454717496
0.32820312521771
0.33916880345833
0.327293643056208
0.336576460047713
0.328566229269507
0.32914803924123
0.325979342843344
0.334189087969435
0.322797294215735
0.33181366487189
0.324768867551387
0.330529396690754
0.326823132614432
0.329021335035743
0.317117941090455
0.326391259313709
0.319226223392169
0.321194477315571
0.315266400493715
0.317375169659209
0.313843212527146
0.317925892702284
0.313880027878082
0.321044252327713
0.317889411468748
0.314181626099418
0.311590177082083
0.321756548445483
0.307353656071258
0.317363566098894
0.308717890984914
0.310105736920355
0.310719584717385
0.313913099409071
0.308970501628906
0.308192151953859
0.300592835163389
0.303215655982635
0.310327244449195
0.306879828880984
0.300882076271624
0.30378706188636
0.298773903905672
0.296838037674162
0.30136572001709
0.300738156723519
0.295955795499905
0.30148046842654
0.292712182971854
0.29645048807068
0.291093401436317
0.292513408353393
0.286958896874552
0.292505830298826
0.284430803399577
0.296241504514611
0.288481585045569
0.284522197643738
0.285371883192397
0.286558934895299
0.282083500695707
0.288514635475299
0.279333523388672
0.283184297254762
0.27985829612769
0.286574778801592
0.278056425753866
0.283681040819614
0.273192256853967
0.274511990235368
0.269286414903984
0.273731494883678
0.275090342300301
0.276888526247545
0.265485774988597
0.2752200852887
0.271488994025197
0.27393873967719
0.263448192869637
0.27310875725014
0.266459923271821
0.269377691934725
0.268307386715036
0.271721049268546
0.266581218320788
0.273023714522345
0.263523586347629
0.269545369603821
0.264163535046537
0.262081353147469
0.262794792859708
0.265544813097503
0.254931946742173
0.258760293663642
0.253130461405425
0.2627633217735
0.252702038518443
0.260829548061817
0.26102225528005
0.26451507311829
0.254242086948838
0.260113013249707
0.248041589584183
0.253980305613697
0.250343315726693
0.259936700409609
0.255533421497263
0.251820780470732
0.249913492747338
0.254798274346023
0.246461254585437
0.252292800003728
0.244325220354439
0.253408695384552
0.248367254560006
0.251030417912347
0.243309147821734
0.244034025308183
0.237674566397537
0.246799944581945
0.241426422637197
0.2443665276047
0.243900854834959
0.246934968621199
0.238043238263065
0.24219136390271
0.240412852896122
0.242779808740278
0.235251203112966
0.240756351698334
0.240229685659253
0.239863780831663
0.236731671713745
0.240228051208514
0.237990321260415
0.241890115020707
0.235770148457633
0.241099384548863
0.236997997088077
0.238134491817862
0.234056191521712
0.236970582914686
0.234474574691755
0.237010621365954
0.232495089439198
0.233099656804673
0.237314361063914
0.236283369305071
0.232052614980503
0.234148090174116
0.22603998726909
0.240206616927479
0.23274147618164
0.232873278201689
0.228424607868942
0.233842144505703
0.228199413964211
0.234990325767117
0.22998955548295
0.234078335985124
0.228458449357692
0.231356146883903
0.227624093349606
0.225952668701243
0.225716928241678
0.229695220649817
0.226517888704324
0.232150867005004
0.223831334202848
0.222747849083372
0.219938142175499
0.228693673285918
0.220423293530688
0.224455363307967
0.222868435595697
0.226461862225259
0.222127550821422
0.225367477632739
0.220457169637202
0.226659043130747
0.219795708279118
0.222986810760255
0.217070625275977
0.221815779408434
0.216436053872779
0.220918319046473
0.216688038445622
0.218206462552532
0.220057797498588
0.218396620761218
0.2116367672788
0.217068627507396
0.216416991280891
0.220302978528606
0.214850392233366
0.218708517059229
0.213140132791648
0.216868212506063
0.215846376787399
0.217038241565491
0.212335815248304
0.212724812898909
0.212544290883466
0.213928703095076
0.215095652642676
0.217328611541405
0.212098350280041
0.214912036900969
0.211085400568972
0.213976332182724
0.207290669200233
0.210113632189759
0.205620260836265
0.21197101982933
0.208773667028794
0.211495392448862
0.208254923402764
0.207985019001739
0.206567464830529
0.212597194096656
0.20818785571045
0.211405514968258
0.204164685192785
0.209002690552804
0.202408713778145
0.205909751231742
0.205239286141793
0.204234646940908
0.200391931916357
0.202986657093199
0.202605543156955
0.203361074418145
0.198534283373497
0.201808632657334
0.196648016388363
0.201467223786049
0.196883327731351
0.19959792212983
0.195792426664672
0.199121357048142
0.197359962210864
0.197882866909704
0.195252699669101
0.198838053536105
0.189664421109781
0.196714668198419
0.188936495685716
0.192329918284178
0.189720730183171
0.191414797413945
0.190986346723949
0.192708728747278
0.18756370103198
0.191966660901847
0.18785798934011
0.194807494203666
0.184839332013516
0.192067934494831
0.185478753702294
0.187910241819941
0.183719798150169
0.192632909561779
0.184962033964561
0.185951167347384
0.180666242068857
0.186921555978531
0.183039480421005
0.185576728601478
0.182083852415879
0.185980912054487
0.180125897461653
0.182962340807723
0.178198110700348
0.182522393711294
0.176235780855774
0.182211932815297
0.17808886070244
0.180725830270453
0.175033847180942
0.182385181718275
0.173488409594201
0.177414808099286
0.173819404839269
0.178955209659065
0.171812717273632
0.17426090381544
0.172499522651844
0.176502126395301
0.172480799676348
0.173225119543547
0.168843432411922
0.173698256596672
0.173124114383751
0.175427249628343
0.169464802047733
0.172803587539226
0.167366635193791
0.168824793480925
0.164291425656726
0.166832209586529
0.165363736199259
0.166569938010991
0.161599045181475
0.166105723217433
0.160118118391368
0.164549330269367
0.161894806990593
0.168077579103176
0.162856872823372
0.162542254800366
0.158361089025613
0.160449488468788
0.1584955644801
0.161119091922324
0.15914633160345
0.16251567276929
0.157160486607801
0.161493649351789
0.158285062128518
0.15734637800112
0.157402068338121
0.161098842041955
0.157470105284224
0.160749877416392
0.154977436679624
0.160510028340447
0.155301966782351
0.160168718247276
0.153567485154416
0.15821536400078
0.153585910529203
0.154334753833866
0.155932722754647
0.157095878178572
0.154219396551957
0.157112389141461
0.15355705435011
0.157286276346856
0.153024563005182
0.157989971568184
0.157259363465055
0.155508371957201
0.151150176877645
0.158806641114464
0.155085901123799
0.157323539209194
0.152868168490119
0.15677880638992
0.151538098113666
0.155470068606116
0.147428680977086
0.157568419610172
0.149245286268241
0.156342068034119
0.146251292109846
0.146922491227459
0.142875054745113
0.15879174462124
0.140890951593841
0.151813071867149
0.148511096555326
0.149197448162699
0.146336178677866
0.156468057043815
0.147414588755753
0.147381864701905
0.144182033011182
0.149054229387723
0.147754727052974
0.147254572257613
0.145404646078692
0.149298078179283
0.144270785604884
0.145835179933044
0.147451611416366
0.149084108651578
0.144462026074834
0.142699648967825
0.149201166180882
0.13895587388163
0.145180895218651
0.142471760904263
0.144846722611658
0.138481141937068
0.14877409914194
0.135300069132112
0.153242828578396
0.134900413533156
0.148253058444694
0.129208647117931
0.160248779301492
0.131514665931708
0.167190339525173
0.127868136667818
0.159963298218783
0.123566184472716
0.165505080247971
0.120047691132802
0.167668468757006
0.118582146893567
0.175855121278955
0.120337470434181
0.168802299654212
0.122315504096805
0.168107184196445
0.129392736620232
0.154907511961067
0.132174174657417
0.146973258420334
0.13900993554732
0.133294954951194
0.151832397591864
0.131411469007621
0.150629118072011
0.12723313713579
0.145421829033349
0.12906829937634
0.143375109192059
0.132565752464956
0.139127252318454
0.135114902822936
0.131934637781129
0.138717504784216
0.13592758264192
0.133653700109029
0.133338177598823
0.133227073267543
0.137345388612015
0.131241314492213
0.135626222626377
0.129061022089934
0.136953588481791
0.132846648609445
0.134340653234395
0.128770669069364
0.132215222298419
0.131919120950268
0.134893807110408
0.130631860395267
0.134679804648888
0.131744304153988
0.132759019273116
0.129394053493724
0.132585743731007
0.129969759655492
0.133484337215288
0.128835493444235
0.136039693749889
0.128136371249016
0.133054074859692
0.131201645769527
0.131856782624191
0.128483425721333
0.13439327493486
0.130717135121981
0.13287478500558
0.132232806726014
0.134640844736352
0.130131693495294
0.133863575508164
0.13046491797042
0.132315564552727
0.130659815811295
0.131534288673133
0.130155372939631
0.133486943250234
0.132798367284893
0.131911041043658
0.128600897630559
0.133596658935015
0.12814621481145
0.131598132992353
0.128179565831827
0.132286273675006
0.128408000841837
0.132578275327849
0.127465339612818
0.132110880598087
0.127316045064839
0.132490354660302
0.129548799309851
0.132690745902889
0.128781461411247
0.133725530289921
0.125501470439187
0.132726142013572
0.128811833076788
0.132219823517436
0.128719851750751
0.130049554770964
0.12852490818027
0.132593109100393
0.130852823318076
0.131416535131089
0.128734130783331
0.130564620361869
0.128050816602507
0.130943897506588
0.131266502428309
0.131856106143899
0.12735624111743
0.1318155929655
0.128841530694418
0.130260941903765
0.128848431374012
0.129765304923585
0.129583996207093
0.133851304159658
0.129862642763105
0.130656831121528
0.128017375695002
0.132146768220349
0.129540743159692
0.130287267660574
0.129580257867211
0.130154778822363
0.130335401444324
0.134610717200447
0.129892367606237
0.133670825672627
0.132634913450812
0.133572816237532
0.129725159387392
0.133879744483013
0.134991915327133
0.132353372704155
0.130166866156542
0.133985180373643
0.129315955727226
0.132800594606669
0.129328719332866
0.131799310888571
0.13177841139168
0.133762865252618
0.133316908815078
0.137658017097093
0.130116787911766
0.136224549425599
0.133191570902601
0.132874180267756
0.133178667993649
0.134694206649336
0.128945307783728
0.132006068088343
0.130142168420845
0.134886445258475
0.129991851674249
0.132324346664975
0.131191865197501
0.132629333705159
0.130168764421079
0.132799681468218
0.130780883954622
0.134013171593401
0.129535150091892
0.133116002026626
0.132635737924886
0.134573066532536
0.133248862209338
0.13759143233852
0.132334115522495
0.136978770751514
0.128724976460933
0.135054182430757
0.132434654143114
0.135547803628545
0.134519037006881
0.135630397325531
0.133536257922468
0.137431446739385
0.133375974050506
0.136363849196158
0.132863862713913
0.137730025164252
0.136199165577738
0.137060408280958
0.137464555863583
0.138117059949972
0.134581430528766
0.138575251260544
0.138277633985522
0.138487241882989
0.133984136350819
0.137545230385971
0.139102761802653
0.139289965446822
0.13489168512409
0.137260118406568
0.134654255121988
0.137677661281112
0.135892202144079
0.133756832024133
0.132569156564457
0.136447783065197
0.136799049501765
0.138731702671426
0.136107407255706
0.133209894523211
0.132774390938124
0.134625868532382
0.135212692612136
0.134565935829414
0.133158448099197
0.137171868817849
0.132466450401467
0.134420728754294
0.131146159295737
0.134276495199834
0.132050857219425
0.133875743530538
0.132472255840077
0.13134031421289
0.132041715410127
0.130627754797402
0.130281385800293
0.128340388477613
0.129770777823498
0.133640211624346
0.127306306895893
0.126958019830003
0.126224225184064
0.129878714224974
0.129858117123203
0.130079412037046
0.131871029071219
0.130214412792163
0.128561483556564
0.128917917977151
0.127532099215335
0.12913432052594
0.123403530996935
0.128388251289971
0.129526871007393
0.132329282992879
0.127680271323443
0.129198809702279
0.128875931965941
0.125978358813689
0.125768555996192
0.127601874705971
0.127516835152798
0.127500178373243
0.123045750062279
0.127159028716701
0.126126690399346
0.126147840695609
0.125284312140034
0.125399275530182
0.126492463460445
0.127994451031921
0.123984748305857
0.12717312387156
0.12488284713849
0.126413524133705
0.125501295588946
0.129470580309397
0.121645416063562
0.12454600031585
0.121590543588735
0.124096591061711
0.121057051467042
0.122450609215113
0.12199765659693
0.124106835522312
0.124412462616691
0.124796335361397
0.122080173658256
0.123550624771918
0.121638539886443
0.125963672425093
0.121562053195296
0.120764578714655
0.121239567498792
0.119841962425506
0.119109188055274
0.12156396017792
0.12026479383014
0.123400858099648
0.122554595134654
0.123185612505288
0.120870641482832
0.122277176000541
0.119207647618018
0.121493970391361
0.119297704402461
0.120490530020767
0.119499261140661
0.119493666347678
0.119495366378366
0.121729933590893
0.118197247527538
0.11885670271591
0.113488834346744
0.118890282019462
0.118169002673756
0.118570873976544
0.118636651924884
0.118618449231691
0.116977866234447
0.119340567355579
0.116518422673194
0.119017238319942
0.118528768060184
0.119006149598898
0.113336111401277
0.117442969740693
0.115713194992541
0.116008924031779
0.112862335187408
0.118867799887702
0.117257939573054
0.115986751019047
0.112801319854157
0.115080660847035
0.110178221070248
0.11187027215659
0.109170155940966
0.112278782520877
0.112697349348285
0.11171522858323
0.111110967335332
0.113117538858259
0.109723746238347
0.1095307002999
0.108410218975723
0.109541822033498
0.108828256724601
0.109909650884417
0.108017468576126
0.111877801657743
0.107392867910015
0.107593068402376
0.103874848626901
0.10524369378082
0.104434456955473
0.105540056612374
0.102498068244623
0.102924010730449
0.104002051771138
0.104408689185687
0.103288317081962
0.104019036466637
0.102337013361666
0.102635454575521
0.10257867693938
0.102106139852387
0.0997721656492905
0.101541491499033
0.0991021236404307
0.101340479573805
0.0984349507637173
0.102366206966891
0.101256895586663
0.100595628992771
0.09594492758982
0.101877755830161
0.107587889696974
0.0980430174596569
0.0964459345326321
0.101674421453835
0.100746734570316
0.0998352001817911
0.0977331823125939
0.0959160854497836
0.0965392104406537
0.09695916017715
0.0973531724303939
0.0966943521625705
0.0944862782195308
0.0951276517272186
0.0971379596144607
0.0962452756720419
0.0944544181118197
0.0961964601600247
0.0943181637595425
0.0934788192332146
0.0929585802604031
0.0940590973116881
0.0929646140123589
0.0942402079228036
0.0932379844792695
0.0922966643248801
0.099881044040824
0.0975777110307812
0.0946571583085557
0.0952988715836341
0.0902677909335933
0.0917986475180939
0.0923070599480241
0.0925765435251937
0.0912543544865596
0.0922755254068816
0.0902085317702596
0.0905267386193034
0.0874753016480257
0.0924211945187739
0.0893949185483468
0.0884035534167541
0.0905045331739328
0.0882057986715438
0.0859628005321612
0.0900004148224562
0.0869916447856505
0.0880935512999322
0.0870654593482513
0.090898024767272
0.0896735547650504
0.0872718125487468
0.0895677253170522
0.10343121756774
0.0871081465044549
0.0868822678538833
0.0837847978243033
0.0866025201133914
0.0851002894899323
0.0868079821808611
0.0861798236641279
0.0876949975888154
0.0869459352423699
0.0885246646744428
0.0846923686695723
0.0892992025271918
0.0858903818472187
0.0855017773743559
0.0826933834170328
0.0824910432032552
0.0823969050287907
0.0862295788942673
0.0830515753804238
0.0878063707838564
0.0977180178072197
0.0903440145112574
0.0824009253843943
0.0882478025913545
0.0803072825797235
0.0988943006131078
0.08918458618175
0.0840583053006261
0.0865044834292181
0.0842943918306157
0.0852826308615342
0.0820418915798069
0.0810798842625775
0.0828963376587366
0.0893113368452714
0.0834296877370678
0.0894025262346275
0.0843691881509808
0.0844839332845785
0.0825554311212198
0.0805960519559715
0.0842973303205128
0.0857424276919144
0.0819167521760586
0.081324883519733
0.0816427261885225
0.0809515238601956
0.084442442037831
0.0805957060549163
0.0846728679721603
0.0889144369620648
0.0814515225811286
0.0841554174280076
0.0838777050696141
0.0803743151438323
0.0840651215468011
0.0955495050174021
0.0841963335950507
0.0827961016485974
0.0820885545662226
0.0855856193820208
0.0850302577413046
0.08320478477728
0.0797477773897785
0.0811845778770501
0.0828794567980252
0.0829826030908596
0.083351577008649
0.0822537164609546
0.0806150820740799
0.0821523055333951
0.0791029068399106
0.0809283620371655
0.0853118544711533
0.0799081514783932
0.0825985173749119
0.0794337268709304
0.0905144695872609
0.100121822929294
0.0937290704591936
0.0907063261535715
0.0830831103437649
0.083084031003979
0.0819510127732037
0.0837690389786508
0.0839775102478325
0.0839154178752029
0.0805980091071845
0.0821864843099534
0.0832461387826047
0.0841328457902154
0.0818711098637526
0.0826069581797841
0.0795856254264007
0.0836188595849989
0.0795792940376807
0.0814917287379033
0.0772382296586329
0.0816572300658412
0.083205604048711
0.091108437478484
0.0856086101681631
0.0819785768753051
0.0774605636128058
0.099946576572418
0.102642010779606
0.0823810084822289
0.0888459086860736
0.0823178752050568
0.0840176312343126
0.0815770802117887
0.085774612968211
0.0884668992170572
0.0852369907526325
0.0810847366137534
0.0842250654854725
0.0859648272910997
0.087746817041255
0.0807046942707769
0.0926121096079003
0.107322544016258
0.0935541291162237
0.0876353848408353
0.0835530589508963
0.0909073143877319
0.104514963143575
0.0852747126243109
0.0880363337803567
0.0879208184935556
0.0856111131259709
0.085054812819003
0.0832493442825547
0.0868110588171629
0.08826483275282
0.0868650624320655
0.0882078638615178
0.0872210240842248
0.0833727357516128
0.0880475037003568
0.0896340105026213
0.0927925527806274
0.0953347202821786
0.0877332862223419
0.0917154616067505
0.0911163557985045
0.0849495173227601
0.0899083083501037
0.0904446976997863
0.0870044220787909
0.09390964337774
0.100670983540388
0.0917984753875291
0.0992571862052617
0.101808730881373
0.0907590139698795
0.0926932930116359
0.0974250316593471
0.0983824397201038
0.0884472004144943
0.0947435770726301
0.120350725609403
0.109139600522153
0.109401842894716
0.0927179642418599
0.0931573951488619
0.0927427603944452
0.0924389808009932
0.0949926941941606
0.1113555021412
0.0986805213449534
0.0960719249298126
0.0932953464697071
0.0972663286316419
0.109659107828618
0.0990981558536352
0.100012013640162
0.0978714503737703
0.099621640188523
0.108707389630103
0.10059287826863
0.0949961837374609
0.120889183177848
0.125766873372675
0.123196495519783
0.103408433164811
0.0979224011705098
0.122150389350755
0.108810570296751
0.104293094995962
0.104981259200265
0.105355406709235
0.103260147233178
0.109036578964606
0.127902911995671
0.109375663685076
0.106350278100162
0.111594309087832
0.105653115789686
0.120825263494891
0.116370232440313
0.106963017173022
0.111897906087646
0.110695127042159
0.109780792134823
0.150170569136897
0.131874682447982
0.122440705462661
0.142150403202022
0.131572697340484
0.129965114214452
0.124670941167282
0.125202268622553
0.13407272338113
0.138540592826158
0.129206706441878
0.123836007582472
0.136844269206733
0.1442654354459
0.130343271718667
0.135175236405472
0.132490876788541
0.129590537263145
0.15941869898151
0.179965855407801
0.160535488871025
0.144142740795993
0.144285420366119
0.159617549099986
0.149477179300545
0.143490283447696
0.145185313283941
0.144940205025212
0.149405745634332
0.149339971279025
0.157330811180604
0.157806731424114
0.155684388881561
0.152597075933345
0.160971579772509
0.178674086940997
0.200476218161742
0.196139021784974
0.169814060749297
0.185082829828615
0.193397820585137
0.17965145267468
0.170396279525672
0.16926584892354
0.180514722644432
0.184751283878339
0.182777668744725
0.180350797843706
0.194095209833712
0.198930603619427
0.205291640450346
0.205381829621234
0.199300842327009
0.19948489734918
0.21155514027105
0.307590741701773
0.236001655303994
0.224765050243255
0.226441763308748
0.233150877903222
0.292323516985456
0.252940159418646
0.245182772031819
0.254737810968308
0.255104576906659
0.267415554700854
0.274185858928293
0.280745159015469
0.29297939953576
0.291458334060808
0.292483786302157
0.31562168141394
0.377441394832649
0.364048665377936
0.336675419406031
0.330174787492463
0.351496180753006
0.359840268724819
0.353355312983173
0.366470697954969
0.366890095602875
0.39496822237343
0.445745993204394
0.410002179142594
0.402981145786886
0.418991284666134
0.437935715107829
0.427568572371311
0.464948264249529
0.468191080985929
0.466701752633591
0.461690654314548
0.468383541830022
0.481632165401936
0.48736670996426
0.515997018057272
0.522238092026989
0.512966138038456
0.521133068628736
0.529934668796194
0.538902731000848
0.533328713387938
0.539756889380591
0.543756210805539
0.581472498707344
0.600411928160909
0.68513250306795
0.596311760564743
0.572109061883464
0.560945074744566
0.580873251264623
0.597358837617316
0.608928996854071
0.621057977998186
0.598713094526248
0.582008810500077
0.58689607005036
0.585459702719324
0.586878253268381
0.584709766353963
0.588472926056373
0.576391158641394
0.610101411181371
0.582204854299755
0.618666237435732
0.640851666998913
0.607721265428484
0.59589570250901
0.601602654149681
0.573723244504985
0.580706263692906
0.574728737690216
0.578860062644417
0.588284760532705
0.585290427055362
0.580537416987257
0.570298199564178
0.590581355518155
0.598506204717198
0.559231350751807
0.553628852257448
0.537123219671664
0.556695634912822
0.535345131011036
0.561512216958304
0.58475376711609
0.540503045467451
0.533162505060054
0.535817896774208
0.522747223288791
0.530140786354014
0.524255219325568
0.536930661133971
0.516818379725291
0.519568388500274
0.514795228154668
0.51598576679154
0.51949149848842
0.511162964797997
0.514139877026096
0.515785630106965
0.5147263182977
0.510328075051188
0.504863625869305
0.501888565825407
0.50583045212968
0.510021663259114
0.512323273928207
0.514634937403384
0.504416014082796
0.513152796890045
0.512169300573816
0.511228373619757
0.507603090242389
0.507411872149714
0.507250970380101
0.505441866215754
0.516176456726164
0.512181862482872
0.506830435398473
0.50971032595256
0.502685434331822
0.503311621905429
0.495660443086347
0.499649304216728
0.495104156840025
0.500847677827344
0.483274365773853
0.568817274088809
0.514289468513626
0.490941120491324
0.485349095342788
0.493704420781128
0.483016327688689
0.475766082695425
0.517862484775908
0.49668553324247
0.474163273572615
0.472268278615968
0.458782944162885
0.47401479670989
0.470295376656597
0.459428276431058
0.454929081176917
0.445092344005904
0.4960194786761
0.484313573487601
0.517728958272942
0.515541367223545
0.462486103867096
0.435970218974519
0.45649652634876
0.460442305540268
0.433775246633697
0.427648813428373
0.420959538734412
0.464105294406438
0.440791549797615
0.427365496260051
0.420017881626429
0.418216959059779
0.442784788180624
0.454187181735805
0.415135250020464
0.432725543122232
0.4452970190349
0.428211125922042
0.440400684078443
0.486980604494321
0.426510301989709
0.394364206276584
0.395542633403175
0.387422076497092
0.397751958143425
0.419221277355475
0.391345701590387
0.392030092939836
0.368778599770537
0.371908438823114
0.370090972730746
0.391594944395296
0.360277013046857
0.383591759127788
0.392571438803265
0.361242990761596
0.370476329049969
0.370091004264289
0.387867735294877
0.3866603449979
0.362846525743124
0.34159128639705
0.388602902038646
0.378644668145924
0.351344069085965
0.35433152660783
0.326953611591782
0.340179355260058
0.343590227732208
0.325677655500655
0.344266255081872
0.346611865666682
0.346748120025932
0.362692100137661
0.380945858469763
0.372116711394391
0.324331577627437
0.313786753826487
0.313176479993279
0.314880446693047
0.318327373441237
0.309174393443095
0.353620370013141
0.318485849270069
0.310637140440903
0.341108583564515
0.327616086516018
0.315856249176395
0.317262224422047
0.316612077571219
0.321830278296494
0.346497504539893
0.363924959577231
0.339678649091694
0.352594473962479
0.357667745805492
0.350892523507127
0.349104804362631
0.346767323995054
0.355738149844345
0.361681020085446
0.373078267831566
0.369913491875865
0.375825293824462
0.382115649001433
0.375722331699197
0.429236925612186
0.415530095264221
0.403108922476134
0.444697284733477
0.430766194328603
0.495385819098368
0.449486977464348
0.453937728067276
0.447146255041053
0.459436921097072
0.471406623870429
0.467304380109417
0.491248373446428
0.520661188955611
0.494647891287996
0.501086245466923
0.498503326845184
0.514091747401786
0.501373885915457
0.55891485910724
0.51815101419712
0.601018367425061
0.556591491642696
0.563393050260618
0.537841315833869
0.532825185395526
0.547993078530974
0.551329717755448
0.551805067209917
0.547712223113571
0.560054462570792
0.594402984175174
0.561824642123415
0.571710972836839
0.564078455276694
0.56721227486927
0.566865613208558
0.572337586642619
0.576622820606062
0.580785936283917
0.591330479701274
0.59309502497267
0.588869882406249
0.669536752174424
0.602843371257777
0.623596182403041
0.603195674926389
0.620234305881454
0.616862612713608
0.637042601620424
0.647530504293055
0.635659253109741
0.636705731317333
0.644951654727965
0.63708387626309
0.657927161586068
0.660768776696966
0.677679534933978
0.654697545484118
0.687594997078641
0.65548646025406
0.763622296139964
0.695638259143659
0.695809246528417
0.699382338145556
0.696916728788887
0.696706298054582
0.691746171788761
0.694649117016266
0.705792632822605
0.693740431440072
0.706762626691359
0.704630893283949
0.699356411994324
0.700830611795181
0.712209230518965
0.701651584251406
0.734285547163423
0.710359776255395
0.707138191188957
0.695182474826274
0.71093142957533
0.693779713725267
0.725949323983767
0.706357174793294
0.708508036000044
0.700013155971201
0.719674552231178
0.726144016771382
0.7177464448861
0.699433363818294
0.714692053314061
0.704072093806916
0.709511829596257
0.696986185002547
0.72595711715992
0.731853394962286
0.720512148718895
0.718650358756151
0.715261771465761
0.71154321390474
0.727159123011008
0.730064187452341
0.731445813926157
0.741059695649524
0.734897854948415
0.733697221761702
0.730679125676888
0.740454870938323
0.749150263561648
0.764969621061076
0.763083217043192
0.73857381554122
0.73951581202829
0.737694091368707
0.726058071833667
0.720011676337809
0.72850035890821
0.711138840660569
0.722850059317925
0.70373064377735
0.716219336975419
0.728390726817417
0.703809920599301
0.703789629721099
0.680916240172435
0.685913253661504
0.681568535047018
0.68394681206982
0.672081696755364
0.671943768674066
0.662900819022223
0.658580005536102
0.65530816434158
0.654354582141053
0.658138279770476
0.64434048648676
0.657021808410531
0.643438403375337
0.646532467127531
0.645206601374128
0.642701648685266
0.646166875532829
0.642061548864137
0.642709656363305
0.645926732498076
0.654586135648191
0.650654423254959
0.65111858418655
0.641470920732067
0.650949612246371
0.647211738814399
0.640898219267466
0.646760406457589
0.631353102603856
0.643721270587568
0.628725542460163
0.640520078159937
0.631956365739554
0.634848612628717
0.632702032773119
0.633003437732588
0.642360849466854
0.63843518051178
0.631188064573422
0.635688907829283
0.625027888524224
0.640058446782147
0.625601004232537
0.644311463917838
0.63379264781076
0.64481505606548
0.631760304982118
0.641652292476099
0.634903123319198
0.629455482606876
0.638131994564967
0.639212786949665
0.630204835437467
0.632171791464303
0.630545003058873
0.63971211364139
0.636183434107114
0.630159630045738
0.629088554107346
0.631182469370913
0.625180969277306
0.623222483931865
0.615964520606385
0.617574815347939
0.608012867063329
0.613157756971563
0.603038035430786
0.605859037655646
0.593906945470789
0.589965395304074
0.587563848314987
0.587003790807021
0.57775105344209
0.573300273123928
0.571319441673267
0.569021134105695
0.569111130579588
0.562453079160756
0.556256892042073
0.557242905471433
0.553116844878055
0.563032458978931
0.552161926200611
0.557284496895206
0.552260525385213
0.557471305277939
0.557689596585445
0.554834862994257
0.546135390852414
0.556324671379904
0.55838633120073
0.551582360950918
0.553376526963502
0.559392381916934
0.560034654342658
0.564611024106026
0.569211638093839
0.569618582127884
0.568974350458764
0.575640775626277
0.575375969007882
0.578207525918204
0.580546257919487
0.580698234235168
0.580184099287423
0.583236769752396
0.582836118857949
0.584839014016643
0.584898616994035
0.579431381650514
0.581912379100248
0.583923542146318
0.585108345254904
0.582611431200679
0.583290845560392
0.578383789397547
0.583538922361235
0.58755600661319
0.581731951386763
0.585239574180993
0.568643052016142
0.576953178645573
0.575254424420322
0.568573506927886
0.569933170015043
0.570069329885183
0.56699710812739
0.563262422716188
0.55764976612889
0.564003885860773
0.559827675367621
0.555006234217608
0.554003658548662
0.555377010228146
0.551743038127251
0.549503265914
0.547212169513829
0.540083313470362
0.546883987402701
0.543734057882919
0.535065614404158
0.544479466549322
0.542626741573476
0.541558028594544
0.536421275854138
0.537835127125249
0.529879491244232
0.53226869316211
0.525156013546486
0.524552427808605
0.520327364105241
0.522668227572338
0.515595352134286
0.518412264453603
0.508825266215357
0.508687663022636
0.500664438575934
0.500978515037184
0.494620140325606
0.498151340864145
0.490138575375434
0.4862560442087
0.479592916908714
0.48002477734796
0.47909051966711
0.474225283492282
0.475545605387539
0.478561247172534
0.472827736998287
0.470426433295032
0.468887786988114
0.469696147421694
0.46616944287458
0.463732058948711
0.462016177148761
0.461578576550812
0.454749904332199
0.451363771948162
0.446241077798481
0.44427851087669
0.434653567488388
0.429210199990924
0.425147013488139
0.422668418631551
0.41536161612517
0.414821210234316
0.410500515620669
0.412019288711894
0.414747811064324
0.420761860995281
0.422757323312279
0.432074984048512
0.439400095582188
0.452281679008423
0.45888488735349
0.477449615070955
0.489202905572477
0.50874286762482
0.525322206755088
0.543973603347916
0.562407223078918
0.578914840822436
0.594608964802964
0.613432260905422
0.635240799555693
0.646162298220981
0.665486800456532
0.687905537327451
0.714817958102496
0.724384476514503
0.738999758805538
0.752807761481428
0.770312683850954
0.791481125386524
0.793925623976687
0.820376911044941
0.82853607508079
0.834644042417471
0.839962184567798
0.858605294407141
0.868464991295952
0.874516975324716
0.874473203522157
0.886782356304199
0.888309427386042
0.895120022527569
0.90120021130572
0.90466241300215
0.898759218597108
0.888277921340839
0.891307781220915
0.916705428701021
0.90653316978813
0.910643750790023
0.901071467509025
0.909509818636141
0.91040055719679
0.902326036653989
0.919268987181961
0.915796991051216
0.928931829905094
0.933787251461292
0.943305031135802
0.955414539230392
0.956476351133875
0.975301720825415
0.973936801223278
0.98140520434046
0.983207019870847
0.999416959119073
1.00913713515214
1.03469150519369
1.03167453507821
1.05987944953774
1.05460837024035
1.07302675547545
1.08042950198015
1.10429189086082
1.1084668898531
1.1258061298837
1.14348000026212
1.11953579133697
1.15252499282982
1.14110893180889
1.15276789487669
1.13552516604075
1.14948467071202
1.12868668201767
1.12009274817513
1.13745044278761
1.11078988632404
1.13521584468951
1.13635064286054
1.13070075773864
1.13751606137719
1.15529914665945
1.14652683790204
1.15965923173433
1.17936963823806
1.19558011282044
1.21185984939054
1.23582136064259
1.24005024791798
1.28014388789312
1.26441160222547
1.30148309141417
1.33859290869571
1.30615934705327
1.3833558934982
1.40445822470794
1.37984048068071
1.38531945410795
1.42986487015602
1.48087200918945
1.45747638806643
1.50783147201041
1.51284210382342
1.52615964394867
1.58563174803953
1.54433500357815
1.62366163292463
1.59807292838447
1.70312602710389
1.65593703588748
1.72105018303434
1.79441028539275
1.75147666362676
1.80139427026619
1.77622080274459
1.84885280812868
1.85746006364883
1.89740161755813
1.91968076429746
2.09159419604011
2.00829356811194
1.97207413106102
1.93138439226392
1.81063296976836
1.9797342062341
1.81852600105542
1.955738417827
1.93536049695403
1.81361963501294
1.82917165308947
1.86239973373051
1.89002944554217
1.93641105092806
1.80845641052596
1.8832182298778
1.82009774769392
1.99667483395113
2.00389903859879
2.01215650867212
1.98651957609938
1.95868422056225
1.97027729564823
2.06324689972866
1.87444650728375
2.03336689519168
2.08554623220318
2.00800981884286
1.99003714879979
2.19060684217133
1.93777231657539
2.12116976371651
2.10711317252503
2.44090612116545
2.15162359381545
2.7595902603094
2.20373669185051
2.20003797373098
2.13998073783844
2.60674365022558
2.09747670635764
2.49140379657344
2.59451773660287
2.22755927338453
2.65364992082407
2.42671505008375
2.38503095818142
2.2880703679764
2.12877388038673
2.12551028540814
2.21789012526413
2.32483895452414
2.27830594460548
2.55424165660927
2.19672928949199
2.32220691916514
2.02235258414735
2.60682477712444
2.39061080190565
2.57286275714217
2.03240386859755
2.10429000069925
2.05968877220821
2.06049594515142
1.8499462587555
1.82669920179038
1.844552909169
1.880248408478
1.77782540205743
1.82554788282853
1.75482230994294
1.76594719133496
1.79486525716278
1.74503806249234
1.71397909523421
1.73676091186371
1.67537138339183
1.68154460919109
1.65375140154158
1.66185711997673
1.6827385320029
1.59895093583173
1.57141555611497
1.73152104330674
1.64285336340898
1.64076990440981
1.5444874306325
1.53739316059621
1.50403000174272
1.57198463516637
1.41497075986623
1.45914732563428
1.43274613626664
1.37928592352441
1.2844435819317
1.33078107790461
1.26583432747324
1.27561630208789
1.16417854856392
1.17149621362089
1.12324794605321
1.08334701142597
1.01860550973464
0.975746080412185
0.944385635310507
0.904567219896009
0.862905016094538
0.837398831595061
0.813745408591368
0.785840431057376
0.748047167132648
0.748527186503707
0.709351417138496
0.698672646182207
0.677597093267737
0.672300926363336
0.65608311164947
0.650399082393725
0.64366631714666
0.637373109209297
0.635209023928976
0.630114828779543
0.630738465993024
0.63483152620921
0.627678911050623
0.619224217372367
0.620138884123895
0.624460710632719
0.635777911337472
0.635175105458804
0.619445271075262
0.630541715023419
0.630755734927433
0.624045575733578
0.608055476861096
0.613742943279917
0.606045152421795
0.609142773138663
0.593295423798921
0.584728907089107
0.590134395225411
0.598302152689385
0.584384925413279
0.569548146767441
0.5747323122219
0.571815612130347
0.570103121085972
0.572174632246412
0.571771940196053
0.578204333376538
0.579188726159769
0.58835102278107
0.584350499281945
0.592471262566053
0.598301326931065
0.606877678552276
0.601947590287264
0.608496025524225
0.598507281619022
0.610619816924842
0.616389784505135
0.621515887406888
0.617540634327896
0.613386184014888
0.614879848996152
0.618686626712132
0.613697027546919
0.626178623157099
0.623643828984315
0.620198791013557
0.614861377618881
0.61780214602327
0.630793098374179
0.633105806075365
0.626118036933945
0.651916875690425
0.634302457052046
0.65647605550121
0.672883128201837
0.687390862259971
0.690793627893502
0.720433989514788
0.725061791554093
0.761059034625102
0.758096202089514
0.777951767820649
0.794940980594997
0.80417896377232
0.806131224587647
0.812363545731682
0.796469493686087
0.795753024312255
0.789973408172045
0.787498935645975
0.762403353529352
0.762662629106969
0.730277876112211
0.753176228541949
0.738298500410842
0.738102759025417
0.716116782140317
0.71336500864854
0.711721627275087
0.723574213546733
0.725675860764589
0.749657811676041
0.734782398915484
0.735067590862959
0.720240620619561
0.72561909526177
0.71813587020236
0.723254369070268
0.692547160850773
0.695515148403587
0.680669949237006
0.685245071038212
0.678723605070161
0.68666203320409
0.65751533536973
0.682301162837925
0.662270240778569
0.652337494710479
0.654574753213184
0.66306272096632
0.653498297856468
0.66579492575823
0.643729557221915
0.64674366165329
0.638392417542723
0.648810988116681
0.623991030850009
0.629743939254149
0.637344204402558
0.638161781681358
0.62116052365773
0.609125938448263
0.607148464147313
0.619244261414806
0.607435046958438
0.626822354331219
0.610340726315449
0.600733035886634
0.598992759591285
0.605884282565379
0.58852339442415
0.610040449448176
0.583805096510248
0.600895556346165
0.588336480239311
0.591306906033565
0.566750025039355
0.580383321988882
0.566532926508101
0.563601947657423
0.574321210643426
0.563987984053316
0.565597187197972
0.565071916868836
0.562754348141283
0.570690272850509
0.557662272300978
0.57985889720881
0.585791184281342
0.592803278377001
0.563040221861316
0.576191087785889
0.582743018180394
0.591235606007536
0.567539467562036
0.591614968632574
0.590070174961594
0.587302830115874
0.575516779417923
0.606153254691357
0.57916865520853
0.598423486365209
0.602296473908409
0.607093460780062
0.60716258978445
0.633581471777859
0.631602715878955
0.631030975165469
0.635337353553802
0.646696261450408
0.635696184941046
0.641817410085588
0.639688167511094
0.638062285168423
0.660369715630211
0.704887207570644
0.691664719998698
0.728959038154503
0.724449768113791
0.740668978649176
0.766652193617018
0.82872036143257
0.808365190095512
0.883368861784557
0.824787527344344
0.885886668590833
0.928178452496207
0.934085101392447
0.878300349249876
0.936197696948746
0.907718863487819
0.973966517756868
0.972698365937085
0.985378213645988
0.957244530303912
0.927392447042945
0.93638306892175
0.959109670297402
0.944616325605754
1.00619593281235
0.967912469996666
0.942689675805505
0.919016203699027
0.905929461430662
0.90726149047231
0.934656584213636
0.924493270520827
0.906713649726152
0.891824937340253
1.00397530755313
0.894947101382365
0.932295585306208
0.880403115948366
0.918965330583298
0.857760989808488
0.837958400116465
0.858741227819328
0.855784632516709
0.834411700747931
0.905301847597321
0.888177769104381
0.860082390630656
0.853664089169205
0.928377921374714
0.819696832124717
0.890409652229231
0.871952132470639
0.832701798930607
0.758232304495109
0.915041608169038
0.855620295166451
0.811307298483681
0.864915158878415
0.889920770981455
0.867970384034759
0.872605264924941
0.837024683028694
0.905129232048419
0.823072985761857
0.870873525768792
0.799547507366127
0.811913936349335
0.841234888431119
0.861955586823384
0.791286744526612
0.880665486051669
0.90838561152338
0.86514942091168
0.912892597559024
0.874777345514157
0.83235422404097
0.993253716142333
0.866080410277455
0.925165133912231
0.876100659010523
0.879149837129584
0.867492581694515
0.989054724797382
0.937625473573323
0.896254927756565
0.871992090242423
0.961333866954169
0.907268899988573
0.926196771565506
0.932922160921167
1.16714283354255
1.02890001790865
0.935743816575178
0.930270380906259
1.31909069435653
1.16963394908839
1.08577031050057
1.10854841937541
1.24121511585657
1.13593076206659
1.35385190139626
1.14176042233563
1.18065607555581
1.21297474230647
1.43511442333168
1.33966194476957
1.01424471952963
0.918095597569696
1.26273112271704
1.13873635736449
1.13915156493614
1.02945731444464
1.13974027466123
0.917435059594027
1.7805639982627
1.28028295994449
1.18816229595037
0.968090146918648
1.28815385883157
1.14584746462355
1.2041991732333
1.27640361297229
1.13448325782598
1.06823472629225
1.13395169953881
1.06071819844715
1.1428628458762
1.23129716314396
1.22299346997004
1.11049249894445
1.38973815449064
0.78013341724187
0.863761919798124
0.936482036319964
0.832471406857603
0.746095869235218
1.01455870328121
1.05516459325802
1.36994475520725
1.69757310006875
5
5
1.27937599951835
0.70808211337204
1.08697329244093
1.06426937034867
1.62853586337157
5
1.75337057864717
1.14749937001691
1.45387401239213
1.08867295560901
0.990242753335748
1.14592538283528
0.88945213052732
0.563502431475259
1.14716337872343
1.42814866558427
0.943470612014148
0.805540543705942
