3596
4000.36533379555
650.420452594757
1
2
2
0.0634327538634196
0.0610668626096023
0.0556610370794554
0.0539485953611717
0.068812878985828
0.0499546994353796
0.0680561146317495
0.0667358122473025
0.0624076956451984
0.0545921490877213
0.0692149249889833
0.0566412686269597
0.0603819423485821
0.0614519561077094
0.0653784474036513
0.0509966628325202
0.0618100000745198
0.0580481225747979
0.0673590173826973
0.0606207707324973
0.0713006624956897
0.058327169882149
0.0634923570485285
0.0533033269002925
0.0675108587201328
0.0653468350807003
0.0635509854944589
0.0559785732013844
0.0738811453166309
0.0620271524312859
0.0669458446597225
0.0559388545748329
0.0677536337928099
0.0592761699384418
0.0634242616603583
0.0621835093314171
0.0624087738403403
0.0567892815876898
0.0659045344604928
0.0636565934425915
0.073920888171589
0.0646826626602516
0.073413495866436
0.0683366638422672
0.0705130802366375
0.0569937207960221
0.0691585317316262
0.0587869995125828
0.0589770019613496
0.0615573762676192
0.0642343593980083
0.0510226143398246
0.066336156320053
0.065386630946956
0.0713668039099364
0.0719178846672714
0.0623489970641417
0.0576118276693868
0.0665857675658727
0.0576322797433623
0.0724696267441699
0.074288933216026
0.0677719096925101
0.0589664323279783
0.0626296358728633
0.0621647452262029
0.0653994530535747
0.0550399822274322
0.0602579215985712
0.0561704734927228
0.0667577149502066
0.0718185209893931
0.0819755577594047
0.0577298263641038
0.067736518475851
0.0563154596479911
0.0699585751819278
0.0558930235143424
0.0591784283252904
0.0763910134353058
0.0756689079124091
0.0501504164267969
0.0732775622160668
0.0544695113064279
0.0664890466236377
0.0730677153894515
0.0591425721595235
0.0571581797281349
0.0823344000732147
0.0670418946148521
0.0705294324461113
0.0595049811088152
0.0664516622583411
0.0548280000529349
0.0572554160186275
0.0480156412288597
0.0632078368299442
0.0568076008772302
0.0580370081736439
0.0610288330142526
0.0761057680080119
0.0759189290425383
0.090147077663614
0.0576395180844214
0.0897193645421761
0.0669760350058314
0.0502346768998785
0.103699714475916
0.0749275285000833
0.0611998535410593
0.0720642323526857
0.0610857631347022
0.0659339089984922
0.0567643177288293
0.048859009242051
0.059426203864409
0.0967007871386511
0.0653491628876482
0.0727425242010923
0.0559639935141582
0.0531277044192642
0.0733552714930197
0.0983401763468339
0.0603734308827896
0.068594106942892
0.0558660688015974
0.0599254677407804
0.0897528841230234
0.0863457712922195
0.0611836729640488
0.0605176719052818
0.0464016551343325
0.0542841752104708
0.0528856010267264
0.0904355625158884
0.0609903696136913
0.0587617416051358
0.0476295331116327
0.07431024636446
0.09815638412544
0.0855307386615692
0.0595132384269471
0.052674312347788
0.0578524131541719
0.09014926258028
0.0581899075539773
0.065128858073455
0.0754187018985716
0.0733313441158234
0.0569243611414918
0.0552358188960699
0.0457698616250292
0.0760092974721591
0.0663219851261061
0.031939365766163
0.0775391392819559
0.120549203432256
0.0892164782945421
0.108254495290495
0.0693760266489358
0.0543121688207733
0.0608114753912989
0.059047283355333
0.0528743810713107
0.0597664331678794
0.0537867357128417
0.0710917490880926
0.0826717840733513
0.0560858895751494
0.0612601234231385
0.0855582099222353
0.0571927509843576
0.0544169689653802
0.0996839428799021
0.0766015097828211
0.0510447251060019
0.0847623937801486
0.0677068148422601
0.0553565008574652
0.0669841549608251
0.0920150349444801
0.0558409833854106
0.0544084177369494
0.0511214218051893
0.0565577826236867
0.0648197941625526
0.0622528696310302
0.0611885555549842
0.05377652969729
0.0447998553079246
0.0656394508287873
0.0968542101931754
0.087449954537414
0.0643603946108662
0.0613245289181335
0.0374890171771437
0.0819385623937725
0.0942512769469687
0.0562335030773254
0.0539602918728419
0.0575180469064294
0.0496115200531345
0.0557904341181619
0.053893479648301
0.0472488960160934
0.0388521326099255
0.0981758017076721
0.0753818673113447
0.0540529036644989
0.0605711460272695
0.0483486917879379
0.0586067706707996
0.0949064658596157
0.0930801267497369
0.06625851549858
0.0554304622068545
0.0494213505980655
0.0634216968065472
0.0772514613044664
0.0608393937011365
0.0575245147857528
0.0557264761163754
0.0565618216344306
0.0601599485283231
0.0557836788884551
0.0558734728047817
0.0557754553195501
0.056569165956025
0.0603637814833561
0.057725395174261
0.0642627107713395
0.0555803096005157
0.0557853591458975
0.0498407692161656
0.0550742665759159
0.0636206982139415
0.0754224974083233
0.0629414105926427
0.0654856614480614
0.0530521895966052
0.0468851297113788
0.0504886961229541
0.0544261208648386
0.0519325340201523
0.0530207488025326
0.0623801147444797
0.0851325199760801
0.0713600155442705
0.0515906656282497
0.0542575382947155
0.0735335769664271
0.0719919891554326
0.0596483526036057
0.0541534327143622
0.0510570290468266
0.052988021060814
0.0504750935442077
0.081878269850399
0.0621977817332988
0.0434963914918542
0.0652747366305999
0.06914881176034
0.0629936610409456
0.0457326247187541
0.0460913700668561
0.116713830582039
0.0681680635917213
0.0555041745265942
0.103534108496889
0.0758872748017446
0.0650990771688729
0.0546564884030203
0.0291188394834278
0.15580631759275
0.116908269026478
0.0564004992217366
0.0574585172768129
0.0772441134307705
0.0592281081191228
0.060592948448406
0.0647793185645785
0.0709014278855785
0.0770194809566071
0.092482801012306
0.0941715791395163
0.0673698742892002
0.0731667785189718
0.0872917766283311
0.0616283979391445
0.0582175123980554
0.0552447686502523
0.0518334474314078
0.0686771122341545
0.0692789493691762
0.0709969083048876
0.0676813902867209
0.0586791769599822
0.0806808926975767
0.0738300867201333
0.0462201206226973
0.0750062445860172
0.0677482447858967
0.0531419601123848
0.0524850550353637
0.0614172433881425
0.0583075980479523
0.0518044228258657
0.0551101678155944
0.101646033526716
0.0656694525475969
0.0700513698000755
0.085702911072645
0.0685857810041996
0.0551736024316871
0.0604532890384838
0.0537075607330385
0.0598175895991423
0.0474496352414895
0.0555121265056121
0.0824762646075567
0.0693327913877421
0.0647470901897124
0.0629916303044281
0.0480013215422065
0.0579341738372431
0.0587689083698519
0.0588247878705383
0.0696584467539862
0.0558115867486451
0.044757690565621
0.0717796047471544
0.0822257824485445
0.0558390996567879
0.0983967624396878
0.0967446191624243
0.0680859198400457
0.0670034735763316
0.0661639852434471
0.0613547216030942
0.0583387305427987
0.061298297928593
0.0603069671584131
0.0656101602681729
0.0741133029773453
0.0728884580849381
0.0694418353989217
0.0556543388998848
0.114110529297582
0.121937606916644
0.0893736066486625
0.0626489163970823
0.0458608827946994
0.0915922032047884
0.0971598517156089
0.101699289449108
0.0846152696189252
0.0714093455321576
0.0711517639986262
0.0713679829693651
0.0723889822947422
0.0643425618817655
0.0682484762081223
0.0682826973375658
0.0731951459309287
0.0727131542833068
0.0734626636185872
0.0614080611280096
0.0722354999145245
0.114760334843961
0.0833521357074134
0.0769313608106152
0.0753189348005702
0.0674656600799727
0.099256033870596
0.0984309865883913
0.137425614788417
0.110117433624589
0.109188489682974
0.119449432451444
0.0920246318293129
0.0842241697391338
0.086038376986941
0.0843182809487219
0.0944416361995032
0.0926583483445608
0.0935817394708305
0.0898900307332469
0.0856690151441465
0.0945058936689503
0.0971530023517316
0.0884511897479387
0.0961272326109931
0.114421043568166
0.105822176839457
0.0940534197366953
0.0938521300426932
0.115342186141399
0.148335582165867
0.142391348462799
0.115270242114792
0.117473826030856
0.108129792234492
0.114889043791998
0.10249166090332
0.112168130359149
0.109392619401959
0.127648806962913
0.137746060284293
0.128456221969558
0.141476142814257
0.139568729911651
0.126697975633418
0.133493321480599
0.13709271019246
0.14277723755811
0.151084208760275
0.138586457447279
0.123148977034131
0.158316556969645
0.140005841661837
0.143527399986704
0.155370769828435
0.134871734159237
0.141322355232195
0.140908403483026
0.147841510247555
0.139103192508697
0.161607203642248
0.145663335758271
0.152254216774706
0.151576645122807
0.156745165197992
0.147807144016441
0.177654526682773
0.163612180755492
0.174398239880377
0.171483198162112
0.15448234806772
0.159476831829343
0.164728045388642
0.194068849635694
0.177259641218114
0.193166342458423
0.193500884073967
0.183318457668943
0.166270705151227
0.16965182361845
0.176274855489212
0.177797537968372
0.187104526091811
0.182760708545666
0.179050517994757
0.188056869207208
0.200091992472549
0.200575945704074
0.19989664659828
0.201894123529733
0.208672881212992
0.200001649486102
0.199779031550256
0.20670057353903
0.224026078326802
0.215095782582946
0.254089871427695
0.252239951951141
0.239019501527341
0.225908218230405
0.235731877046608
0.242992038177797
0.229708532287714
0.225814071054917
0.240249567163696
0.232776086386167
0.233602498282235
0.229775299091187
0.247665744281892
0.253737803119135
0.239906159677717
0.241289438721975
0.259594315439858
0.263443705564645
0.26061273156348
0.262292007280769
0.267765131289006
0.282573046386099
0.288476508990612
0.280629658313983
0.296277822458256
0.28291605260109
0.272918495124731
0.275027278561137
0.282728175828421
0.29533945796163
0.292216194902416
0.294108702927811
0.303257069868426
0.292655068630667
0.318537335026279
0.291538710512143
0.311758503508913
0.306593493405514
0.317756175974828
0.306868985552511
0.334391102271634
0.334176798630288
0.312107003584077
0.337706528795719
0.353247551345407
0.341342460752643
0.332938227658227
0.33677222561591
0.363950693773158
0.341461273368271
0.361672338001461
0.348388293543034
0.362037256536473
0.346310319895031
0.36400534316509
0.357263262312004
0.383322532033784
0.346436346821102
0.380785646307235
0.378437551974802
0.38965349931669
0.392327579349515
0.414913306233836
0.38664575906865
0.390422771145889
0.370894258488715
0.392877209807349
0.386847110004743
0.406136753879325
0.411924177815579
0.422118242167137
0.405707191059308
0.424692040738
0.417052092330588
0.407779076287023
0.408204645847995
0.441040883437985
0.451500665387001
0.433194806137472
0.435100106345137
0.463268247417631
0.45285195089507
0.453652945129056
0.413943468259398
0.461788810897991
0.465070946943406
0.488865381620171
0.481142433100901
0.486407411124792
0.466683267418876
0.472828149027665
0.475534435217826
0.486586563293566
0.469402184291061
0.496611525113779
0.498978906174737
0.481104759871375
0.49351928976092
0.506650472445739
0.507440815997795
0.510593043387197
0.4943440325061
0.510804810111386
0.48652345313137
0.531591943467831
0.509616116332648
0.523170563663845
0.516315562571722
0.537655848985839
0.535831703575482
0.556480838040604
0.526929184650703
0.569292894169432
0.539882691006905
0.542500526816619
0.526890070155139
0.575613143899026
0.559368165528831
0.560196897075474
0.55489796275495
0.594008440152673
0.53306973810374
0.548355665272956
0.556840209166262
0.588434675027489
0.573857428516927
0.578484848090094
0.547712010815755
0.631283108119015
0.581701500717209
0.635619227681502
0.577119772715939
0.622009737225253
0.565556691297035
0.600424233571729
0.578718876767764
0.610738498279293
0.604929645482999
0.614074488945816
0.568794952015306
0.612324110814999
0.616773080021252
0.638360891672157
0.587847688697717
0.608511523038128
0.628279777735203
0.65424809689837
0.622786805833947
0.648997219576804
0.638306846498271
0.67115792975205
0.615880476054624
0.63040644992533
0.679202863272782
0.697043186293905
0.652442129534598
0.670483563848804
0.664352461441393
0.691724917570134
0.643354653688074
0.666041964210793
0.618762473273529
0.727446026434051
0.657785084555198
0.665534626456275
0.616409018125036
0.699300676618397
0.650251014281049
0.678980305003152
0.675538471974262
0.688600659670504
0.68420234727634
0.69501340942942
0.665425590039345
0.735962022661216
0.676672949657169
0.684183883310973
0.691524408954225
0.718520205291517
0.69336559723417
0.719482250413662
0.673763734465225
0.70594132449878
0.691901892110606
0.706486234294634
0.720872824132426
0.719168107852898
0.695106042123379
0.731571310535312
0.694751426986248
0.784467522076753
0.731808894693577
0.731795513756327
0.712116480449243
0.733697054368368
0.743035971682814
0.78605509284493
0.72364852802552
0.745572566029417
0.742103076419601
0.750079900520729
0.743245241691214
0.781711256588295
0.698107480820511
0.732885615248437
0.748840405123634
0.824703450368326
0.737848274344656
0.755377812288957
0.72210865942809
0.750349256510234
0.726340226935073
0.769244686527866
0.727574911656323
0.763669600334795
0.759373750282753
0.796406753192898
0.746662979977698
0.785641539293943
0.739257392475644
0.764927201509324
0.783705775335983
0.772141633514326
0.714348669975963
0.77577362305557
0.754069836589374
0.766841708777695
0.75425129140004
0.791051667064685
0.763262336139687
0.778256271002737
0.765230812460868
0.770745998415006
0.748145981391996
0.758111220606798
0.793153263132978
0.790971860543996
0.783212749850704
0.803010017129415
0.754267204084953
0.80431216802639
0.789473157429244
0.784895503622826
0.775900507241664
0.792248032338672
0.750755956985161
0.77990642870982
0.76852584478167
0.80551332740872
0.777657621073723
0.792408479311429
0.766497962347128
0.816036592726941
0.779807295591606
0.83673100886809
0.7970512367718
0.815703455173188
0.758431307005996
0.774293090627463
0.757256359675061
0.779254011627076
0.778194585877555
0.800318018762133
0.789138410900077
0.783432535475471
0.743029889679045
0.792682533202898
0.795131274280671
0.800166865561964
0.753830075188975
0.788295392217018
0.781569430452081
0.778810177089722
0.804730088135575
0.792799489576079
0.760999026619016
0.799712250713349
0.766723513733318
0.812524538905625
0.761300007449947
0.796372069074371
0.756077427418934
0.798862630867199
0.786652769820107
0.79465158592223
0.776805401060492
0.806992364998172
0.783044795591575
0.765950408354327
0.777566199334257
0.771981446608304
0.793698544160513
0.807301267769227
0.763169271208601
0.796283614730691
0.775180202783654
0.767472581084723
0.775348167749928
0.824788460360136
0.77161002211758
0.778807139269404
0.751828938173808
0.76933059578844
0.737240235982058
0.78179863369135
0.76388976605521
0.786536227673936
0.768130302510537
0.761206955362616
0.76037934439632
0.767723351656321
0.769099289569619
0.80380668143235
0.744299406539017
0.788156052878025
0.774307048455337
0.776099804074273
0.730610194018011
0.770225813181177
0.774460043293938
0.766191775559128
0.762980363679867
0.745273924465439
0.749433276962393
0.740619464788851
0.730653846938561
0.753404074979123
0.725303960345159
0.75099316573138
0.733942640317811
0.769462486949332
0.72999151975732
0.756404630929151
0.736812860630699
0.738122970675617
0.731600968490713
0.735849817629268
0.711188485224062
0.724039158743318
0.739817265826472
0.744012699432287
0.73738682584748
0.736648327456425
0.68282655756802
0.729883809278917
0.717244167689706
0.725873890373826
0.699489966768082
0.726341245596002
0.715316532488787
0.714144917920973
0.687148505209234
0.715891531833581
0.694021281616928
0.721793737092058
0.714122154715475
0.709016872731688
0.684538627089932
0.679769265492509
0.670538703504355
0.712961049098049
0.67292405761604
0.68764657530595
0.670700459388124
0.689731077017798
0.682039680677727
0.697287490422291
0.671650495563438
0.681557103378412
0.676888141784525
0.682959146941367
0.675696886769495
0.679687182933077
0.637839987728157
0.672115648833615
0.652219057846989
0.669303964579193
0.649857474954717
0.665421631534099
0.639130211615172
0.681867045772812
0.668768068638738
0.651344915790839
0.641805531788285
0.636637806492697
0.650533644264901
0.649307694390986
0.629183528695101
0.64404613836006
0.632480447700213
0.636032443221196
0.629034480477483
0.618340830752466
0.623079323922996
0.627090219273089
0.619178966383673
0.610344269284728
0.604825027734823
0.614723227591586
0.615162708544995
0.627354219048545
0.595138058295684
0.6065897682577
0.609892415890799
0.60805640666896
0.594102875185925
0.582522700761962
0.579741838604758
0.588820923167746
0.583368364695892
0.592739075298165
0.57741098117207
0.582136714860131
0.579483239250205
0.564780935647238
0.564503213089568
0.590744617961508
0.567957262422737
0.55734007842851
0.568832558572009
0.578442951701035
0.565591125268302
0.556013820779625
0.573360921797135
0.547079815470969
0.543144856333874
0.556099707932985
0.53456871744919
0.556776194467443
0.537364318537968
0.544365093631092
0.527959898071652
0.548288405296002
0.532774032491086
0.536910071078133
0.532960771523699
0.527811238210156
0.529628175130355
0.51277588299963
0.515747384526453
0.516214949192066
0.512091879233693
0.517469455448577
0.501804659881488
0.508463053839836
0.505299243748224
0.492702168699439
0.498239015364483
0.501525954188838
0.489708766438493
0.495540362764259
0.483203076937325
0.491095424063703
0.489887280229422
0.480842199759863
0.475287584029039
0.477143580992917
0.470813064395957
0.471239705000545
0.464888522869997
0.462217285393091
0.462516736990215
0.470741323605872
0.46747148922662
0.477474701973789
0.465532750840338
0.450713837671379
0.457355558401205
0.452410770903146
0.448767800333042
0.452844532736849
0.448530663461658
0.441546325542522
0.441810068590074
0.447701875833319
0.439340818436846
0.440100972433138
0.434223599335977
0.437812253323775
0.431505415932825
0.422845153649949
0.423030751108176
0.420347441766406
0.41345499691815
0.424170733533751
0.415258665175785
0.420741450915008
0.423202142649907
0.411261733391637
0.404598097169504
0.400561776908182
0.398061634181335
0.4049211602799
0.408697986765471
0.40093086368457
0.39583581333918
0.392902031787065
0.396902441911603
0.395366473650608
0.393414816531571
0.392689428183912
0.386943802502991
0.385900431792659
0.393533718966849
0.389017329482446
0.375938305182253
0.374882090761634
0.367845396107514
0.371458793024456
0.375301097738336
0.368451972828233
0.371914224878699
0.36841774424965
0.36172722096241
0.357261381154661
0.360241423424016
0.360762325751885
0.35646379367194
0.359964747707585
0.358502513094311
0.353264796963448
0.354912214422891
0.347079375153664
0.349028866945593
0.349718987379766
0.349527875873337
0.347461952497856
0.340238308663885
0.338463624273114
0.346870775181945
0.343453223185987
0.337873477548855
0.334919169918655
0.336043202708485
0.325819724629265
0.32585237789527
0.32952987465294
0.322260060446663
0.322393764105334
0.327381586684303
0.324478520652769
0.328349773726963
0.323955320966372
0.322583172067389
0.314182625617394
0.318899120530224
0.31375418006116
0.308573449895944
0.310975102149529
0.315297054433476
0.305910480792959
0.303808845374872
0.306140433714342
0.303967509061934
0.293792389464298
0.296184198317431
0.298190592759671
0.301201127789071
0.294278452329237
0.296911974333412
0.293851765989228
0.290943400087057
0.290185831886184
0.2906347486681
0.289828708033868
0.286590176693921
0.280152330042727
0.284097400006028
0.279172026843721
0.275376220839744
0.279775664088125
0.277518443642971
0.277692726071507
0.276609255876972
0.272375054010573
0.280889892213475
0.272880129609184
0.272709688780351
0.267411657574604
0.268440397993646
0.262090318839157
0.268762361092502
0.269410506471794
0.267048756841638
0.261392365714526
0.266276535949863
0.26526076873499
0.260747692050596
0.26128802868202
0.255037188365341
0.253212209581453
0.258100595652425
0.255603991582496
0.253501909986626
0.252387014069511
0.258786050966484
0.25119326741053
0.247966718970163
0.24371479931976
0.248215669743839
0.243778861064972
0.242989685658886
0.247514339412614
0.245460948371643
0.242258248660525
0.246166404623675
0.245931272687386
0.246768929089844
0.239986951673087
0.241169449675283
0.237659498347354
0.24267874441201
0.238171996381111
0.243853566714306
0.235158479714019
0.244021036239593
0.243129980364601
0.241542634778239
0.241980945903643
0.246086894186083
0.242210973441481
0.244221081173298
0.243746049261201
0.248644155158287
0.245713413287743
0.240588265263848
0.24305607409994
0.246259692429339
0.240276278603029
0.246066453557502
0.247580491756695
0.246042815893241
0.247689307154053
0.256661872438229
0.251404569385377
0.25259324400917
0.254773668004788
0.252937943678104
0.256629989607112
0.267467569877674
0.256528314083097
0.26606273949515
0.260766973082484
0.262380377836376
0.263313613838069
0.271003303092074
0.262983747363853
0.271575873873151
0.267418663154489
0.267897373511409
0.266478416840342
0.269964145589827
0.272746696789838
0.27882651528233
0.272873266918156
0.275678517704029
0.277958252982153
0.286632147166094
0.284818966177916
0.289437658165091
0.290115199566553
0.28759954857611
0.285585211204525
0.289081272122103
0.288238787563368
0.293002810222909
0.288272981783762
0.295443722562859
0.299968624456063
0.304803265535048
0.304143611031926
0.306879032073203
0.313749977107005
0.320326190382479
0.321201175913945
0.318300031127127
0.310114047916683
0.31620653786842
0.319370395051147
0.325211375930417
0.322840509376512
0.332407277235786
0.334317871703075
0.330918409677907
0.325258764341093
0.333780575871843
0.331678612005454
0.333951294140977
0.333200260432054
0.333137258824519
0.335035386596224
0.337964579055837
0.332522650311173
0.336298291264397
0.33660315477031
0.331171756996741
0.326973186703747
0.331685221267176
0.332068509760415
0.335041504479596
0.330621998726678
0.333511085623218
0.322299430441242
0.326556619774998
0.327762623598087
0.325845792758181
0.323318425348891
0.3250841895095
0.322682583266526
0.327478190717925
0.324872756120544
0.32781511014997
0.323551252955786
0.319177869476869
0.321354644105641
0.333107705150433
0.326128231208429
0.324737174741738
0.324260955784575
0.329840346794082
0.328668796982709
0.330058569530004
0.326720505240764
0.333563611515762
0.330194135286983
0.331585868852834
0.322526748828755
0.327754551871706
0.325936861116236
0.328509547205177
0.327934642933192
0.331291450155312
0.328375655736973
0.332010961244083
0.32629200997436
0.322690977607155
0.325789820673751
0.330541755662414
0.324084493660781
0.326411858068743
0.321636660565888
0.327051329612144
0.321470600512854
0.322561657321298
0.318901127162349
0.315604039293769
0.314834784594521
0.317859773442328
0.311345921611687
0.321396143271692
0.30833351610206
0.310196920676772
0.311616171198055
0.307568576412645
0.302679001298475
0.302726833187291
0.290594469238089
0.294469534320308
0.295117491880562
0.295597124315897
0.288004365278607
0.286074105158367
0.28273997787409
0.284023020172931
0.278528384454723
0.285915684453229
0.273418924356176
0.274431532962047
0.265145743741624
0.274912076236387
0.268659206774784
0.272128849066582
0.266623597995244
0.263939714223599
0.26613874143741
0.258938004680472
0.249368035741912
0.259365206929743
0.252176662617656
0.253566787507252
0.248871286028226
0.253164221602318
0.242618467056071
0.244585974907725
0.24313956928734
0.239588213882275
0.236785454464094
0.237907788452725
0.234058746533285
0.237653841797526
0.23193709809697
0.236602082855497
0.228995482633567
0.23217740846565
0.228449311342007
0.232869067939468
0.226746412093038
0.227620668503883
0.227671479416321
0.229993499547408
0.221981196413698
0.221706845774901
0.220514417990471
0.223321406297171
0.219711975749469
0.217644910698129
0.214790779899588
0.218604186290009
0.213578530622323
0.211194252347943
0.207073088391198
0.217476609031982
0.209747402421973
0.207842740795087
0.200777106467382
0.205156631324671
0.208169381866141
0.209377370216269
0.200849239646492
0.2009075506272
0.201009217860997
0.207454202887194
0.198993313581765
0.206373788866113
0.200452341201395
0.201577694042346
0.200131636013754
0.200875414585023
0.195928229505936
0.195446743237117
0.18773467170551
0.199870425281742
0.192108436038253
0.195711439782472
0.19226411944232
0.192694560345377
0.186802553649345
0.191177353049853
0.194143548652249
0.188548657045202
0.182187018745851
0.187622450622387
0.182207012155425
0.185942886373385
0.179862968235256
0.18626204054384
0.181646173025353
0.187743488220888
0.182099499730132
0.185235480842827
0.180142832763506
0.191135994696594
0.180868387957952
0.182314401796011
0.181063666505322
0.182920352172727
0.177466993673825
0.186553947856193
0.173173897648261
0.182365857099321
0.17959304684143
0.177093514968088
0.175748608511404
0.182854032328165
0.17963989247529
0.180238705734297
0.165616241404665
0.172936037546595
0.17440597438516
0.172365713291431
0.169882268699819
0.177871900451618
0.170580991397149
0.171249983260519
0.168120008123046
0.174694797151432
0.167994498862155
0.172571157019634
0.168571088044845
0.170753710626124
0.168887909719012
0.169251627747469
0.165950633395299
0.171853836965468
0.162278554217562
0.170513477683455
0.163507840071243
0.16654220884852
0.159316323645278
0.167106881493764
0.169742080997025
0.169732482909824
0.163635841817457
0.166374067614177
0.16383571776719
0.163571174096092
0.158182788440263
0.16572581172942
0.160316381929142
0.161647046724079
0.159309353249887
0.167256945499228
0.168032478836587
0.167675035482915
0.161685748336046
0.161447032403976
0.162319205466968
0.164507329744634
0.157957674594284
0.165120819648528
0.155015063710332
0.160384992089939
0.154929661022487
0.163373656572417
0.156586043116429
0.162780240381042
0.155414788564695
0.155642679259105
0.158893652337017
0.15641870963495
0.155033127485282
0.159992494092447
0.157143681710305
0.160107425574861
0.153234934215213
0.157896662606201
0.151146767272921
0.154805985463022
0.155014571460249
0.153556952567434
0.150691081605501
0.156231466143059
0.144004053159528
0.149097937259496
0.150782236181523
0.156503856774635
0.15141709412626
0.149392112610542
0.150396057585574
0.155375632837872
0.146126870458848
0.148827741779619
0.145400910002187
0.150526905177026
0.144512186715755
0.150054424361615
0.14522104867373
0.144978705717494
0.144012561018686
0.14398273380876
0.141088328598311
0.143424963569696
0.143234171425163
0.149377961279568
0.142316822811795
0.1443886932966
0.140311739377974
0.145854930461794
0.142574391119953
0.144710148169053
0.139788698383708
0.143770571084354
0.138334032956058
0.141447216386187
0.135366607016533
0.142122971994882
0.136160465941482
0.136723059186427
0.136637804143898
0.137323265785203
0.130528988269995
0.139218465654912
0.134374766105374
0.132523581512503
0.130396415915603
0.133660157820022
0.131970743801372
0.135224102810616
0.132950776601069
0.135041653763989
0.134166129384188
0.133615935904797
0.127703597915767
0.133308635346934
0.126831197483874
0.127908561903501
0.12732705328545
0.129649130801243
0.125818536714935
0.131309913503919
0.122962018560631
0.129540922679093
0.118500165751823
0.124387065944623
0.123921934429994
0.123206760101437
0.118682335705788
0.122382680856016
0.119749525427499
0.125547715145378
0.119956964083214
0.123624905209195
0.113956635023897
0.117433955030796
0.115851187887183
0.117763856710098
0.115027833782839
0.116176178211771
0.11550183808179
0.115877402078338
0.115572695685067
0.118783597873856
0.113590389545845
0.121615855503265
0.111670220539344
0.114202076956679
0.111202888938795
0.112100380132189
0.106374412893651
0.116100803350475
0.110501890652461
0.11026754072985
0.112571283912668
0.111650907246593
0.111510527184096
0.113106957410166
0.107649520648302
0.115515208904813
0.108171054069765
0.109052796214192
0.102676107143894
0.110398171826634
0.107364373906745
0.106931855672033
0.103344362703812
0.10937987289989
0.101998849976941
0.106545401784123
0.101330190859273
0.105356615278456
0.107176146179785
0.107604762906367
0.101662176595097
0.102959482516251
0.103560576093872
0.105819096561457
0.100603827158994
0.106013915554856
0.103530083973947
0.0996331712059384
0.103208282757577
0.101817751831547
0.0937080673627276
0.100875005704674
0.0944050150880554
0.0999953523840126
0.0979164835191692
0.0993069987318658
0.0939040018539905
0.100068393755515
0.100019950814182
0.100682980352377
0.0963043629183304
0.09918496672165
0.0982947896650342
0.102806572726768
0.0936791343102215
0.0988144101694102
0.0934733387796743
0.0976642315901395
0.0937245665110089
0.0968816149774908
0.0959767376702566
0.0971927205968556
0.0916384624112521
0.0955098196834563
0.0928872301372709
0.0940459668035894
0.091659258965308
0.0925147143175432
0.0914044170140773
0.0946745829120317
0.092433810333207
0.0959067983489454
0.0905078517358359
0.0936369654712988
0.0906098277029124
0.0963686050229043
0.0920603311199165
0.0933167191329271
0.0882323317415417
0.0951238073447862
0.0903570158221027
0.0934495019024838
0.0872213671087918
0.0918933236444
0.0894936192506441
0.0932796713521707
0.0901788319255141
0.0905771794606456
0.0868348214726248
0.0922761082388752
0.0900282533187529
0.09187423586662
0.088994781700694
0.0892141970278353
0.0846354342077673
0.0925187169781063
0.0853642033970933
0.0876373093905608
0.0872904657842642
0.0885720641385936
0.084053916033253
0.0872714911860107
0.0888779060688756
0.0896425657478524
0.0871837558280628
0.083959253071776
0.0821649297090484
0.0869794252198995
0.0865069917604793
0.0876320726854816
0.0814358912287009
0.0845787569041007
0.0832021351069929
0.0865059222618072
0.0823196311764645
0.0844475747094963
0.0808394692364587
0.0811273984288837
0.0783376646988923
0.0860777082062675
0.0817954575263568
0.0847762888343229
0.0818034469471228
0.0837483189726801
0.0786425102960228
0.0814718714525025
0.0789252556451517
0.0851491230054003
0.0783170379451069
0.0830594096143174
0.084083575163373
0.0839083618233834
0.0775031773882739
0.0833713643701321
0.0803389630231113
0.0816906073878998
0.0795871745007325
0.0835746581290638
0.0777848278371311
0.08468169160584
0.0803163122025193
0.0778955124135843
0.0787044704300094
0.0839221201711506
0.0770000207803182
0.0796151317173724
0.0781945301109509
0.0815520465159535
0.0709174080776385
0.0807923579677045
0.0762175977554207
0.078655725109075
0.0749861779029158
0.0809029668165326
0.0741840859726526
0.0784298483226019
0.0733251258753533
0.0763237472676366
0.0709895347982609
0.0737337774564784
0.0719582937764189
0.0711656902645511
0.0729234319980012
0.0781546433584021
0.0688102244636615
0.0751253798959944
0.0755900196390733
0.0741619105483874
0.0700102980162847
0.0742500536185636
0.070925054415243
0.0732913605431782
0.0696953330288755
0.0718029353760504
0.0701703391694525
0.0712426719443561
0.0671070632118919
0.0718834831974386
0.0692152374501226
0.0691869665377035
0.0673350344738499
0.0709382354683287
0.0706188225028916
0.0680859681648265
0.0685878089140666
0.0698652355439062
0.0656831376841904
0.0684093496310997
0.0639144838267028
0.0682738879996772
0.0637584399013394
0.0668190284538198
0.0658954637929302
0.0694190577262355
0.0652322497398103
0.06716710151324
0.0643953715315014
0.0678555492558554
0.0612176600311548
0.0662975522841521
0.0675255101707381
0.0675530809863306
0.0643628887906206
0.0662235763946623
0.063367949118141
0.065375093099703
0.0651482885653374
0.064734983954266
0.0618910541977975
0.0621580326512967
0.0592885850164786
0.0651575911848978
0.0601285919682324
0.064283892704185
0.0566009045827104
0.0647907706136144
0.0612892952679048
0.0644426314733463
0.0611534510275808
0.0612402361638635
0.0601607325231721
0.0613283214527539
0.0563319139202008
0.0628849362443967
0.0613180569154217
0.0590696404447761
0.0528325305239525
0.0595739850927269
0.0549849225672577
0.0594442988323901
0.0581018364371022
0.0606257896714968
0.0583489623258963
0.0576599279103912
0.055157690609828
0.0564992212352353
0.055202300434684
0.0576030288078493
0.0573725834470175
0.0563376448948065
0.0545173702024205
0.059632427509444
0.0529474336431873
0.0569902179189668
0.0551979795988077
0.0566519132640649
0.0541277260638099
0.0579627296961938
0.0535865700578997
0.0572342311106865
0.0539855297515395
0.0561562976459083
0.0530234648550008
0.0574477155168549
0.0533446644695894
0.0569552700508358
0.053712245112195
0.0556489548734982
0.0559919855604704
0.0577607985187019
0.0535844004235266
0.0551171371953173
0.0547178626745701
0.0602071599729416
0.058805348502084
0.0588905911339089
0.0569701228831062
0.0604708502064428
0.0557291594122447
0.0592383996516649
0.054038016902178
0.0548461702267669
0.0555138829548844
0.0599645017151484
0.0531980576954445
0.0594399139066634
0.0545832678731271
0.0584513512010733
0.0490201465140646
0.0564561336791848
0.0507783089012116
0.0576428759458963
0.0494551402196391
0.054976063837686
0.0568123973032949
0.05356338583537
0.0501417450030916
0.0642346897146532
0.0509946936933357
0.0534106997156582
0.0501722834661066
0.0525168342643609
0.0537940775103949
0.0559066613008945
0.0514425285656622
0.0569572090868526
0.048807503445585
0.0490355742883495
0.0528983841858743
0.0490136334461018
0.0491733540288869
0.0524448114211406
0.051213986897875
0.0441118432289046
0.0570341224960727
0.050284223931881
0.0517538454775903
0.0458992209623072
0.0592682413144987
0.0451312623583026
0.0561046611413376
0.0426309800491994
0.0599457585239193
0.0436739720484065
0.0680095176846621
0.0392569254197956
0.0710143655830891
0.0378236424766484
0.0725202701167023
0.033996773485954
0.0742064701926285
0.0286732535665914
0.0788292090027176
0.0246650233764936
0.0805019202029784
0.0273525669226556
0.0827418093151751
0.0313790945099301
0.0785251108271534
0.0347493113230732
0.066836866792671
0.0424362505261961
0.0586038107042973
0.05195432041357
0.0447483374927882
0.057337544025496
0.0415151037270855
0.0661221718798439
0.0387918768435297
0.0618782689199652
0.0399786850691541
0.0599948115854594
0.0491437406826396
0.050718747893567
0.0495710510134628
0.0454733059507494
0.0504876168547576
0.0456567814066618
0.0498620752711942
0.0487458405289269
0.0485913261384143
0.0496934273798521
0.0441765317981219
0.0497296815669658
0.042864504271326
0.0495256398611636
0.0487100866844539
0.0450900047941268
0.0440390793462619
0.0453986303472228
0.0442518600152644
0.0469292578702707
0.0450060874176209
0.048773933230653
0.0435485897828112
0.0487761541426078
0.046223880709339
0.0467229172984725
0.0457383783535634
0.0464522433913413
0.0453004441624054
0.0473698217946447
0.0439733552901063
0.0472916293491557
0.0448166361950744
0.0463636356480287
0.0430737905055097
0.0465577263704495
0.0461018222235594
0.0494251949431353
0.0448441227253679
0.0469640375902909
0.0465265135279972
0.0463115682367658
0.0453343717643492
0.0478038241762776
0.0448713342169991
0.0469126767709254
0.0465293944049429
0.0465885278119527
0.0485460733473256
0.0477028699690417
0.0436506190764794
0.0481537972290867
0.0435088820029539
0.0472916916932538
0.0453041363484838
0.0487226747082155
0.0444288902215432
0.0481272812939315
0.0420664188533088
0.0445362046974583
0.0428873828391897
0.0476170998596046
0.0445145873355839
0.0467475416093649
0.0464588235520059
0.0469075529885957
0.0426756610188027
0.0465854627966176
0.0452270453602716
0.0476216920327877
0.0450874513706229
0.0467241302752073
0.0435187169336194
0.0476666611180506
0.0429819320952904
0.0473409210158597
0.0421432674340858
0.0447609874909174
0.0440558190531336
0.0469476841059376
0.0449091410303297
0.0446339125670369
0.0455931083088558
0.0455801573292297
0.0446288404348344
0.0487245368950592
0.0431269483027126
0.0469040506175126
0.0454422590054576
0.0492618306698964
0.0441874880735647
0.0469074384801903
0.0444084906220676
0.0475271836883772
0.0457172033848558
0.0464673269979365
0.0460962140103248
0.0465293672898769
0.0442469951255345
0.0496171311025852
0.0469433913536973
0.0473792550195267
0.0434235609535566
0.0468566824018983
0.0449968451934025
0.0466489135589765
0.0470349027734092
0.0480116031977401
0.0426292885454952
0.0487921605196288
0.0446647804280849
0.0493879895741164
0.0451839084620045
0.0464090414360643
0.0444742436830907
0.0472933809739547
0.0466056760983679
0.0478741529698502
0.0477375485150955
0.0473080611424421
0.0440024942340957
0.0465191657459019
0.0468730577122455
0.0474983400626181
0.0468326374409132
0.0492822627408867
0.0457145088493025
0.0470286669791781
0.0448155898252119
0.0486509146561504
0.0457772193369266
0.0442841616865135
0.0456530278169096
0.0466149756546297
0.0473301876251199
0.0477913027582718
0.0452362229621155
0.0519514382267875
0.0441407782658773
0.0473878271717432
0.0466778261658736
0.0478738993583694
0.0439058455495164
0.0484954119170397
0.0452790629871584
0.0475108536169399
0.0459380980073417
0.0490053949216633
0.046596665033872
0.050149220727385
0.0458155807887856
0.0481827221275858
0.0468323463678193
0.0479491315285532
0.0466157187337677
0.0476037265896079
0.0481798560047237
0.0490693171590005
0.0474457875364166
0.0487532238716354
0.0464169954489747
0.0507224260304102
0.0479639987252089
0.0488320998156937
0.0473609523217281
0.0504525070989952
0.0493864551744715
0.0518744939674678
0.047743500539373
0.0484878189204592
0.0477125160438013
0.0491739957302037
0.0467321633203054
0.0510513555084197
0.0457072198325442
0.0492346144508291
0.0472786705030422
0.0493602974997532
0.0485626734625402
0.0494290885301623
0.0448065417864743
0.0477833229056159
0.047430880589356
0.0496538196329008
0.0484042780777847
0.04837723320988
0.0461052578910501
0.0477904141394697
0.0458925601853785
0.0479563293148402
0.0468234554868252
0.0483354534901192
0.0463694765544469
0.0466489513450362
0.046244552352679
0.0488805088658919
0.0462201137613708
0.0454763066525007
0.0440460981366946
0.0483615575505102
0.0447712257169149
0.0463414054378482
0.0445024840517892
0.0459772938669503
0.0438992728164055
0.0474395887000367
0.0436997944579096
0.046019901411349
0.0463855755535663
0.0451471942947515
0.0441623202635375
0.046737600595716
0.042577945789828
0.0480101086646824
0.0432783142061192
0.0477768499155469
0.0440938097266075
0.0488843977909772
0.0447027519833736
0.0447994494689346
0.044813124577298
0.0458495870706933
0.044262282272072
0.045644594391398
0.0421833364711444
0.0461294056326513
0.0449148782522499
0.0447903009339922
0.0425218966812749
0.045503742406225
0.0478729904263203
0.0468892702799095
0.0446799844073565
0.0465346036302527
0.0438593984035095
0.0457556704391958
0.0447629217194461
0.0464009334531133
0.0444014052972812
0.0443145816183095
0.0438750134346452
0.0478827916456674
0.0445975549502435
0.0456974837765036
0.0441785425593815
0.0460529282650814
0.045100636913241
0.0459633648639156
0.0423713883473437
0.0475818903001726
0.0440064503828609
0.0452146998817681
0.0426890986740168
0.0441959246077379
0.0420346926053875
0.0444730079360295
0.0425431585625424
0.0440011872726484
0.0424425969924774
0.0475808023016729
0.0466503719383077
0.0455592511584727
0.0436025139944682
0.0454308556934314
0.0424668287708777
0.0445202104926576
0.0423369468852454
0.0447658623523952
0.0452173131219029
0.0433358799700171
0.0424918777865091
0.043175485461544
0.040513271440022
0.0428938284499946
0.0411185924277512
0.0445863060343968
0.0423436588900562
0.0442437575627101
0.0434482735239426
0.0445482493001311
0.0428170772493938
0.0440228992009323
0.0426690991143225
0.043399359186356
0.0421166834877173
0.0466228951282146
0.0431054350777901
0.0445508894447519
0.043657973480457
0.0461892328128319
0.040776666848054
0.0414296286934295
0.0417479637594408
0.0437972660345086
0.0428739796978472
0.043909292007801
0.0408223126202847
0.0432010015777223
0.0433551512192581
0.0424900200342109
0.0412381147677118
0.0458854169032324
0.041563470877314
0.0432740881071612
0.0398659529398222
0.0434610381221578
0.0416715637114321
0.041502678157727
0.0425653422881804
0.0445637842912912
0.0405229799717506
0.0441199081021868
0.0416580509480498
0.041379268080153
0.0374396964294774
0.0404043384156194
0.0392816285704439
0.0392517349523138
0.0396380963263168
0.0391534154457328
0.0366621173469438
0.0402948239308804
0.039063109229861
0.0409312223847065
0.0385884778870754
0.0427150542717795
0.0375399211972663
0.0371283870234098
0.038612803474515
0.0394811376092833
0.0375553529163347
0.0399534191447517
0.036297677355324
0.0395362949801501
0.0387849720517764
0.0401826466195444
0.0372738530669847
0.041857532007162
0.0460114046878651
0.0391076312109847
0.037323661027322
0.0415951846023384
0.0413408568842419
0.0390240801384983
0.0387064711161965
0.0381557190255462
0.0391950007543564
0.0383322260438899
0.040356599240557
0.0379400455907792
0.0359199485352117
0.0371922305647955
0.0382360547575783
0.0384375487117811
0.0351968182806754
0.0374253952800102
0.0381016541740724
0.0389538018265277
0.0370840759328443
0.0373966542264144
0.0394902926953031
0.0383792249041314
0.0361280169338067
0.036306934420405
0.0435111794378599
0.0421622801259835
0.0395884536985824
0.0370638472389455
0.0372540575087653
0.036800162694099
0.0372118873707638
0.0381365188919724
0.0372658096062935
0.0388283524834811
0.0374145286156607
0.0366145444592235
0.0351366063551276
0.038453899200904
0.0360977676618915
0.0344096788506159
0.0369995895648701
0.0348638640310629
0.034308974120065
0.0359098680609109
0.0357708414930538
0.037827666214041
0.0347884587923813
0.0358690379926578
0.0369954547282841
0.0338750982417023
0.0366987860621779
0.0510055375160662
0.0362094098513648
0.038274257331542
0.0337190273249907
0.0370260559183753
0.0350005596351363
0.035932030528898
0.0344465822236215
0.0366951346447291
0.035982227973471
0.0391922006423964
0.0342675437966778
0.0361638346890905
0.0354225851656827
0.0351393027073532
0.0341474103103956
0.0347614225137575
0.0311012358221289
0.0357637882216439
0.0343219351354732
0.0390179774930221
0.0460108251463194
0.0395774540649482
0.033243922438844
0.0402344902040611
0.0308525886980628
0.0511509045244086
0.0418927294371836
0.0360586756353514
0.0358901550315858
0.0337578512520929
0.0359339201674931
0.0353296115283281
0.0347365285308073
0.0373899569474649
0.0400901955740264
0.0360519970944697
0.0396172390870132
0.0346035445180866
0.0342833048554152
0.034330822889143
0.0360645231748733
0.035489562858588
0.0357597849340815
0.0357512391159395
0.0331201037272058
0.0342262987375357
0.032839096042344
0.0353020322321625
0.0321577895586107
0.0376278559008322
0.0397339665676681
0.0306446533890769
0.0358549000149164
0.0356201253537164
0.0329676581067939
0.0386582036784444
0.0509611994616314
0.0360050197774223
0.0359148975792664
0.0352881022139553
0.0386951845451029
0.0382404847167587
0.0339504667629607
0.033348332804717
0.0337807547814533
0.0359231889225959
0.0363364801463674
0.0355674104151719
0.0341447460320627
0.0347288611802177
0.0349615516040001
0.0346270670752919
0.0362920811794204
0.038084778137375
0.0325905718487802
0.0364783857961804
0.0307876011872457
0.0418665562993161
0.0523246526658563
0.0458798739521717
0.0432041394807113
0.0375185570688818
0.0381205520941493
0.0331917433555773
0.034740370594059
0.0336644159764447
0.0370405057817288
0.0353423197483893
0.0364267809360831
0.0375808427272223
0.0378051217807163
0.0324072991679644
0.0349518042898124
0.0329514629710864
0.0353880528444093
0.031122862862224
0.0333909389617945
0.0308184479200689
0.0357621817716069
0.033432052399865
0.040212441607906
0.0382698275162753
0.040457433810003
0.0319363699087731
0.0535445882466909
0.0564127955502012
0.033865449454119
0.0429876663498196
0.0356444273960813
0.0370323536925864
0.0334922995312551
0.0372378119673395
0.0402896178862535
0.0351741598096223
0.0336909067011477
0.0370707713811384
0.0370406976819724
0.0393585476869648
0.0335310289374975
0.0427530407349406
0.0554664774696021
0.0430231525574107
0.0375167711375758
0.0345680087983416
0.0417413010932326
0.0580625742333833
0.0377282113495197
0.0387890796563421
0.0386253602167433
0.0353229183163615
0.0352388879501011
0.0354869862472336
0.0369791922322215
0.0397403345982092
0.0376757306158511
0.0340324200910238
0.0358300215692926
0.0364805173397014
0.0384825712468657
0.0382798689082175
0.0416620147250322
0.0421666454082658
0.0367260570809775
0.0409470985665993
0.0397444284714017
0.0358291320279114
0.0381639700111585
0.0381306563816677
0.037058850164355
0.0418849402608281
0.0514683788799054
0.042145071715899
0.047708231113005
0.0481760118966569
0.0357401252141414
0.0396964848062217
0.0456549939049761
0.0441766715360041
0.0335657272686605
0.0424233300386605
0.0666864775575664
0.051703631393335
0.0581604509988767
0.0406490008568098
0.0408278311908657
0.0397293592701305
0.0384832377755767
0.0409940959547385
0.0576917441720944
0.0414815522497614
0.0400730720843675
0.0377026417237073
0.0425280737058869
0.0497279954868616
0.0414702870464089
0.0462828528398383
0.0391884292339256
0.0408493136321386
0.0520307114304399
0.0442233729542823
0.036521317589853
0.0590326695194579
0.063435894212036
0.066788375673894
0.0474370043090481
0.0368889107157099
0.0601417217196872
0.0501311853074201
0.0431437256694336
0.0417781858308183
0.0415138934714334
0.0414419218994998
0.0493066559674228
0.0667448990417423
0.0479860904017787
0.0458237907854413
0.0490008849260251
0.0428582119269856
0.0601181108763765
0.0525858403318696
0.041347025248334
0.0450911818347885
0.0456803251682436
0.0455454085491878
0.0803587116305017
0.0653637111885059
0.0585254425853255
0.0736623262161543
0.0592162408387271
0.0598886633959906
0.0542587807588706
0.0545362338431737
0.0590463735937512
0.068728033904241
0.0566022192391926
0.0493237992881318
0.0650140236218232
0.0703445547513887
0.0520377961379416
0.0602674901154746
0.0530063752392531
0.0455221615364696
0.0818228127406246
0.0996089790312516
0.0785538593589701
0.0616692896360418
0.0636987503892134
0.0783233639686714
0.0643788009206045
0.0578532671003828
0.0586742816653794
0.0593570613209277
0.0594443863405436
0.0602620296430517
0.0682449390649838
0.0650603747713759
0.0651156944089133
0.0615492073046275
0.0639476438044931
0.0846860635886283
0.104774137723065
0.0985559359920884
0.0715523712483868
0.0859388319283204
0.0907986467837649
0.0789440759014878
0.0711377151789247
0.069018992670211
0.0795577386238336
0.0756482633158036
0.0726032756372947
0.0731202640409269
0.0870849395449822
0.0889716794480653
0.0935796804104787
0.0971605953817761
0.0822571513166851
0.0826826127432231
0.0958800452730002
0.184197661137286
0.117152926109057
0.0991018732969918
0.0985382771545332
0.108562557792353
0.157271387366071
0.117003899109552
0.106386063590608
0.113710032303706
0.108740979204642
0.116631273610391
0.122150097090427
0.123112571484611
0.13364823017999
0.132572492934192
0.129076210865409
0.146140212645803
0.198156746208712
0.191589782263117
0.16199585698006
0.150835667692588
0.168476768362644
0.172046665928747
0.162025492787186
0.163603185734522
0.158054862750939
0.179363752377608
0.217394890328748
0.185699799815693
0.180111398058456
0.192666207078842
0.20900068327161
0.195158055670138
0.227357883760885
0.226875203480942
0.209514101369667
0.209746530233063
0.213734980147353
0.217990684486651
0.220047875854083
0.243862338806241
0.25021199362464
0.23620440562115
0.23830964932181
0.242986624619255
0.241354872916348
0.24900669585331
0.253179861787921
0.25245093680395
0.281446396850909
0.301237726130389
0.353268491945909
0.283059126154593
0.262118495807471
0.255735291722526
0.270889013096894
0.286138828607008
0.28028657685065
0.301427309059601
0.27980230228395
0.26349978546176
0.267916091083459
0.26605425071494
0.263001052009397
0.2671912225248
0.268232289603359
0.264522462059328
0.287131491583158
0.268752880355993
0.308817325702997
0.314363472308411
0.278122562542613
0.266665910993873
0.265393414288043
0.264724963287067
0.267704599573146
0.256062417910298
0.270854543110388
0.279282759096538
0.268766638732697
0.258794435946373
0.256501950588972
0.272123186142222
0.27506689883393
0.251652198264261
0.251581545912514
0.240983086956919
0.244432457207853
0.235792444038492
0.261283096408262
0.278173876009296
0.247154610994509
0.234457962847074
0.234686182991247
0.233409803690908
0.240760197026961
0.23551410704909
0.239831577123601
0.234486084222102
0.236779172815305
0.238806481464773
0.232595584576251
0.229306318135523
0.229416842210569
0.230098425364547
0.232627767098273
0.230276825236737
0.230792720985212
0.230881268475076
0.23215126377728
0.234012617990346
0.234010714496509
0.230683896890573
0.234584841392017
0.239146488380668
0.234838897532864
0.236438653923683
0.233473726512241
0.234393132750684
0.231339325605352
0.231040176336365
0.233311520035931
0.230165698568022
0.23080091756942
0.23149931775486
0.231225838675341
0.229392295950957
0.230371396129674
0.22863989522268
0.229144531943442
0.230105797631442
0.229519481592208
0.222661090978962
0.272772219986396
0.239586384941686
0.223278170597906
0.21798244755618
0.227076817566959
0.215164957429885
0.215031880703945
0.250234408166902
0.232723599548588
0.21733819189503
0.211550969701975
0.207912190422343
0.225518041515642
0.212029510366097
0.203279727147002
0.202936856320739
0.199641959741106
0.23082659419006
0.239049440730974
0.274273108634005
0.260449121332097
0.217234360214088
0.192540874546993
0.221776120382464
0.221251715091517
0.199440966555686
0.194633935863204
0.188049373770727
0.224057681460237
0.203489932747814
0.193749322869761
0.187031650257965
0.185959321693222
0.217859448982977
0.219692309027674
0.196148783844423
0.213629546809513
0.210556388844671
0.199762396934325
0.230232162340581
0.253461081338034
0.19747463364996
0.174149310125757
0.175893442835901
0.173023677164659
0.183780116741568
0.210674395310197
0.187904310655548
0.185598426761785
0.168277333277356
0.170118971631771
0.167698764284164
0.189846085842475
0.16240047332685
0.183620585723545
0.193310192425061
0.163147043427679
0.176371663186144
0.179999802695513
0.200410002772422
0.197331547822677
0.165268082074326
0.150320904221001
0.193621562141254
0.186487554280623
0.168684100874551
0.166881523479358
0.14240934431007
0.157567652058063
0.164457503925542
0.146288452459735
0.161961157992038
0.163424652656557
0.175581285068996
0.192384696100187
0.203184233917177
0.182447229287828
0.147548093520779
0.134523676750006
0.13567733053386
0.139471458567339
0.14175916836092
0.132990374561994
0.17688292680211
0.142448939491475
0.137429743962379
0.168862406982117
0.148254295341761
0.136014031214467
0.138706564371031
0.135572169480527
0.139811060714825
0.165811937165453
0.18021890677194
0.153346488287323
0.168819352268261
0.168937073375644
0.161332816098663
0.150344791532464
0.156757387199196
0.155010149744972
0.159306706511289
0.17381992778837
0.16872652139528
0.16546748994143
0.175240890900089
0.166584305170516
0.210733641301896
0.197509970625465
0.183145364017085
0.214992395683547
0.208036559225445
0.251932622771679
0.207136941164738
0.20710387844844
0.206960336896558
0.210924266148621
0.215850728927489
0.212649182361132
0.238304104699233
0.251106072644864
0.225799399889308
0.230273219813005
0.229194920332508
0.240348825424509
0.236794542917619
0.272237646129481
0.245128404799838
0.311672953607243
0.271049753111372
0.276744315762575
0.25294417520389
0.248939830458779
0.260141285924544
0.25506472437185
0.255205384439452
0.249040401201798
0.26837915963837
0.281449178905226
0.260382697392846
0.266856072506234
0.259281864442995
0.271694167326887
0.26275057542925
0.2637425327086
0.26689648428721
0.268752391315948
0.276012620259245
0.271484839875003
0.287035024062351
0.340088994678236
0.284280691494653
0.296503779373657
0.28390670647864
0.302219517018869
0.287409118201172
0.296065300104439
0.316275513202194
0.30859294006747
0.300000998020905
0.305695691546102
0.304697871356869
0.304589798374534
0.315223621279166
0.3292729939714
0.307775648426531
0.328365924615077
0.298827962226342
0.38627291899542
0.335795000897673
0.345037304442094
0.331517765149151
0.33730546851799
0.327001102531583
0.325463952521657
0.321492974359886
0.331722820392733
0.329004690056101
0.332541012236475
0.332639553825334
0.324530268559457
0.338234591481734
0.331040668940561
0.335584975743399
0.352739786164193
0.335413211119811
0.334038097621045
0.327794683538458
0.331525333855334
0.323198538852443
0.359134328937527
0.335035925602909
0.340997610084729
0.326298752524764
0.343719709610205
0.353750661014002
0.337859968210985
0.322819753913946
0.332600794117178
0.322797057770658
0.338795503473839
0.315105974371912
0.349886579354026
0.35459378980049
0.338243893058565
0.332676417047097
0.338038558931025
0.335960094925508
0.336508009347665
0.328379332018158
0.340869346843446
0.33702279131566
0.345489378041595
0.343891333931409
0.341722865468531
0.33653612791197
0.346671601358872
0.368202469262564
0.351584630244688
0.335504884093931
0.340485171360858
0.327850598378727
0.33539286926461
0.33015845814692
0.330375256168533
0.321123315186365
0.332046180273685
0.313898026198111
0.328270212596572
0.340559603821539
0.31957994328461
0.331163695064153
0.308097857027369
0.310880648823185
0.303339643776613
0.303141939967016
0.299616232852237
0.302923494841497
0.305293614074221
0.297113733961884
0.29667420416841
0.295135548247154
0.293056389554217
0.288790038383167
0.287499622822896
0.286688165455143
0.289969915190227
0.28462805853161
0.286747197683219
0.285388122244328
0.288959832140476
0.284023094478248
0.281564922262259
0.300188065185212
0.297311862231198
0.299839287681155
0.286514072360546
0.28901703172136
0.284400575745676
0.284602230504795
0.283115618490849
0.279358898890631
0.284235166756685
0.280464252695128
0.280544771416849
0.281399267795882
0.288125548734368
0.283282685756579
0.278184615124444
0.280376762583298
0.284098056756539
0.27929818845167
0.283861948767224
0.2778881136743
0.285768816050887
0.278470062019435
0.29152426728858
0.283016635676915
0.286927185665075
0.276870774530072
0.278479458060367
0.283361342844362
0.283832054748522
0.285159122126675
0.286749451713335
0.281073557059165
0.281068466111553
0.276022158961028
0.282212317194489
0.279783900341114
0.27741630957937
0.278993170906844
0.278955066998984
0.27399917915617
0.271553619897611
0.268782445431276
0.269407382094956
0.265994599367846
0.26583409766163
0.26381735123034
0.268828367161723
0.259744977425387
0.258019854064827
0.254090912761492
0.254670182920054
0.248648060537464
0.252230280116699
0.247692341128473
0.247765712613108
0.248752071689494
0.246909229617069
0.240269193108838
0.24445346424753
0.245178370566072
0.242458926471939
0.236453742245777
0.239837879542371
0.236420073683662
0.243970836493182
0.239432001724972
0.242293867120513
0.241614922215242
0.242595064736022
0.238394208473125
0.24424926743463
0.241402320072038
0.250177941845073
0.247608153204562
0.244552584372961
0.246665174836142
0.248299605629659
0.24701361719903
0.25384546889194
0.250620428678013
0.249571256850285
0.251737876223134
0.252313717955435
0.255128827934106
0.253837530652682
0.258875502785736
0.257684071965456
0.256710370234316
0.25420424481465
0.25819365138217
0.254042094929771
0.253128780419292
0.256715525696546
0.256337924292286
0.2554396363706
0.253679116871088
0.255942583756121
0.252444250655768
0.252735843858309
0.248865226582063
0.249215824322186
0.248615342221071
0.250211852244239
0.249943063943184
0.248075761403539
0.246361239445291
0.245095213625555
0.247475175904498
0.246076911778199
0.244593848893861
0.24173436242246
0.243001276924104
0.241099417067848
0.243255030081707
0.241682692819048
0.239169180220696
0.238269810760942
0.23654318829709
0.237263329728475
0.233387880479817
0.235165968025284
0.231928719116316
0.234856699185124
0.233760431476608
0.231554312864503
0.231840642050111
0.232315547520176
0.229130894161749
0.227309409583113
0.22671029422017
0.228592979065957
0.223618804072283
0.225308585026629
0.219924019416259
0.219013858070296
0.216284080797683
0.217707739097225
0.218502567163915
0.214229511020726
0.211969875118047
0.211748222957318
0.208684024590517
0.207870601682383
0.209369416215042
0.207209136651891
0.206921456666952
0.206781335727973
0.2044388488047
0.205210680549849
0.204586648951814
0.203619630241509
0.202373831614183
0.201935617179658
0.200119445046164
0.201912072461011
0.197421440934621
0.196922307091366
0.194532959814512
0.19064290975866
0.187830236709596
0.187905959529657
0.186556589536052
0.183362403662532
0.182609207274184
0.182860289111118
0.179557319589217
0.183716908469479
0.18355345611081
0.18684561439949
0.190458016188691
0.195162814871149
0.200373784303791
0.20385475965705
0.209597505517011
0.218474327017988
0.225886415263772
0.234859210848469
0.244731826344884
0.2546475184436
0.260843189602119
0.271394546441007
0.280881537663102
0.29261412094781
0.29912768114386
0.307087832396613
0.319511039315117
0.329872842406623
0.336019992358142
0.34629463536548
0.353595869635186
0.363084572746277
0.366554870121452
0.374273045948351
0.37954081769903
0.391678760521786
0.394865527672821
0.402996261891944
0.406137328169999
0.407970673344149
0.415539699527541
0.422580296806769
0.424679829284954
0.428598515070356
0.427669702945743
0.431175283196668
0.432368786422089
0.431479181265181
0.434743059724755
0.432712691639876
0.437024703320741
0.433745683631486
0.429601621701436
0.433378562439004
0.436763475702899
0.440617650140527
0.4387380270786
0.443535443219727
0.444877021090813
0.447921190205535
0.452080228318759
0.454179346121079
0.453222105440764
0.45948544459947
0.459198604584927
0.465931323734061
0.475934498990618
0.476714459480538
0.483344042343106
0.486690371437059
0.492583984628074
0.499804932186841
0.505358840162801
0.514374987465696
0.523220871193781
0.528179977795022
0.5377700260608
0.542046510244792
0.54698181732904
0.551327454129982
0.556147308734774
0.554344243425732
0.559271208630299
0.560832111624008
0.562051893329941
0.556104893060723
0.555917610960293
0.558380679961861
0.551595278748426
0.554352415142459
0.550411504881146
0.552747378478913
0.554749401400782
0.556170605590305
0.558544012918195
0.569723286085071
0.57128929592265
0.577353480755795
0.590876221608355
0.604281830982265
0.614607592269389
0.622623248699012
0.621414482621962
0.640554383613221
0.648193968632723
0.649046750117948
0.672158042107765
0.67250018512566
0.684131309955548
0.700382825043511
0.704426189732392
0.718606161326763
0.721737687232585
0.739752665769575
0.754477939828731
0.768170660642232
0.777527477039489
0.798651252916111
0.806202469674961
0.813908886112534
0.83250781680711
0.84156271757286
0.860875031762498
0.876307335064813
0.880109825370813
0.893818318228156
0.896366381338016
0.917010554268678
0.922422175101808
0.923412053518656
0.935066744137757
0.953891411196462
0.931594100408709
0.951297101253797
0.949417554000982
0.956176360747886
0.947481843472956
0.939592261036041
0.937781439257864
0.938177354025315
0.941627319938238
0.943690508743931
0.936710975730613
0.938820889681991
0.929169411080816
0.933121704249265
0.92607482804302
0.948582044339359
0.960083668695393
0.95671405387995
0.955077481482856
0.961993280710605
0.979044803350913
0.992952027923972
1.00048222308175
0.998809242700148
1.00920678174329
1.01937067811646
1.03115521160739
1.03854014154845
1.03323448571716
1.05073564043592
1.06635992707889
1.07201963077006
1.05066156489761
1.0690790592511
1.08143065529164
1.06104521188427
1.08211698155514
1.10830983627658
1.09528488711726
1.06711792089268
1.09850543300574
1.11214256269818
1.08794570644947
1.09290978943651
1.07872115979054
1.08647988262396
1.10825021663942
1.09979730413728
1.07143028219577
1.07326556285395
1.09408592625228
1.07094008663885
1.07856596113514
1.08813945779783
1.06075569955738
1.03527397984587
1.02525704646826
1.02420503378317
0.993692688321931
0.968736650865869
0.953587293316864
0.923397178132188
0.901683769150333
0.875861396272384
0.842054379339196
0.819758979266168
0.793994834763465
0.752753952312657
0.732482283768048
0.709795493619601
0.693034152037553
0.681174086618605
0.67360945678334
0.661570738232096
0.64434411770506
0.643370277352611
0.632660644010218
0.626884126389344
0.621317235936469
0.617997462904837
0.614164378897978
0.6076459572924
0.598891157342544
0.593594442655578
0.582414451344935
0.575382549649629
0.572091761662083
0.554605171300878
0.540603746750128
0.527778943750794
0.513521660214269
0.504559304608516
0.480237983717572
0.473451948341039
0.455330491358132
0.436630534319899
0.4217830670909
0.403792801118348
0.389988132362819
0.365882783379411
0.350711876856998
0.330760203587897
0.319769586080865
0.304948285494568
0.291217772865398
0.279340657384334
0.263826037257943
0.255233579435758
0.246869788033801
0.234373132365455
0.225327757952471
0.218328547066347
0.216720134185747
0.209257681595378
0.20326841499271
0.204117340265137
0.195856365802148
0.194906551273618
0.191957290573127
0.187163660773812
0.185333312288393
0.188043285785095
0.183619273083214
0.190398692415519
0.189630607332444
0.187360793948937
0.18764648946096
0.191747698722038
0.193769436793405
0.191903713446218
0.189790117225255
0.193908652515021
0.192292139058237
0.190103694379185
0.192763636956032
0.190282645171102
0.191590401168979
0.18756943414784
0.18706997574442
0.182699059207495
0.180675004442316
0.182658844498908
0.181587520279959
0.178991093662935
0.173149780636995
0.176639165923448
0.179024424028629
0.178488899153405
0.178910928868289
0.182027069314285
0.184248548750507
0.186387201085117
0.190127884963892
0.186195375280608
0.188309776322181
0.189476391904387
0.194393900319121
0.19338534679833
0.192041000756855
0.193802575104764
0.195541767718971
0.203634003570228
0.202437965423338
0.200319297820975
0.200958100473651
0.202162784630649
0.204440483935839
0.205604902896414
0.200543152881193
0.199762449933618
0.20676550539562
0.207045526715872
0.206127777686958
0.213722960242479
0.215723788384514
0.21331297096818
0.221578368020766
0.222911380033004
0.227045655085947
0.232560007918738
0.238119274793004
0.239133655780094
0.252300248046886
0.257503377413326
0.261973984518118
0.272125791556884
0.273124045448061
0.271717931920946
0.2789188133076
0.276868647031164
0.283830826252886
0.269726877382572
0.272396729191241
0.265002820453522
0.256858734333741
0.26010201184752
0.255671255792375
0.2521185503015
0.251919397780552
0.238975021578711
0.241791802418856
0.242964071685867
0.234462306050281
0.234120193730117
0.232549848253935
0.235655768567543
0.246185642626896
0.236143712456387
0.236688108584772
0.230798933911897
0.240112248583577
0.232310743719761
0.230239170638295
0.231888371869435
0.230333946860437
0.218337704730432
0.221329140584667
0.218310229112654
0.220684200771003
0.219127872338181
0.225689734802451
0.218383844827419
0.210210075142169
0.207657831760444
0.212914704185055
0.206653402223341
0.200908802061897
0.207590488717386
0.209091543068606
0.202113753823751
0.208337678491807
0.191828840946012
0.188004140333267
0.201781093938324
0.196435272370704
0.18539988057668
0.197177325845976
0.189544675846488
0.19717512483877
0.188357139510778
0.192604090575216
0.188058137184609
0.187136288187698
0.186610817894227
0.190707454603597
0.18272187790881
0.174360455941705
0.178548273114779
0.183279815339439
0.177732575449867
0.184464643331612
0.172678946181561
0.175357081197475
0.173402397673637
0.173352419780786
0.174302897270453
0.174703461288429
0.162689424276973
0.176611331766327
0.167049070652786
0.17673288176483
0.172698880259195
0.1709119196985
0.178149411764057
0.186967931166681
0.167943949296707
0.176663056517525
0.177968999266712
0.17819831823522
0.176702641626161
0.185980659118864
0.184414036537804
0.192696316798834
0.192628806493589
0.19246996567035
0.183917856730995
0.192859987921153
0.185810845581461
0.185368520873611
0.194674728280741
0.197394472634649
0.203386851044447
0.205418829728159
0.197291927580938
0.211487717719448
0.209242516656266
0.218610097969998
0.225937523716625
0.227189743484301
0.223707474798601
0.232376984217523
0.246059869370119
0.246107637750762
0.25029319869394
0.25750772927268
0.266824241883269
0.279569495916102
0.286959249349144
0.290276158324744
0.294711079883078
0.321683329717113
0.29481579901582
0.317713933291418
0.321470155903499
0.34211473671797
0.334258296398945
0.34454497365582
0.329103751497391
0.31922648109893
0.329766201261441
0.340270367276612
0.339523904495128
0.32401825061376
0.314567640451002
0.33271357638418
0.316276980799515
0.313437021824728
0.322808748964373
0.325509140653376
0.312770232055329
0.308681536802012
0.3084274081753
0.318779036731483
0.285754679122336
0.303371717844575
0.29313054663892
0.307391336681191
0.299469055776067
0.29850697412933
0.260896818305408
0.289050953510708
0.291505959366477
0.291293116728621
0.2716771301918
0.263541059910533
0.270371329204001
0.310820499414468
0.275773927936782
0.26691351882304
0.276577001812278
0.293983414207537
0.273119229522864
0.269176796692075
0.259561033539334
0.29734212039129
0.264862903971512
0.25854918110116
0.290780092304522
0.306251310470653
0.276404548196443
0.291681354572496
0.28564460401979
0.290221131143337
0.267301962777704
0.28273044248275
0.266588743769728
0.284305623194223
0.269344794135282
0.29027244999965
0.284477955857155
0.272846552656533
0.25381822226414
0.291207035145048
0.297287292646734
0.295470145165495
0.288020148823928
0.316150432656973
0.280605779474934
0.307013013850313
0.295873591873772
0.317085298102996
0.287515224724899
0.320077333395399
0.321899968426724
0.337365652098863
0.312558740841252
0.361062747888708
0.330486811481934
0.318197975933592
0.307421661370944
0.356688137675266
0.359535590190663
0.392224818833639
0.34288081339779
0.380720961129304
0.387944399297395
0.402735080281911
0.372863386505591
0.428170315599937
0.391575332294183
0.439531728231404
0.39371384679376
0.408418177103963
0.429447021467789
0.426885344894831
0.365200013852022
0.417510997596401
0.429342149293845
0.432589830111067
0.389708561851794
0.404866159838533
0.41017238286259
0.421607670583611
0.338956765453093
0.348840416563485
0.404669989386679
0.401086667901069
0.342214759953474
0.35396728846711
0.349324965074721
0.344276973357718
0.378802911244405
0.37480085607157
0.339919337302831
0.416608658527376
0.458202182022704
0.42134189812114
0.358918966440487
0.397024537598321
0.341926879032598
0.429691188032827
0.405616385889978
0.38109112612059
0.3813370639203
0.426926233228948
0.381814001069413
0.433275663522981
0.311899015717274
0.406894927062616
0.482002053246676
0.512290661088805
0.531318532783162
0.570989757496703
0.31876866721746
0.291893415874735
0.34066626314281
0.395177221663261
0.291156425209064
0.470144356148886
0.359332031795723
0.49369432215925
0.324721970810615
0.378697808183761
0.339771044076177
0.850726066032926
0.43227775532812
0.404917050103573
0.437468186796909
0.464611268257057
0.491538142368914
