3596
4000.36533379555
650.420452594757
1
2
2
0.0977285347106604
0.0934169010154488
0.102075439179521
0.0900582881835563
0.10297123662041
0.0850105939223469
0.0981227419399978
0.0972216733383655
0.0947721384456858
0.0938522078904926
0.105722954764891
0.0928707840118753
0.0950106436849054
0.0920258635040428
0.0998473832268755
0.0826436040237861
0.0888696306365329
0.0826042490601102
0.103730706797724
0.0890529730570226
0.104525776826981
0.0921784518924779
0.094044033671512
0.083840341084862
0.100376386975012
0.0961008418324045
0.0981060507843177
0.0903033643933298
0.106525726841066
0.0924701395234094
0.102764676049345
0.0902824292321478
0.101320145558295
0.0850917721811778
0.0934185569719731
0.093402324746897
0.0924065762322447
0.0893899907487373
0.101857667100032
0.0936430761691027
0.107816275465147
0.0946222127431281
0.0978667307071093
0.0929536240794879
0.0935657368006571
0.089577335146487
0.105013388466686
0.0886771791333749
0.0916813683708222
0.0934689446014192
0.107049391600219
0.0876200617038107
0.106436715594364
0.104145992194412
0.106731663976052
0.101893653055282
0.0920562446385275
0.0899368770319484
0.100227233297079
0.0914484977284455
0.103474954061221
0.103217697381395
0.095239144030875
0.0913812832095555
0.0953622310755288
0.0877755123164808
0.0977858478068186
0.0785079493792244
0.0932783885740584
0.0930099603259347
0.097816094922808
0.0957997164376769
0.104734391257616
0.087857270160253
0.103832193681632
0.086541614091208
0.0988353251840515
0.0862678631810165
0.0903725692808978
0.104904943092633
0.112174888175757
0.0815167077662403
0.0984971597340673
0.0772536623496026
0.0948543637595283
0.102542754649609
0.0903175750763421
0.0913975912121244
0.120603178961109
0.0917412972901658
0.101021093181711
0.0847391070360943
0.094489611715771
0.0872785119895655
0.089263924101088
0.0762219345415932
0.0916467052810266
0.0830875475439843
0.0931506967950984
0.0885840131539111
0.10510519775927
0.0998943780854987
0.122852163954062
0.0801752187312964
0.125043618404615
0.107372431764382
0.0823760325097812
0.13046370259784
0.0983636760874912
0.087248832164782
0.0937667487690459
0.0866095577910294
0.0953073721242147
0.0842114175577951
0.0825922394126169
0.09799418170866
0.122480400885991
0.0881114937042989
0.100424785611706
0.0769405684023203
0.0851126146686639
0.0984413807141836
0.124246718971995
0.0819699555898974
0.0939685234487681
0.084050362607371
0.0928328129765418
0.113081128749412
0.125173254831237
0.0891745955879523
0.0958401654068665
0.0727455654837943
0.0783506630435075
0.0876849625569336
0.121623993806543
0.0869060801617189
0.083014567546212
0.0720124027766194
0.11618047033084
0.122248419613759
0.106270323971877
0.0844234172668376
0.073260171289912
0.0692654515327797
0.123007670224894
0.0865516565900489
0.0890913246752719
0.0976107934291234
0.0983772585920903
0.0780663000474927
0.0818741096110447
0.075600294757193
0.106585144525139
0.0921167421068548
0.0623633654715028
0.099892311410042
0.148243250535716
0.0884298273978648
0.134626405395389
0.0898589309493259
0.0899791725345479
0.090414870427332
0.0835942326237001
0.0811985331390039
0.0854723056212346
0.0785250696472643
0.0913394095873916
0.105599084467887
0.0893120374515058
0.0971391546822339
0.116520340452608
0.0896028393122107
0.0851347253586142
0.126866703896754
0.108448607735554
0.0732287326704147
0.113763352208212
0.0907785015693641
0.0835573356918611
0.0915033599326797
0.115903053838934
0.0868359494815845
0.0843920738740755
0.0759831909423121
0.0855915544819982
0.09318624747467
0.0912474581234012
0.0826697760053972
0.0818862230775341
0.0673650227846451
0.107840142776053
0.137048766318639
0.116953149679486
0.094207608516559
0.0868578414410975
0.0604411146157456
0.109225780276551
0.126712285287086
0.0830796410141707
0.0777883909679151
0.0827536974790406
0.0721305833218148
0.0843557112927197
0.0777811548311638
0.0773707096433539
0.0700837115395084
0.123649495906719
0.0999752694066366
0.0841945677122398
0.0926513824966244
0.0807881119417079
0.0875728510967263
0.121748385732265
0.115176611740161
0.0958021835189531
0.0827528586578188
0.0764493189081446
0.0942055940095051
0.104090363165432
0.0867995290020055
0.0880957323522434
0.0857336985886427
0.0930150374967746
0.087623635867502
0.0861515965945578
0.0786859312408711
0.0825454331300434
0.0853587887503184
0.0868494380535696
0.0885612695363045
0.0975045246861175
0.0900203623404494
0.0874344860363977
0.0725762889178683
0.0868140184568178
0.0930928603726894
0.10985746039813
0.0919660902318272
0.0862339629947481
0.0792531907875812
0.0875675129407492
0.0834831339355959
0.0859979320523191
0.0812629615190206
0.083229187281571
0.086471232778257
0.108351642402804
0.0982487026735629
0.0799435682737984
0.0821384627726427
0.107344970267278
0.10970435167206
0.0812104320524928
0.0902204623801309
0.0872523232127043
0.0758807010719396
0.0794542087186211
0.107674927154079
0.0900133842298727
0.085217988015363
0.0963867601472159
0.0959344380870981
0.0845233386585113
0.0710741853299752
0.0933814097301116
0.158045239719187
0.0912362059855681
0.0816613125310152
0.140343395172999
0.10826019488766
0.0877844564295891
0.0883799438988499
0.0730568537625952
0.196180009745636
0.146886083795554
0.0873951896945274
0.085648856095093
0.102250435677139
0.092820530179238
0.0850115894877035
0.0978452772577323
0.10173745806403
0.115622294383015
0.122408541059045
0.124161120903704
0.0901202124352489
0.100218869241274
0.117599472018267
0.093031528785499
0.0931512147559644
0.0855522568792154
0.0906398556997805
0.0965720720740206
0.102877611414347
0.100625979838635
0.0955890884319751
0.0902588376270115
0.115482696896882
0.10990659670026
0.0862294466059344
0.0944769444599745
0.101080805826849
0.0910170784844793
0.0871129579329255
0.0933268541966866
0.0964186857264641
0.0879007887101285
0.0829311688459027
0.131776578562784
0.0976236396313404
0.100294241188339
0.113384056095797
0.103972692686818
0.0920265337524433
0.0919157638776778
0.0920715667800431
0.100359229148397
0.0836594299649792
0.0927262648554634
0.11028810849797
0.10323178544876
0.0984450192560667
0.104598719762798
0.0960919303249577
0.100671427964904
0.0983188888140858
0.095602328529539
0.0978119682685313
0.0982910022719198
0.0942775573913043
0.120356500719485
0.124950827505663
0.099756386203167
0.144611400852933
0.14676089246541
0.103421937112012
0.0970240790627612
0.106180343260028
0.102325559434494
0.106718661076
0.108020549384931
0.104711445821184
0.107201721904738
0.123120175148218
0.124175483968205
0.111805335532538
0.110202019424188
0.165266243564959
0.171968345447846
0.135837018471085
0.11216245891734
0.102024867267923
0.144273124102435
0.150418411641074
0.152006606525122
0.141336550888958
0.125784985057877
0.118404207495325
0.133001571368098
0.124384888816771
0.122665877645889
0.125692247141544
0.127303130054948
0.133272676230465
0.136949609567181
0.134535266482917
0.117762084369548
0.13988313979625
0.179907018378065
0.149489072369387
0.143332701739539
0.139419827675494
0.13913576154437
0.16353645125175
0.170775563783076
0.190417208500046
0.18965964584745
0.1877452573897
0.186427224617003
0.163553827041237
0.156795055704872
0.155358362824211
0.163269577020127
0.171540471106384
0.168728772132677
0.168786719065656
0.165318380445701
0.170865896606619
0.177261000459546
0.182574802370439
0.169509190603203
0.185529180122287
0.196581135368066
0.204476128326762
0.183446799476726
0.186089548089287
0.198431293218023
0.251203993180752
0.226949106339991
0.213649657585924
0.212575980785768
0.200789447498239
0.219092676139698
0.218619382157467
0.211183273548078
0.219579773815381
0.231353099262516
0.251130727983322
0.240013480264629
0.25511952197044
0.243450976157112
0.23418390324313
0.241824580221926
0.248229503672813
0.253585424542357
0.28726795806842
0.249474913845426
0.247215899170669
0.28405164733842
0.265025128060497
0.274589868486753
0.282945116927179
0.265633152347463
0.273083586541739
0.269720912039533
0.298181291027429
0.273433666952311
0.293486040851275
0.283225778581938
0.296772886977318
0.313778268575503
0.306805655575424
0.28251034650965
0.308605880099398
0.304776483910782
0.307963821961373
0.315766477901325
0.317075726307653
0.313145177642238
0.319672412208329
0.348084977712584
0.34674457386484
0.345361798451275
0.351564434827329
0.331851283650513
0.333508775351527
0.339762407827848
0.352397696735109
0.357413353364836
0.366304443999953
0.364961550444301
0.357785690059622
0.358957520061899
0.399172038628951
0.39885435837632
0.385783531786617
0.38285414574428
0.403831937519493
0.390037996039854
0.401357826429196
0.382695252460219
0.395817170625258
0.437712648184234
0.441959585578316
0.449602618634988
0.452623950990064
0.44251212389473
0.430315697716065
0.437703315508722
0.462554499914458
0.429785626073737
0.455427193910329
0.444491544419431
0.479835117039543
0.454946501708574
0.453186860625193
0.467757455135371
0.475276710283648
0.475663852866747
0.467637003950604
0.476499863635265
0.514174732271859
0.496021086621785
0.51769388754332
0.535400737982247
0.533788882907489
0.527384627414516
0.557445339784021
0.538475021924953
0.556619235067671
0.538572762158554
0.575237541874429
0.551503501541402
0.586576899199596
0.539299314715438
0.554873284215998
0.567205862334196
0.623020118806449
0.585772016791208
0.566412935858993
0.567343490717993
0.602241867193951
0.580705423804141
0.612364567773771
0.585636629761336
0.613692818569606
0.600039265407967
0.642547855815597
0.628939176396127
0.643688090689852
0.636938438689847
0.668242024179207
0.634054846252038
0.696427759411733
0.632865122767933
0.66692742321755
0.637859592307364
0.691328720090348
0.619818829174539
0.698014676318473
0.667798254429367
0.685062846121661
0.691857946840203
0.708265382109463
0.688296441810691
0.749194844328648
0.728423918442418
0.730146419076898
0.693083247896295
0.73894493260564
0.683639581548337
0.745052554572155
0.68727028590199
0.803981741710378
0.74291777796607
0.802350243784634
0.771655377807178
0.761951839993446
0.77648276699186
0.829608973172715
0.805220295777379
0.82556336780792
0.796674660211931
0.823554769452748
0.774806280669408
0.876415749766695
0.773951937568586
0.859461190635204
0.836019950523657
0.837718477693108
0.806099383571401
0.852910606703083
0.827868797142628
0.903821041330924
0.892558108225319
0.975890274908991
0.835738732422539
0.866520649918276
0.861194529586263
0.946942193472288
0.847530870773221
0.911420961435517
0.903855817948055
0.93310383098186
0.873325314440304
0.915398854446718
0.873921142802616
0.901691375939822
0.86205799312629
0.989979440816766
0.941379829696852
0.958601269438182
0.958792651416225
0.968694872160111
0.986946284958147
1.00190292280157
0.989286307069829
1.06019004699866
0.94721791962736
1.08559528108148
0.980374890863204
0.998857429322991
0.898902431036869
1.11944212203263
0.962496579219675
1.07201990621418
0.987602149910897
1.09179074355458
0.991507544615144
1.03143468091277
1.03317751617586
1.08495722083796
1.06940666146543
1.20530020167798
1.05859611522717
1.13862720659544
1.06107258829766
1.162402944645
1.01230918596445
1.07151556285901
1.03052868147974
1.17242726809469
1.03677459916695
1.1127196459226
1.05588509774467
1.14911193702048
1.03460932648389
1.19707273467039
1.1463723180556
1.24686910511314
1.10482511772167
1.17151987722703
1.12185794592152
1.16492310234046
1.12226327206717
1.41103909340241
1.11954906874947
1.22374479150898
1.20804978394275
1.22141698950759
1.03031480288503
1.39470047295538
1.14726587573892
1.32324751473947
1.17739509756061
1.24197597246566
1.15841202261322
1.22955363756483
1.18069312357184
1.46936840143758
1.18570383979604
1.28583686612694
1.08345783085852
1.25945408284838
1.22859350979884
1.26805810371335
1.20230828998892
1.32990627957109
1.20723989443733
1.37981176888407
1.162996321996
1.25636451029695
1.22545635547943
1.49087726781796
1.23988820177362
1.49688842795607
1.28345783108936
1.23978818842659
1.218539599944
1.43464252777357
1.23024048147803
1.37311361909591
1.26541656748988
1.45646807639828
1.22169173526822
1.46892245699028
1.28493325874544
1.47460384972347
1.26098562959444
1.58500366972802
1.37508126905574
1.35342022941442
1.34521080816465
1.74193009864731
1.43388441619142
1.34273687605601
1.26421374723764
1.36973886401217
1.23588227203173
1.56685774160849
1.32910616885344
1.61655834348485
1.28753660334586
1.35235045137452
1.40363919391692
1.41043216549009
1.25611959071894
1.44844659011329
1.33984079322777
1.56790973048962
1.35951525617076
1.4075596143794
1.37219333300354
1.56639870099366
1.42682008373618
1.43542024555096
1.50053213067387
1.48020691618386
1.37262876236264
1.82525637254235
1.28845198072053
1.41065838204114
1.34927336737468
1.54634028918573
1.34471790282736
1.36454666120421
1.53067044406233
1.48219100187199
1.39078258127383
1.68468080980493
1.36785430361767
1.51095246463372
1.36985099955844
1.46155290246747
1.36462840846535
1.65173381819187
1.62081878591938
1.52069377991701
1.49593023063828
1.49684613925651
1.38536427824668
1.62388544248184
1.38888794286081
1.76565615590427
1.41555603226358
1.6311912498309
1.47462522076868
1.79831637173784
1.52496773288304
1.63921287716728
1.50929356180489
1.58279578850547
1.25865949773104
1.41301486713438
1.40134079934481
1.52134286202171
1.45866642833422
1.5294525557895
1.44536174885495
1.58359127309367
1.43610529589865
1.61102012369193
1.48946067524775
1.61702879664315
1.4108398490809
1.4439883599942
1.31370574781192
1.5055769859092
1.42994202676794
1.50110751955829
1.32485146236402
1.41430288423989
1.38212042954464
1.59715382207444
1.36020672642239
1.6389497396981
1.49901056399945
1.72348404807182
1.37516246564801
1.6834774788511
1.43117114461036
1.54470190615958
1.53436454742987
1.60102992436363
1.33829047661292
1.54233904450597
1.44574047207409
1.70203690461099
1.41987589589819
1.6577974735783
1.46703528758428
1.39229851461026
1.45855753564097
1.81997011822437
1.49371615572132
1.59554495687053
1.32608139534028
1.6664445948442
1.47372010821269
1.51768319732824
1.48525719476694
1.46961420452805
1.46307032673696
1.63887001149732
1.30430543104871
1.56409058133809
1.43779311111988
1.47868689153687
1.4251879701031
1.70293599237865
1.52766007850184
1.56192652297104
1.44712268935679
1.49543465965299
1.43464849600108
1.56437862170216
1.38523786737094
1.45581248096545
1.30850899943265
1.48234021576646
1.44164984702929
1.5443096994525
1.36211946033694
1.50598288683167
1.43993380318107
1.44317903967677
1.40584527832884
1.59053907905732
1.47504046352297
1.49441113630324
1.37580108578029
1.46717486692768
1.4032252563214
1.48702511769416
1.41166981460152
1.53670396211236
1.40603114388617
1.58175924584027
1.34182256260711
1.44214171859246
1.41246686909792
1.44275772118804
1.38340044369738
1.45870340012005
1.42444346080194
1.48038642542901
1.37889960990138
1.62927867966038
1.38651645041421
1.4081116487597
1.29091020397645
1.401282006759
1.35202111243901
1.50137104099724
1.28336264623171
1.36325726771308
1.4201641879926
1.44758930333914
1.25904455383977
1.36440254120475
1.30808433083763
1.33283979135896
1.36243983548959
1.35741980688309
1.33042177431037
1.504073588788
1.40231319366661
1.43173358076722
1.31255664197917
1.30391315825819
1.29756012044616
1.33815037964373
1.30434308686478
1.36859089712397
1.31446816359067
1.40339497723248
1.30522594503074
1.3005026667688
1.30735433132552
1.34913797848056
1.29956121939296
1.39650427507061
1.2636195425113
1.33726092726054
1.19809872879928
1.35441704410374
1.21726857580934
1.24793659373531
1.21041672311591
1.30498946155992
1.20699893688971
1.2601108078707
1.18201338475214
1.2922351812671
1.20895284500814
1.28935855785349
1.21258268643686
1.26616456834706
1.18733270443577
1.23310113904647
1.23169835508876
1.2354859516075
1.22043939154946
1.17728789288207
1.1697615775932
1.21561579666025
1.27080158898804
1.20445874067427
1.17845300319702
1.18940837430515
1.17143252724861
1.15024197091561
1.1547895747645
1.16687231361753
1.15734258198851
1.19323817894845
1.18403940045436
1.16422522527196
1.10842178404153
1.17428183913238
1.12433538038959
1.12991960499533
1.17987527949797
1.14748624631656
1.09685260564949
1.11894745933259
1.16109217123009
1.17824801049493
1.02647447994567
1.09936599710426
1.06830507860854
1.10799731945729
1.03828512264613
1.09219275235082
1.0239183717023
1.09182475491002
1.04895057262788
1.08265415597759
1.04881647700143
1.09085944167066
1.01446751210464
1.07497303715414
1.05326542226483
1.04130326861059
1.00204460172293
1.04003889336908
1.04292754254702
1.04945807834124
1.02486659262008
1.00288956875792
1.00502424738979
1.01479681041457
0.995588937692408
0.994400770115432
0.968870499784362
0.967577712201363
0.937918558070667
1.01283370149761
0.944743715099221
0.976421975858676
0.935337668506262
0.976094113545644
0.942750757082802
0.976397582650013
0.934004916297133
0.915711891043946
0.933297337279256
0.934834450554106
0.917012984593881
0.936476901703313
0.909461921407914
0.916215401259783
0.89645144466665
0.899287165832147
0.893338697282337
0.878704194623439
0.865577394107565
0.897698912800146
0.873897005550209
0.897190209911836
0.881436146216901
0.867652712200132
0.85807717883691
0.845425547265732
0.843614217741933
0.847717138435174
0.814437611319571
0.85838752654464
0.840936688432132
0.850566385440091
0.827603470918319
0.828695420187091
0.814420492196881
0.829315849277777
0.805610315544496
0.814224122790643
0.787589364271913
0.786589003965351
0.782044820524164
0.811628165552601
0.795564088413426
0.816640209823506
0.787951860552735
0.764423977183653
0.748916795357193
0.766740209644482
0.737612497248961
0.77180580637259
0.770252111988174
0.758389482095724
0.752986879718436
0.759341590131801
0.758195742437063
0.745551257538434
0.735037890108648
0.744667015772947
0.716797168229939
0.725774535716806
0.72182123703225
0.72141752792406
0.703729259136466
0.711905090788028
0.717012006948853
0.717698810632375
0.722714727803017
0.712382777610232
0.693805138455883
0.705314814944024
0.675948760280909
0.701585464625365
0.671617311294364
0.666762323503926
0.668614010699962
0.677655560315041
0.664568368283225
0.67838414318742
0.667322287826833
0.650567348167056
0.658484272026167
0.659783968544838
0.652653361481986
0.654275886885148
0.64150932266623
0.64135232401782
0.629561609355971
0.639007180597517
0.637306918738002
0.62050954583548
0.615076874171132
0.636633151526213
0.632383623718772
0.62414800664013
0.617674705102745
0.629861522356589
0.600719159365038
0.611895360718621
0.599639008607355
0.595236435479999
0.604356663257346
0.610240383990013
0.599256811672255
0.587090012061772
0.579784522701605
0.582509200495201
0.586071320716612
0.581527220907713
0.584503295005212
0.564781523859745
0.573285994967943
0.57863557173211
0.560818425932343
0.564124003283328
0.573599883437122
0.565086764245881
0.549575670832916
0.551862708268145
0.543244376011583
0.547356147347198
0.547870809669867
0.540037469560362
0.522760038003697
0.54549226674959
0.542092356917029
0.526786515183546
0.535687658378037
0.527036524461069
0.513092345238467
0.516931186156397
0.52401464547807
0.525755599196604
0.513493310439368
0.517389177287182
0.522085931260156
0.521654742477112
0.518973618404131
0.523323072639947
0.51382750314587
0.508963539478336
0.512099079196575
0.514921293621819
0.510846030671386
0.503020265506894
0.509603894813036
0.509389798343291
0.499887288857532
0.495162777909528
0.505526419562995
0.493707291040147
0.491939084517745
0.503878140894764
0.509784331846501
0.505716981553218
0.505422080279147
0.504805659184869
0.496948135078707
0.494540740732019
0.50075631710068
0.497344984782715
0.503730073120075
0.514457116962116
0.498667662964525
0.506686146928986
0.500989369219314
0.500889531102447
0.501046274700382
0.506233618017762
0.522407421583653
0.50981248067298
0.514629796686744
0.517784397497808
0.516521543582047
0.5185079257904
0.524063896124519
0.520145823674842
0.527173027653376
0.525778481489405
0.532607231475534
0.535962416556968
0.54187087550173
0.539446899982059
0.541833174465491
0.537124280921508
0.544065195466607
0.546658922001448
0.547637556106517
0.544112701914027
0.557181115589981
0.557642743626494
0.554261217732689
0.545193220652569
0.553871612217505
0.561115888739165
0.567589982414424
0.587942913788478
0.57434403021756
0.577932458610004
0.579427322533814
0.577480032946741
0.583115060147496
0.592528313283296
0.592922575904633
0.600549500620029
0.607674653414308
0.61060261972426
0.60261514193761
0.609080860553987
0.615753533694913
0.642124675351766
0.633183340206301
0.619976599890144
0.638725870661073
0.636970638870611
0.646819879559231
0.633901712941366
0.628014807286113
0.655002840268888
0.646273900584795
0.65041151324056
0.655674280110985
0.650059646040567
0.655401259818056
0.659033133094514
0.657860513392201
0.658347837060227
0.651139163390389
0.647883728790449
0.646716611998371
0.660423545581954
0.653285697321363
0.638419835924466
0.647494016789986
0.65524109388508
0.643992455133316
0.646836054007916
0.65362714873824
0.646266690652038
0.655697784301907
0.649298783278525
0.652019475556061
0.648743802818602
0.641330277238202
0.641946918729141
0.647423708109715
0.648856150507494
0.647122645269703
0.646176294251887
0.645095957282466
0.647221370162752
0.660519728192596
0.65863839604175
0.645195091826747
0.650786889892864
0.63983956421811
0.64836124768085
0.659583923064606
0.656757590350688
0.660300002470211
0.65332507986431
0.652959483967111
0.648035795954808
0.655468861608789
0.644146604848215
0.647189414633227
0.651055251762048
0.644075941546868
0.646811248112769
0.644971028210808
0.650816471624829
0.645778173482526
0.649155499565063
0.652067294761093
0.644552616068693
0.64701301959705
0.656437342021848
0.644677916371506
0.621182822345335
0.640322964532966
0.640541745876889
0.630757607411439
0.630658164167737
0.627140894919361
0.614328539590133
0.627530158013776
0.632427148652251
0.625135273553779
0.610717621856008
0.611182341247265
0.598974156777693
0.598879027640993
0.59965234026606
0.597533761744966
0.594721297688142
0.582799301092139
0.577104887100089
0.584246173987939
0.569443232213915
0.558814310760668
0.559029360245164
0.567144757286069
0.5613632911471
0.55581830123792
0.547300252391278
0.552019701867047
0.542446219503646
0.538936739834238
0.527662856442604
0.530701839450134
0.530045566777566
0.526831116282156
0.524615670364171
0.534312095682447
0.516198073399763
0.510768627198804
0.512978080993122
0.5127772380619
0.50483977920875
0.499141372571248
0.500324103185737
0.501174759347891
0.491364289756333
0.489527576132628
0.48815060945311
0.491361081650491
0.482903370833834
0.490728239187069
0.475619489399545
0.469646065159846
0.473402440984149
0.478153232750771
0.477026600375749
0.47045172799175
0.461186895397966
0.468274850037664
0.463790970563563
0.458727726928845
0.44811021910007
0.452519837647756
0.450238859333587
0.449929049930716
0.449542711313915
0.453069190471585
0.445253668474073
0.449981133077978
0.447659309499755
0.443788530709598
0.440261717531375
0.43718240879625
0.428077642863442
0.435005154085596
0.435651287699145
0.432900663051149
0.426018487251343
0.435172392610442
0.427117324904008
0.429925487493833
0.425579615965005
0.427315840491896
0.420880536336655
0.415635546072263
0.414749366821615
0.418557247612328
0.423158034436788
0.423459540823979
0.412650701440265
0.41169651818628
0.40332231552207
0.414928373043341
0.408135842493681
0.410907538201616
0.399707818819836
0.399795300264876
0.405279184927062
0.404303325497276
0.399129511829785
0.402270153962688
0.403118973393509
0.400302932945945
0.393042351033678
0.398793648157552
0.391586820055838
0.400804477683715
0.391951737001103
0.394001395490773
0.389656342370018
0.3924604958045
0.384271970786561
0.38539120326422
0.377300975824574
0.382584751131656
0.382424678984226
0.391754152666814
0.380372970572452
0.384545146557266
0.384275126983131
0.383194919854221
0.381879584049346
0.387927359113388
0.379916114190088
0.386329383083759
0.377000517452701
0.376937317979076
0.369488099414707
0.377138108941319
0.373143962420555
0.377328546817359
0.366222332467862
0.370069474415644
0.366614468424658
0.368353983385076
0.367802005267558
0.377887174444747
0.363996743825073
0.365056606366822
0.364264291762475
0.368957888670978
0.361031266399988
0.364933436215298
0.360566978691737
0.368067329722617
0.361802174091122
0.36058555325289
0.3555132711138
0.362068551521778
0.3652817166045
0.365716551634875
0.35728219783567
0.359249186329414
0.359049207001418
0.363665325007108
0.351179915675949
0.359678246688709
0.353165778187872
0.36021706431569
0.354279630210943
0.356345813979437
0.361337846355219
0.363315836810779
0.349121313684889
0.348527907231277
0.352400149937448
0.361939927132743
0.35062856826417
0.357431126507987
0.352775465911557
0.355978797423076
0.348739567461765
0.351765757167262
0.341612576216978
0.352296106821104
0.347791921053168
0.350420818957988
0.342557423957782
0.344646029025855
0.340549635384275
0.348235349727003
0.341557527018323
0.341814614501144
0.337216874259789
0.346817825215941
0.34337563165274
0.342745055084704
0.334918531594495
0.339050469782057
0.332168209865681
0.341738464932124
0.334310801803237
0.340648038412867
0.336850591684834
0.334902776327286
0.335834793708699
0.338749143419085
0.330887016269933
0.336171208730589
0.33169965152085
0.334158213336973
0.323398652999746
0.328412340421671
0.325660124314847
0.327817017982766
0.326602453118242
0.326180941268688
0.322113535960746
0.324184443986811
0.323649964162612
0.331683103172689
0.316238767521672
0.323337412090818
0.331399867746192
0.327378645867495
0.317916389802149
0.327421489513428
0.319268818112649
0.321729620985289
0.318614175205927
0.320544424091425
0.315190266050041
0.313608939324084
0.306165426681212
0.31846616632353
0.310390018574487
0.31102714832322
0.311753558827188
0.315544598084225
0.304266869247086
0.310659950946461
0.309422663926188
0.313540406009953
0.307427270895154
0.308820098456747
0.302607409919471
0.305517569551031
0.30399971247411
0.302659067873333
0.293914253863243
0.301798325244563
0.299502306652911
0.302772626653103
0.293335057057136
0.297516465190032
0.291913991553807
0.29472948006809
0.293039372456614
0.298481358884773
0.288623145839219
0.297687260528465
0.286311014861849
0.289208333733364
0.288935895430408
0.286514899041326
0.280228551592386
0.287024605565082
0.282920655056976
0.282843803656367
0.279044688407409
0.285004119344666
0.27638469911602
0.280773004952773
0.274109543573143
0.277835123424662
0.274655106134135
0.277990674768188
0.271587427838931
0.278020212940985
0.274388143468568
0.2761090278365
0.268054325824845
0.273364833028977
0.266182657550555
0.275275562722156
0.269564839106668
0.272032332127219
0.26436510918799
0.275453846925728
0.267747887130017
0.267025028993338
0.266280701457184
0.26790244699014
0.262077411583695
0.264542379284417
0.265202815450916
0.265950686982782
0.261410823587202
0.26572004295969
0.258117491042495
0.263675473319608
0.256202408220138
0.265972613433137
0.260227277850875
0.261625000433899
0.256374611071686
0.258274059440395
0.251349889852274
0.256904333189423
0.255006167116971
0.259047596110394
0.254290715371024
0.256230033762602
0.250870891720473
0.255520659211175
0.249668639356395
0.256805287875266
0.248318744188577
0.255289881717935
0.248775683934767
0.246020521293657
0.247187505397352
0.250939892721525
0.244242939450011
0.249894792014949
0.243626825663922
0.248113286137566
0.238403053872031
0.246261814706162
0.242907293774295
0.247270902892789
0.241812092539429
0.24786969859813
0.24352605115147
0.244539721634533
0.238820568698762
0.245182034409902
0.239238619563773
0.242933327802055
0.239899302546551
0.243761117442214
0.240627130380097
0.244721199262316
0.237112674813604
0.23935277232526
0.234031579954019
0.239499640153402
0.231905684174093
0.238550500982157
0.231172707772677
0.237592269844318
0.232828674706015
0.241166808905141
0.23733558768563
0.237583171510811
0.23313274712768
0.236574389836131
0.23440570350133
0.239285266339636
0.232547149976698
0.236094614505847
0.229765269095214
0.238623092350936
0.230927925607556
0.235087257104558
0.230922448417416
0.23460876172921
0.228213810119061
0.229270894723
0.230393717342632
0.23107780074133
0.225123651156242
0.230716990067567
0.223688572197276
0.230592291300941
0.224564865522125
0.227175547297464
0.225324166155106
0.229529281993654
0.224064131328845
0.230319558993976
0.22657522301158
0.226934094777567
0.220447403009351
0.227036201199422
0.223517488466301
0.223993991122357
0.22351416423861
0.226641265018196
0.220705369151202
0.225916308873255
0.215730624161023
0.223210799757106
0.21804702647244
0.223042040740807
0.216633245576447
0.222520389307611
0.218595936941838
0.215822048049817
0.215540141006733
0.221880363930818
0.213045861277334
0.220253764296489
0.218435543950054
0.22083150992355
0.215663656522246
0.216082772360254
0.216116425263363
0.218203475133509
0.216006411132166
0.217292212427068
0.214830397168375
0.220442424872235
0.213175439958919
0.216042874198153
0.212493034774386
0.217097471903407
0.208880952260176
0.214872549018111
0.209617168038806
0.214952526849341
0.209959967687181
0.211638286157209
0.209117399749015
0.215366896277514
0.208898128591408
0.211853579570198
0.207281988515909
0.210368425931059
0.202217523697883
0.210689353393141
0.205865996747889
0.208942307224801
0.201885837480016
0.212891931243142
0.205005524426708
0.208177192225478
0.19850150725963
0.206551113781379
0.195978730453738
0.204230432023849
0.200857013827237
0.200330463962096
0.201017484595323
0.200155403544471
0.198119726296744
0.199552562723098
0.202369352887777
0.201991753168959
0.195712331897557
0.199302070021035
0.193615105789807
0.200454051566452
0.192253683398667
0.195450603651353
0.193987938862868
0.193940011455557
0.191663950974549
0.195231982009289
0.195038938458399
0.193912594378169
0.192957992112458
0.192516236387533
0.188461765427138
0.195689866131144
0.192015698431111
0.194784532850402
0.185928572839553
0.191541418053706
0.181808792995231
0.189533338010788
0.1834094630647
0.191218441678261
0.185627868074045
0.189288110770358
0.18325594935278
0.190145292767851
0.182514704825769
0.185169785020745
0.180446378406743
0.188588726328679
0.185967164054818
0.184598687107724
0.181212479043606
0.188291208881151
0.179157681948682
0.180513017599852
0.177322848981474
0.182303892375556
0.180809535852412
0.180576084251021
0.1770217731087
0.182494609107664
0.174478209161871
0.177348710234691
0.171513822220504
0.179953395549562
0.174647185633957
0.180005693804435
0.172884986125863
0.176592936625084
0.173199004431618
0.174213345065521
0.171647846103793
0.175996462395263
0.166988484000993
0.172633690468331
0.165315160366223
0.169649308750607
0.166152478031776
0.169925159150338
0.165289039130652
0.171041639323751
0.169924353010251
0.168456449643365
0.163279356187488
0.170710586241035
0.166382958610633
0.168895786000842
0.162547710653224
0.16807753064497
0.166483778968792
0.16828068213133
0.160849939446584
0.165131732044909
0.162583169859339
0.166051849915678
0.160024884014038
0.164991948050423
0.161523049563752
0.166719871887923
0.160351162208824
0.165982180682195
0.160827993821964
0.16361455110701
0.156606708530751
0.163573463489705
0.159122356290345
0.163652578244202
0.160002537760978
0.166076736296351
0.159463678323475
0.164798812047095
0.164917295254271
0.166997411378801
0.161289985086031
0.162138419104609
0.163941082371759
0.166053509518938
0.158341384893698
0.166489045047714
0.15581764267204
0.161235490417564
0.161073531430984
0.160767746372018
0.152312868963636
0.159488482200425
0.151736589301192
0.160563872523796
0.149860989434489
0.152633886213434
0.154983482532948
0.161084447673519
0.151399706624782
0.15760028533495
0.150604015630859
0.154333236568633
0.144306720636768
0.172579703882182
0.149256047453141
0.15801222575831
0.151656197742451
0.156110944358651
0.148422487052451
0.153682152232655
0.147559761494022
0.154964047947771
0.146013065112329
0.149756277278337
0.151619222337261
0.148969765829579
0.150290761413136
0.151820304952624
0.147837979420832
0.142901314139411
0.148682094817879
0.147950870486531
0.148600413331347
0.145398227471609
0.147910240605057
0.146668855847838
0.153267995491715
0.141510622743187
0.155806256044975
0.138872943202369
0.159934509542843
0.141292957702006
0.16678706039802
0.134653572243872
0.168388848631972
0.134883724267716
0.170556702142721
0.123240478287914
0.175487241825805
0.125745133907722
0.178067148412316
0.120195305741102
0.179348062420412
0.123383071508631
0.17442390994964
0.126938581767354
0.167898002585575
0.139088258209402
0.156358581026158
0.139644408877676
0.143311741652727
0.151376634251595
0.138987449457048
0.158208211651829
0.134508095490176
0.154412046153947
0.135628963184794
0.155519594136882
0.142554779608719
0.144743330860636
0.145643514457674
0.140414212913002
0.146367306585026
0.140264815229296
0.141804739941694
0.142263579774742
0.14027253175036
0.145920977424295
0.136915486721528
0.143153372417283
0.136412103193054
0.142673424504616
0.140129018059963
0.137900110852524
0.138658029160775
0.138118161550881
0.137633378094837
0.137547493292128
0.137307428301489
0.142565367733733
0.139001758601894
0.140451632245141
0.136682849384671
0.137859806663382
0.137224565634229
0.139446506516112
0.136641650138338
0.140766243342785
0.136291992468214
0.13929754302036
0.134704285470326
0.141205652434023
0.134574568422238
0.139447307904469
0.138189416777505
0.14205777767092
0.138918280649863
0.141969958621328
0.137690694531474
0.140698309424182
0.135551696053857
0.138396990777778
0.13604283324264
0.137724737953419
0.140045899115747
0.140907387346449
0.141378709573902
0.13940187033898
0.135661616661459
0.136664408231792
0.134569396029482
0.140750486998792
0.134835679781704
0.14063111780054
0.13555612927253
0.141232209986161
0.134357389100828
0.136986960660463
0.13356326043489
0.138519357051073
0.135699243692877
0.138039086592797
0.135700810045027
0.140457807452579
0.135237280454404
0.139001602462757
0.136555690655445
0.138295979939759
0.134662828559262
0.134991983634014
0.133447665925133
0.136772775393804
0.136054812063795
0.138159333169778
0.135556305233376
0.13890629074505
0.131801467441286
0.136637198372812
0.139094803872689
0.13799975872623
0.13523352302888
0.140827589282379
0.136227230661312
0.139240900822104
0.13653308529654
0.140094316918109
0.134962886294916
0.140111446219866
0.137498629834368
0.137345440504914
0.133226908506652
0.139197186742956
0.137565383740886
0.136913192537842
0.134203154510462
0.139097741142933
0.135023680066566
0.139658004750227
0.137220253170679
0.137716301606109
0.1376543117264
0.140070280829571
0.138572645775819
0.141515386890611
0.138730937657809
0.140474464265151
0.136113513967211
0.141234952822019
0.13772901595875
0.142346067805541
0.136650484410991
0.137952485731153
0.137288785328349
0.141396852183048
0.135683266608296
0.145003450266005
0.137001688169076
0.140608413022354
0.138864074377579
0.140233460576477
0.13967861871466
0.138144272675559
0.136728661213513
0.140745936410665
0.139290333955456
0.139142423296397
0.135506066841642
0.140342609019598
0.137991013154572
0.137161315027804
0.139433367690557
0.140322994802286
0.136631626045015
0.139891476137895
0.137562796444197
0.140911741269093
0.137450656163699
0.140773531968062
0.140033480094701
0.141175813431193
0.142401201508084
0.142000904738269
0.137004642465127
0.140123602116792
0.138522342335895
0.143852502383299
0.142438833480929
0.141920628018339
0.139879337183082
0.142688301637682
0.139270922778938
0.143419837978775
0.142722536016562
0.144813691931804
0.141756757321928
0.144708083990868
0.14178673770538
0.142163805719141
0.14109527553766
0.146073992783319
0.141613256878597
0.144249252416638
0.141891620482809
0.146610190582414
0.141541402714505
0.146090735961729
0.142299630890094
0.144433561137155
0.140854020057397
0.145247352737396
0.140795583777515
0.14482605429094
0.141758061542118
0.144961292327595
0.142198604317763
0.143590777707347
0.140905958855427
0.141608766296437
0.138978570816341
0.14305704608092
0.143110136691501
0.142420241908018
0.140183729287978
0.143602058531112
0.13893761141286
0.139397280355511
0.138401306438595
0.14344265671658
0.136052453756097
0.140449967833602
0.137233940485673
0.140219821726471
0.135356418339255
0.1415090282586
0.135809094253417
0.135435357793351
0.137735840501618
0.141297398196661
0.136581329841637
0.136059510810153
0.134265555873941
0.13666200754073
0.138089702529132
0.136843984252754
0.137700440990666
0.136854880132516
0.135619276792055
0.137819332604286
0.135953742552107
0.136231667454706
0.134095451839079
0.136040608456305
0.133590452797146
0.137912811898679
0.132702642017289
0.137905410401571
0.1354440996744
0.135719502767749
0.132184156993851
0.136511883992145
0.136454861560229
0.135086701184172
0.135162243586248
0.136314640446817
0.132537454455433
0.136750873909523
0.131208318050059
0.132739764240567
0.135102550954669
0.133762265618223
0.131122683322936
0.134063651963452
0.130541855436503
0.133806223516123
0.131932749343402
0.134712057451449
0.133991385494531
0.133270860893099
0.129092110998454
0.130682057813934
0.130526973122978
0.133467462526429
0.12894095450589
0.131845825341144
0.134937383370153
0.135668792276149
0.13122524307998
0.133582686767763
0.132041729900745
0.133962109202863
0.13229386898479
0.131510326656904
0.128544495342195
0.130130649560471
0.129499925168121
0.130305637265136
0.130042847991524
0.136412957201722
0.131555453917915
0.129440488723286
0.131323446743158
0.130976705805661
0.12688769903715
0.130497695643463
0.130137362452694
0.129593281557559
0.127807565740344
0.129272203880939
0.129130992582771
0.13139523521228
0.125154064304326
0.126555004047858
0.126389746992599
0.128858087255002
0.129219602083476
0.125847524643106
0.129668808981496
0.129229604822334
0.128218434359133
0.127207358319976
0.128612279215983
0.131943753267878
0.125941751572018
0.129468282354343
0.125702018230649
0.127807562461921
0.126506999971646
0.12480989293508
0.121178756336118
0.125374577590445
0.126787869834243
0.128162314816092
0.12640874595795
0.123692268847061
0.121547980190876
0.123482778405734
0.123161323320558
0.12621464570778
0.121378860707155
0.125013590176717
0.119686313584524
0.124905993426499
0.120923308156914
0.121184999368411
0.120993313322604
0.121837695202313
0.120465847129736
0.12180518272344
0.118779082078535
0.122893527793877
0.118755968197592
0.119090968740446
0.118014014175086
0.118211159970632
0.115180655251017
0.117072559393307
0.113339014535769
0.117061636991862
0.113374138194245
0.117785639373642
0.115698215487487
0.116924771262256
0.115311196085673
0.117482033292136
0.112959836121698
0.116003157468868
0.116081319090976
0.113168639693131
0.111929703596715
0.114973950638163
0.111189380769734
0.112624255519463
0.114044072223287
0.113875880096868
0.1103341378369
0.118152429104126
0.12026527957081
0.112301832545278
0.110962679788365
0.114189031687147
0.113753588496838
0.112367615138966
0.111264584430821
0.109035485241654
0.111232441179125
0.112515404374926
0.109426622589904
0.110304835957934
0.108114479017505
0.110309065683198
0.112177199129848
0.108938761735583
0.108483880347716
0.110507502980045
0.107627877057256
0.10769141195487
0.108157736101145
0.108950966392688
0.107088841930265
0.106106344062829
0.106670928984505
0.107232580721146
0.115188079976446
0.111018803721852
0.10837466243401
0.108501757531901
0.106625751485713
0.108238408801239
0.105183510423288
0.107080393040869
0.10593906486617
0.107962699928168
0.105159538375569
0.1038857399225
0.103830417245033
0.107590430445038
0.104053972375333
0.105545669579057
0.106434183131574
0.102658826084046
0.103115831714725
0.104430304870527
0.101353870125323
0.10330211894738
0.101936196112076
0.104405101091754
0.103419821333729
0.103336010413917
0.104936377831734
0.117457747390359
0.101735148136399
0.103944284659461
0.0989590554523805
0.104058803738298
0.101116380811808
0.101698995954987
0.0995228057280483
0.100683379341367
0.103656414095072
0.10556460893373
0.100224200503648
0.103861687434594
0.101301114745022
0.10144819968957
0.0987578221316563
0.0987883035562916
0.0966570468467796
0.101185554367638
0.0979638200695124
0.10419083145903
0.112324612853977
0.104474403237074
0.097565900134943
0.1043525450107
0.0931297801740352
0.116475065711448
0.103471856237028
0.0993429994059984
0.0997215449325755
0.0971307392474437
0.100407385875515
0.100706464620945
0.0978274787944105
0.10019898046693
0.103467746032838
0.0981924895422867
0.100200517746057
0.0974213258051772
0.0983460386658788
0.0974865957402973
0.0981578338615539
0.100155669569162
0.0979854422123604
0.0991007587744775
0.0961959593553542
0.0953590212159432
0.0966340611754566
0.0983030929152634
0.093130826627636
0.0974278706566884
0.103156851650799
0.0956760935461854
0.0992409315614521
0.097699327985374
0.0952241470720211
0.101200585471911
0.113265508227734
0.0969263882840056
0.0992778295026557
0.0951797965628892
0.0968150957189394
0.0984543564351405
0.0953721749805162
0.0946906208979247
0.0923951583402154
0.0963958654588484
0.0971224291919669
0.0933642635912799
0.0955069375565356
0.0957066618906532
0.0946614866125114
0.0951857567502936
0.0959920276232746
0.0958328824985075
0.0922839295939347
0.0957218296860754
0.0906836942076518
0.104561089484439
0.110231564501878
0.103288955627085
0.105518214596739
0.0981277187118512
0.0959543729037464
0.0918937332139334
0.0948549072069951
0.0942393955270578
0.0968753920948024
0.0942526001282095
0.0970849379274044
0.0965795287725219
0.0953563972218321
0.0910957040870507
0.0938231398545677
0.0917215975327651
0.0962704630977039
0.0897955442488778
0.0917257090266728
0.0890558253384963
0.0953717678778758
0.0902700432811941
0.10088058265796
0.0963314817190127
0.0955740382461895
0.0873691603424593
0.113390477872636
0.11692020575854
0.0915859958360845
0.100257771773877
0.0890687932802025
0.0940327365219271
0.0913230388665057
0.0964671126272362
0.100332228743439
0.09711431663045
0.0946968713605634
0.0958634196068229
0.0956322197724594
0.0976298870847244
0.092899835162308
0.105323897916413
0.11819955867074
0.0995266746655368
0.0968043670762866
0.0933325389461197
0.0998005296045128
0.119069544979257
0.0961755349991517
0.0985888910995331
0.0982024324268994
0.0953921765463452
0.0943707844790787
0.093604562767287
0.0930976142109558
0.0969826046080971
0.0993671597602111
0.0959456399638206
0.0947514093882671
0.0943031672120535
0.0981177814298434
0.0974547890309499
0.102581315340523
0.104712906697162
0.0933306590492028
0.0987738107880361
0.0993905322445842
0.0950213789590916
0.0978862082827958
0.0967171218444209
0.0954648537151295
0.103339395267598
0.112172792840876
0.100778298932417
0.10898593770563
0.111670302835647
0.0995828991928692
0.102673758750226
0.107367697898063
0.105648293919795
0.0963872531579084
0.100762805758062
0.131569196511132
0.114237055729769
0.118752669686552
0.100245902417756
0.104119956872554
0.100037143260528
0.100716129067531
0.101999071796046
0.121715848614924
0.105848727142761
0.10138846782037
0.0995589383491456
0.105496599895777
0.11585060943656
0.104627934073571
0.108753570047866
0.103704775695406
0.106373326900863
0.115281929385162
0.108384035477129
0.0995114478177098
0.126420136836701
0.126391489664325
0.127848180950877
0.11496885489817
0.106427389964064
0.131745977503445
0.114551788169759
0.109598919460342
0.108617076934105
0.109933064825189
0.109239354705938
0.11464912944257
0.138089563883271
0.113790756907767
0.109940136110096
0.117863466091694
0.112901700078793
0.130548001862721
0.122748108175434
0.11231442217187
0.116369662277305
0.116581485217399
0.116006231080256
0.15699658307045
0.138907749814767
0.128064879517551
0.147548092332946
0.133619779186872
0.135941397680326
0.12695711479427
0.132216237895258
0.137208914316164
0.145833681496267
0.131807635428395
0.123954779826597
0.140527103624292
0.15350809425146
0.131946390849358
0.142474743674284
0.133769242666204
0.129497687688246
0.168148835690209
0.190077095787099
0.168374141278003
0.151489350910271
0.148037683479406
0.169673520140854
0.155096434162022
0.14684730237391
0.152281393760395
0.152585466523384
0.153267925943425
0.153364145443767
0.163062431177771
0.160303425247193
0.159308844928434
0.158685200530906
0.158859797551417
0.18530818606817
0.205001616466754
0.203243963167277
0.172829406900104
0.189775562493546
0.196757631460845
0.18416186415257
0.17816607434829
0.175934086920916
0.188159087688171
0.186670398657786
0.184804201965625
0.186166263186896
0.201719039410057
0.209348174076845
0.211728476065363
0.220743200526268
0.204846939996916
0.207343588972153
0.208405784347841
0.320537584082029
0.247939385434475
0.230464864846943
0.235296041252066
0.233236296933316
0.301509676317583
0.260118001104766
0.253843479275081
0.266357792212562
0.259749740860375
0.27252580379775
0.280841933897031
0.288133937507189
0.300864702295722
0.297491594011267
0.296213100259238
0.312784545392933
0.381550125518771
0.38357230687804
0.352221408719705
0.341371668973331
0.368464125018051
0.367006240622161
0.358285223056593
0.376881915777799
0.376789841417794
0.392337061947651
0.454958447528511
0.413853112648596
0.412299810345493
0.419737227944885
0.450081051206659
0.438028582323552
0.477397620542995
0.483819858838237
0.460475798893821
0.477151782456581
0.489205212917254
0.499943292550439
0.496360372883564
0.522705080250212
0.534044944170149
0.523679021873062
0.531796817346479
0.537902408050282
0.541959253881266
0.550784984587237
0.561138642430886
0.560075558228413
0.587689991863624
0.615401766804552
0.748045157638596
0.619858782159839
0.582683643905023
0.58356217759897
0.598548775430487
0.625196676387569
0.617046927623202
0.660317546055082
0.642080402753533
0.596155284884878
0.603553069389346
0.605544724046471
0.609816987729221
0.608456568989447
0.615229147225484
0.605720162878241
0.629248814787815
0.617095381659664
0.665092070380615
0.697259155692861
0.638787761377155
0.622862822908332
0.621721225836956
0.619490205634492
0.618611970895969
0.609388060489448
0.622349112188024
0.638798693860641
0.628961864417362
0.615731286437973
0.595824403820179
0.618144415294274
0.618507468526411
0.585004858005754
0.588238318842599
0.575769301347993
0.577253160216708
0.550766283485069
0.576998810981911
0.618188415460719
0.570101370664748
0.554147627485397
0.549624150001945
0.539708158314722
0.544507877633696
0.541982752952491
0.54648687895715
0.54004837367674
0.536574126204301
0.539962808533593
0.538876252428489
0.527435575266954
0.532549115533824
0.534552388657234
0.532612426985241
0.535066321963891
0.532770267495837
0.528801988679263
0.538745342726428
0.5311779507886
0.533577293008497
0.533862643149397
0.539521664987779
0.537559578157262
0.530696034683192
0.53906661944819
0.534934975621544
0.530368207323501
0.535576289107955
0.526485973788736
0.540966508056596
0.537325245935205
0.534084373933567
0.537100591852721
0.534158639194919
0.530935289332609
0.525344815145216
0.526696053598283
0.531042891349707
0.527473117848414
0.52646789258555
0.509043188003952
0.581789796768599
0.547439500569575
0.520610266553907
0.51432684127214
0.522094484333108
0.506390358630968
0.505465154819713
0.553824369294717
0.531590280502667
0.503310426525264
0.489277476880257
0.483033636364582
0.508063254451739
0.504004100372563
0.486748855079134
0.487147722777192
0.472286768505069
0.502978858714179
0.529194142474736
0.586921726049184
0.572714160809608
0.491996440807652
0.457822743379102
0.481712370011939
0.489954928645834
0.463251270245007
0.461060383068332
0.445558894058036
0.488830437003829
0.468801126171149
0.451331179470048
0.445212205349986
0.437506902972559
0.462183514726796
0.482570858475973
0.442812024009771
0.451851254209129
0.459189028128389
0.446393485395355
0.471576620691442
0.498869827152475
0.440231468225833
0.418803649362136
0.418137108316955
0.409697084466633
0.415933362362841
0.445905264675483
0.415040892333693
0.415016879349796
0.398616720000345
0.393859095027219
0.391966784711439
0.410138128158212
0.383708729123169
0.399544177451448
0.411347221712972
0.378819174207601
0.385696982120115
0.392537937795726
0.41938143305391
0.423054014451328
0.382347959046775
0.359030273633433
0.407575923545853
0.395561676917626
0.372164416647393
0.377710091523509
0.346828437107974
0.359510859783749
0.36684937916449
0.347927657948184
0.358236592003387
0.368760304432398
0.368173831452044
0.391534746366465
0.405865890366787
0.38305485989324
0.342623882286514
0.330983174524868
0.325844904255161
0.328469053990379
0.330401118863722
0.321041718133094
0.366928688861785
0.337664702041059
0.324218472679468
0.35762702499463
0.339478019115001
0.329494902442864
0.333615064807016
0.330944880406157
0.335720068659604
0.36221620335613
0.385019665828828
0.353457814755443
0.363004296111462
0.372776016240288
0.363515193108309
0.363090414257557
0.366554374222388
0.364365686483611
0.374145761988941
0.390069175941248
0.387572484659059
0.392068610908053
0.399159184698673
0.393609414188235
0.436829856979661
0.438034284238782
0.422045658352126
0.467085423530663
0.450986206599321
0.50029695026495
0.471637854058452
0.466477352929213
0.467731742273921
0.478909479511235
0.487520381311328
0.483383249265795
0.50825748570696
0.534293716964899
0.504478530081295
0.515790855124006
0.512015580625618
0.53133645735684
0.521901468763099
0.561644893154238
0.535324684691909
0.628444199208272
0.588653010816985
0.581297638691691
0.564567017848062
0.560723079250743
0.56113744866773
0.565662937389055
0.564936247747094
0.562010211298636
0.574999687345368
0.594732961386447
0.567822558456297
0.580451719175149
0.580121379649355
0.58590988261628
0.581684164305708
0.587562807282022
0.602227024170112
0.606925247797854
0.60133164527038
0.606071261354185
0.610677053332499
0.696270953828733
0.625788288163606
0.635065737233213
0.626019356955999
0.648299029590204
0.631927230716741
0.629725985970902
0.664888796832387
0.669418403085455
0.655881768000245
0.659617611481373
0.660949044185053
0.666335889811826
0.672232832598831
0.710101118415086
0.675573881226671
0.703828808983804
0.66934830966301
0.745308252766377
0.726304778298008
0.722761112842473
0.715889547722722
0.711306093667327
0.704369890935441
0.712682142005361
0.701500071887546
0.724535142538936
0.715337479383237
0.725306983434817
0.731587642507102
0.724182401035168
0.715987868664787
0.720160027743847
0.718102805375538
0.757537446082791
0.727318117752923
0.714594285229581
0.719956171318414
0.726327685168286
0.715811414538573
0.745941441641826
0.748206473521743
0.735070067030454
0.722861587663098
0.729044906550257
0.745697430916711
0.744039651157837
0.720439489616231
0.726749701689644
0.711926143992282
0.72941675673713
0.712949827989409
0.739696633497471
0.752297022901193
0.745337245478247
0.738956919493163
0.73585008255992
0.747761337759914
0.741586551592708
0.748874872218578
0.75681411235408
0.749243897343447
0.748784340998413
0.758202159311557
0.763931614795608
0.753804517188779
0.776226393895496
0.78362085886997
0.77447581171262
0.752349254651931
0.761567809006894
0.745096885849857
0.749167583019124
0.750446234115022
0.746561473700746
0.738044612217697
0.752385713207453
0.712907424158166
0.725684494654247
0.753716197316305
0.726101480127784
0.722168701358463
0.701269227793022
0.702703974886065
0.702827804014948
0.687720607458198
0.688480568574722
0.691805932015811
0.690016251871478
0.677593615719372
0.67920530659939
0.673985850047213
0.667142622394117
0.675266112437584
0.677927831308956
0.666927284684243
0.676925959229219
0.661901664979195
0.659403944253365
0.655129861349615
0.662877754330962
0.661139405044263
0.654624776532877
0.670846683154141
0.674191447491199
0.674741175747514
0.666218805671723
0.671191244771213
0.664258640702533
0.657708975586857
0.658790259517093
0.654615346108421
0.656741423982496
0.653572349218809
0.66103311841632
0.65123629201927
0.659748205257579
0.653375441286647
0.657826509933136
0.658359304562846
0.65331541579702
0.643589181481933
0.65422863251813
0.652684598473107
0.651577088904544
0.646971927388968
0.661850996960448
0.648742570254938
0.66165208419945
0.66014735647713
0.652363165522712
0.652415821835105
0.652754045502695
0.660637693377237
0.656944211013122
0.657130157462494
0.653722461513968
0.648741505048382
0.655015916882701
0.64853622595697
0.64401511423682
0.641484008267939
0.651978064951584
0.642967090511568
0.638901760871243
0.638068534942323
0.643166917677419
0.635052732703315
0.628166377434528
0.620240727804772
0.616450476434773
0.608566208571221
0.609833245987108
0.598017318480755
0.601692577029916
0.591294188478991
0.596017362766421
0.581454660703954
0.587285017028046
0.58556959132994
0.57857536841051
0.574279516464303
0.575847003488527
0.578820992348109
0.573076913344584
0.571212354807119
0.572828322381891
0.569880966400444
0.579522495720141
0.563210139579699
0.571256780923056
0.566924236302223
0.572273849357156
0.565654232609761
0.577183542603437
0.572225448527541
0.57745030017924
0.575137892718123
0.581056895143367
0.582037826018737
0.586039564805956
0.589462999480998
0.585390102633098
0.591660379017159
0.588892863163841
0.594373467889748
0.589808612701636
0.597364415798498
0.599545601341121
0.59588475397707
0.603954797128434
0.601504954623084
0.603199464352846
0.59441803404154
0.603735680875346
0.600259471712776
0.604838575197798
0.601237716188352
0.601189065536839
0.600789853247627
0.600084166665443
0.59139341806019
0.593111470158866
0.59034588405093
0.592065654985247
0.592893474737086
0.588312078266193
0.580442663106706
0.587716282532178
0.573546488629838
0.581886169442764
0.583497074132485
0.582711594431578
0.577358818492189
0.566385666925867
0.566207979574164
0.567273152455214
0.568582996227103
0.566415709534695
0.56193562135277
0.562742256688205
0.5592634369967
0.56064944177507
0.557231544970892
0.556195800181843
0.549470656334218
0.555467305294474
0.554128748181602
0.550832751555915
0.546679803379247
0.546808327077575
0.541673534875989
0.541708159399228
0.537243600417024
0.535760294863914
0.532091116568313
0.529128777841697
0.517453359169962
0.519223548624567
0.515250980810721
0.515819209957156
0.509901167900083
0.506008202229785
0.499097749191049
0.496700267021061
0.496895258973929
0.490649380288992
0.489205698358782
0.490150558465843
0.488694494467528
0.484397481860348
0.48545837181802
0.481903287577043
0.48308129681259
0.478607836179183
0.477709676491269
0.472685700028124
0.467590378366984
0.467726250596751
0.461578081139296
0.459946345728703
0.450488904156655
0.45015905067765
0.443362114137315
0.43553269280839
0.43678755976025
0.427731658893609
0.422055072640056
0.42136787199126
0.418795022864989
0.420607976215008
0.420582688538158
0.423246522329107
0.431299242107447
0.435632825406155
0.444615226259444
0.456084983116084
0.469170290200805
0.484468958721697
0.495288057678807
0.510927682710918
0.537034335599687
0.551950260960496
0.5663683305279
0.586387414580238
0.600945176403476
0.623559326729957
0.638254411932078
0.65732880100629
0.677405080167412
0.695015424737945
0.716127602820239
0.73368333880655
0.746409639732969
0.761191503330132
0.777966570942065
0.787325840835855
0.805302523708163
0.819972757911969
0.836459774603633
0.850009791043908
0.856800299462057
0.873700863704691
0.872080743918032
0.87882112672163
0.8913448029451
0.894046830803253
0.904089500035833
0.904974014236562
0.905678025456938
0.911089383639993
0.900345906386178
0.910909894621031
0.912468618500727
0.914732600397947
0.90390151646817
0.925101521389383
0.921023350247041
0.931875691075369
0.916208676419023
0.912792367787203
0.93078210803114
0.930068593796609
0.929022484451936
0.943116030876094
0.953745390508272
0.970636611098729
0.967564147651242
0.964318536300861
0.984629324887513
0.986071779484608
0.99450911618854
1.00738985285308
1.02106002583183
1.04268392670952
1.04060035485084
1.05141344043852
1.06743522900943
1.10201823133603
1.0998703856364
1.10707067746527
1.1177099053667
1.14884072949111
1.13385798172107
1.15564405917764
1.14304051240988
1.14650469455631
1.14823518010104
1.14990184684311
1.14100001089442
1.15423602685063
1.12637876205468
1.13465036912195
1.12976452639267
1.12233325693624
1.13190580532167
1.12549415891913
1.1303692133366
1.14293368222674
1.15530411473485
1.16854571104645
1.20517255668508
1.19459954432781
1.20050070738719
1.23075177349904
1.25319020285154
1.25753486083722
1.28116668526117
1.30349530082713
1.2897891205636
1.32661577654629
1.37345697071326
1.39455970219997
1.36508680845591
1.39610590345426
1.41630615705006
1.42908535824443
1.4416670061708
1.51116247443837
1.49857168495357
1.52169640741466
1.62367656544792
1.60863223130147
1.60258817113345
1.60430005453489
1.6968400859083
1.64158583219958
1.71915104252695
1.68060911011276
1.7350761821317
1.8149604443067
1.71184745624102
1.80359433921409
1.97342329548161
1.8337800045674
1.7841474874103
1.78108746001916
1.80899913494184
1.90558642665657
1.88608578460828
1.80219818861592
1.75531506874388
1.82726237623707
1.83516154851921
1.89785339435013
1.86563735710794
1.77504929164905
1.78467444503891
1.80810893777907
1.84563785876258
1.86445834428457
1.95049646777108
1.86880713522058
1.85787674254377
1.99705156502057
1.99664194673822
1.91679017310162
1.97248430667039
1.84860773352169
2.06741809371405
2.06968860568911
2.19228600550663
2.05403394704624
2.13810585880741
2.06383993052718
2.11087545374434
2.1553816093989
2.19573914558571
2.04173782031983
2.29945075107234
2.06642534771427
2.0937516970917
2.23842877407606
2.25794308423429
2.02536173181413
2.38821872289776
2.26734604627494
2.39489143876033
2.00055456790133
2.27085815512477
1.99374252661266
2.32223767428264
2.34768886896961
2.58954563671184
1.98537147338248
2.26543708783283
2.31766036078822
2.32552381593677
2.21221112726912
2.52029748751032
2.13026782762197
2.26275612254172
2.04482683093456
2.32877215539766
2.01102671603629
2.07309021612837
1.98807488825273
2.246005258008
2.03309005254942
2.06999909218528
2.00910169492927
2.14752266347411
1.82225521340586
1.99915182021919
1.79075096830435
1.83300253377524
1.8378832535368
1.70454344048435
1.64969080629518
1.78923608178791
1.64096980857832
1.74309370476176
1.64859196445408
1.68429467914931
1.72552822449507
1.62480821189442
1.57556409587387
1.72284316634671
1.57785057034117
1.61709574070003
1.64177408396203
1.67158745543494
1.56532061417243
1.5705944581022
1.49674399959152
1.5922898579919
1.45378232774823
1.51907919430511
1.48164608616119
1.40752877600654
1.39510712333113
1.38904925792326
1.30697788580264
1.31869148299523
1.22259721386131
1.20991908513863
1.15706952569455
1.13536414222963
1.08583560365155
1.07815179328033
1.02699466663308
0.99752135961079
0.9654571814124
0.92377694841528
0.876746401810491
0.8821846184001
0.821090581477737
0.807490430482714
0.782508005841185
0.768482086374528
0.747103669437515
0.739295799084616
0.71030637993771
0.70483727802015
0.706163666571455
0.689835267723951
0.685436115110497
0.684904941754465
0.688859200366224
0.676884986031906
0.669560430713123
0.683350855096254
0.664967769620118
0.685070084858061
0.681101182383904
0.679251683640476
0.674436678157815
0.682714145837423
0.665442367605377
0.671281663637479
0.655913783630419
0.659142397765135
0.65455929037261
0.654733906783864
0.644154681242582
0.648779167248313
0.629502706032845
0.628807969948899
0.626068433434669
0.622622122902773
0.62085664803236
0.626468359627078
0.613489837214771
0.619450633283702
0.615202531629604
0.618176274338029
0.615341606654972
0.638280820216415
0.634578704184491
0.62578074944371
0.635836898723619
0.640335190674381
0.638354131414105
0.648979873197218
0.640898946839781
0.650745195149135
0.647864881218523
0.651584536096617
0.648926053885571
0.667742800198106
0.658119416646739
0.663001434762159
0.668089003186204
0.653097475401377
0.659535790655823
0.671045394774332
0.657613134505108
0.654194249261109
0.660603818626901
0.669964156304283
0.672001173298226
0.68576505614451
0.68082223974826
0.703446256939944
0.719628432270242
0.727424564528884
0.728873996380662
0.75551029092858
0.77352695273765
0.796810704153304
0.790026032684087
0.828288778085387
0.825752828042108
0.84359408399772
0.823065902680029
0.858093870053162
0.824843808511676
0.850024652395632
0.807014211687444
0.811121526116654
0.807110801902006
0.79825931220776
0.781675269624593
0.77964206719248
0.77152125910812
0.776273334892838
0.777054883983746
0.783323016060729
0.770794061444209
0.759723683684599
0.762308510515235
0.780913721033404
0.74197637363295
0.784759540685216
0.767731655212765
0.765720529433078
0.743962713935568
0.745088539311986
0.755228130590363
0.745183569369662
0.713869265226397
0.736454418157586
0.720886705577779
0.725008682518098
0.721341176159682
0.727279225926825
0.714836226384403
0.698195727614477
0.682853069217891
0.712661249144393
0.701022057880094
0.712379068810347
0.700036059965127
0.693943031471435
0.67912228971036
0.681113473557357
0.681376520759038
0.691173867166251
0.680249393073137
0.686712358111349
0.671800885019017
0.66932839354693
0.655011663743572
0.671234406963044
0.662937614574748
0.659504768178422
0.657803751100689
0.660961355701702
0.63439500788141
0.660248899220618
0.623035770581461
0.631736091131997
0.639484217910017
0.636243946360295
0.620906426121648
0.626670236433598
0.621891754234729
0.640309790822347
0.601970914260509
0.631879122669035
0.600011531393868
0.624137714321427
0.591623994642398
0.640421641540311
0.620379902037969
0.622148892490383
0.610207826272989
0.628698299649585
0.616498058949194
0.640317106139549
0.640958699704615
0.635184385524334
0.610445408304419
0.625549139748386
0.616181215099309
0.629975558561259
0.602089262454387
0.628497126439603
0.641130662068926
0.66166377221194
0.646707292215332
0.638885246108905
0.619768271756839
0.644321865151461
0.655344657080133
0.684206515018824
0.660066610128104
0.685956175612195
0.669806975155562
0.689409105951486
0.687583104135352
0.707401797411624
0.69081168381723
0.716269503168921
0.709601565214332
0.734277016707985
0.736809772776835
0.778500231659808
0.775257450875278
0.852715499148212
0.792796025958351
0.871576199305364
0.882058336877973
0.896221201016384
0.898185260816688
0.916874049747024
0.957479387647051
0.940526403579117
0.9439045630982
0.939508030210846
0.971939507476387
1.03625319985604
1.00293411179636
1.02749505834772
0.968909837377212
1.02931887687963
0.919942663934978
0.913265173276904
0.968845942684014
1.01184669841484
0.981055201361456
1.05930051091163
0.941584101815213
0.965229350730006
0.98287652538785
1.07924090918366
1.06114094733328
0.963135931874894
0.946059882443095
0.999006777256733
0.887512909824626
1.01163892674389
1.00372097040107
0.954678418491597
0.931919617721015
0.968316738870455
0.889143795388503
0.938817164449753
0.896222780072423
0.944173062084382
0.917538176569665
0.931077465744369
0.822101758042002
0.91012712483729
0.895745531439323
0.898914922917757
0.903365980202047
0.93916825480182
0.84541918514624
0.954480988406046
0.942774804138259
0.85764006100093
0.904100544550035
0.984572277634287
0.874432932404047
0.908429321095867
0.8731026415542
1.01941051552259
0.920553917475779
0.966358689755722
0.900244438375228
0.862642462892148
0.943162471516015
0.996459382327828
0.82440378476962
0.91816146592144
1.01343323815388
0.920581331521075
0.940718488594388
1.03246354330743
0.905988908841314
1.07294130663221
0.879986689749256
1.02447346009937
1.03128490671953
1.00796271590821
0.987909162877997
1.21769565081129
0.994096388986643
0.986814764812743
1.02749334461942
1.03218651727202
0.903631309565911
1.07235367671449
1.09535704315657
1.14343695283233
0.949670941229963
1.13758595143346
1.14608375673002
1.09488882310313
1.11279692577328
1.01572257380829
1.12987224405278
1.27903158589727
1.12913595879292
1.1843953231388
1.09146106697476
1.35993596634714
1.40927611215454
1.30223819416051
1.07923691366594
1.86157519554756
1.30072983624048
1.23570426992024
1.21556477755503
2.69697769547594
1.22972455444717
1.1402855721453
1.25721134470177
1.67342346587349
1.01160760971629
1.33712183533884
1.17387845575059
1.23165750012437
1.04943559712008
1.16755587837242
1.07170476792308
1.93646771268023
1.15789784299478
1.17832311314604
1.24025316174611
1.63268093693556
1.22946227284534
1.17040125779326
1.10182865979009
1.15105074156988
1.0758635170538
1.70588822322775
1.08845252752301
0.955678082949186
1.21725000002418
1.38851059586476
0.983187483322015
1.08624255522475
1.04924072742888
5
1.85493990008583
5
5
0.982718042377065
0.947556829603323
5
0.841133437917283
5
1.01157380982372
1.12983124302256
0.967624531993631
1.24957765427906
1.32999368444741
5
1.14478163160682
1.44250551494884
5
5
1.0696470368698
