3596
4000.36533379555
650.420452594757
1
2
2
0.0645522713175722
0.0695340722972447
0.0666311703958821
0.0628246199148751
0.0779901933467766
0.0646264501239084
0.0760312151875713
0.0707622923744989
0.0749457500116895
0.0682962158222916
0.0789386597121953
0.0748487609418053
0.0616687365347594
0.0729351816345827
0.0710465369590554
0.0700953655628007
0.0667784445537153
0.0664362823299117
0.0711230125671146
0.0635487599636283
0.0711790821238962
0.0634846726062718
0.0684490806822942
0.0685242554835234
0.0698158556555793
0.0731694662189012
0.0698005789860036
0.0602974142412571
0.0750490543004739
0.0721631132787662
0.0696001402966728
0.0715511320397035
0.0786158516289789
0.0630268124307032
0.0638583588068164
0.0754152601890619
0.0711802815625793
0.0772827327050821
0.0723089683607226
0.0726788584943415
0.0750195347940984
0.071873375452126
0.0749676080806415
0.0750372504400879
0.0702736089344806
0.0709913034564514
0.0741365324973869
0.0727372177423625
0.0652449083271742
0.0724048244094489
0.0766476357766398
0.0608185041475604
0.0818852332909026
0.0817626782326662
0.0718260956689812
0.0889591215717095
0.0659886842811867
0.0671431867522698
0.0734746863044859
0.0579565372507231
0.0796328369553932
0.0800525263333474
0.0674878766300855
0.0711684933379372
0.0664575693033471
0.054555960779605
0.067692144955172
0.0609372366740728
0.0669323628634765
0.0644513467134827
0.0603127300567291
0.0838108640579541
0.0714642625233058
0.0613683307205173
0.0815555327254471
0.0680404024106534
0.0699905966627867
0.0591269350424834
0.0542602746211732
0.0866630302489422
0.0844114255573092
0.0732100905025801
0.0705800430947372
0.0599575722694424
0.0736978666443657
0.0802202642736667
0.0567306787699525
0.0744792351610621
0.0765156131710722
0.0709595135793765
0.0754698744697963
0.0665157752550694
0.0629429699509037
0.0619514550703352
0.0618929254732572
0.0604560498061721
0.0671930524992655
0.0737589862520971
0.0641252340386481
0.0717420333675287
0.0637279334567064
0.0776910166542812
0.0876154503935572
0.0520199018931757
0.107929331885334
0.0717761699371883
0.0551878170218034
0.10294247196612
0.0719867696824681
0.0637672247581663
0.0685172410345203
0.0700102519814658
0.0705197531236963
0.0724645657341424
0.051658879591565
0.0772696876854005
0.0924597278560869
0.0733861536217063
0.0654927759962706
0.0663681452414881
0.0418936214362438
0.0909755118261179
0.0921045222658749
0.0675979233456034
0.0684030482793593
0.066949396665434
0.050892678827875
0.0918989780583711
0.0969596302862577
0.0628626022594046
0.0580728628698593
0.066345150112134
0.054518339986382
0.060696659834618
0.0891928599795868
0.0663232299819223
0.0712837291352881
0.0414097185804263
0.0793300235412578
0.105679443065382
0.0783668615182813
0.0635024528302833
0.0524818600521835
0.0603051320804402
0.0904908880579325
0.0678398996223264
0.059477515401213
0.0847801861294877
0.0805356680551135
0.0666532809829379
0.060720094155525
0.0538689983963909
0.0711160945580941
0.0708759500182495
0.0182009243790434
0.0931520751752323
0.107369358173159
0.0878207230639456
0.117288497057565
0.0646078310132284
0.0703289498355443
0.0651794340067437
0.0691594428780426
0.0636511410063135
0.0684872989367098
0.0524718208163956
0.0642190321475188
0.0815236560490274
0.0586603453633229
0.0604151349520905
0.0879795798748442
0.0664113481612573
0.0431769638328245
0.113319944874888
0.0730379122078119
0.05055658411963
0.0904021419389142
0.0770294180674934
0.0492208644017859
0.0705332002774388
0.0894204612002009
0.0563280485647462
0.0623832730257465
0.0545378521086399
0.0589502884777766
0.0712081054173261
0.0644186308605116
0.0683424453638798
0.0566446361637372
0.0383749790039918
0.0625668557546125
0.112731225893831
0.0942592812559646
0.0667604583033125
0.0673056242661141
0.0289387778849105
0.0928026313923495
0.0994488935784837
0.0625567067093177
0.0574124995710921
0.059947515599175
0.0606372321751895
0.0593671059576029
0.0549647455213707
0.046741738672321
0.0289865524343502
0.098254066228662
0.0717613110470745
0.0631496122066005
0.0609899474066815
0.0544888164808278
0.0515010614976903
0.110269471342584
0.083281003662242
0.0733307154543594
0.0603800373628513
0.0486702336260186
0.0636978584513348
0.0782628386116513
0.0611861225336214
0.0632650261689029
0.0587331766817015
0.0641237096479328
0.0612356809191906
0.0574175037031466
0.0564325149484461
0.0562094563674339
0.0624617939782094
0.0677345666316894
0.0580039692233796
0.0741801364322344
0.0614257815911521
0.055307888259891
0.0592214438830536
0.0558553090927751
0.0693998798616069
0.0838654484454079
0.0634147720085941
0.0655789775055004
0.0510608178575401
0.0587052163672786
0.0577523118544966
0.0560929415626352
0.0579116507877234
0.0593852414199489
0.0507014948514189
0.0928610975927756
0.0704524729880824
0.0707064153402367
0.0444503938842225
0.083120850162376
0.0715018640406463
0.0654981896186094
0.0575765157926764
0.0656246277804757
0.0575853381100714
0.0550687005560213
0.0870920094530487
0.0623258388090592
0.0569848133969003
0.0712430167020593
0.0728650460060303
0.061139504406121
0.05547455481864
0.0378499371965941
0.137251544451833
0.0614652384117106
0.0441566394949157
0.111711201778499
0.0741551537175115
0.0673595603280374
0.0584849354903754
0.0246941407373488
0.175376037806378
0.117810015930704
0.0605161548397187
0.0594984926778321
0.0914829892273677
0.063798830544418
0.0739315989136331
0.0595150430637856
0.0716219960058795
0.0707969955911439
0.0861606860695763
0.111573107793728
0.0513303932308622
0.0886225198341461
0.0902300145137417
0.0726809551059573
0.0686811530606798
0.0580096024219029
0.0503247653565023
0.0838304657255086
0.0757410544488631
0.0831817580653216
0.0735977371751439
0.0633282310553053
0.0915663474011607
0.0813281655649812
0.0611413375436552
0.0706249803113496
0.0721831196855418
0.0614651319827663
0.0631998445001719
0.0583910487219258
0.0734532714672987
0.0603293731002349
0.0547098506466907
0.114112671358789
0.0720392942820998
0.0726222215599353
0.0967205535790837
0.0848917188243152
0.0632090048352694
0.0663294090034013
0.0676101704058238
0.0661322069125919
0.0644981330161231
0.0563723259590722
0.0977607766490478
0.0832518737823931
0.074415317286421
0.0716792483573096
0.0679148044502929
0.0667470608950929
0.0708267824501539
0.0667095784615768
0.0775937378810632
0.070874133833725
0.0604590702319796
0.0866692527614695
0.103818148075402
0.0479157633670349
0.124497153800642
0.104500183177945
0.074985273198321
0.0794462548938881
0.0768181849590039
0.0801791805614336
0.0769781483291972
0.0827739395374655
0.0759622069396684
0.0793423508360643
0.0941277898943886
0.0835659172339296
0.0791966029491315
0.0726700413806641
0.130015716398849
0.158146222566722
0.103130832202417
0.0924474740867288
0.0620272054827208
0.119306052318734
0.105678726049106
0.108461669679539
0.110079418944489
0.0784502809103439
0.0975946262458315
0.0892016335509832
0.101451017469833
0.0893823793130806
0.0983469861823843
0.0872799894694758
0.100970711412316
0.106823035510088
0.108487373842185
0.0865813032624279
0.106133776885475
0.134893573648292
0.115395962867782
0.103216827243757
0.107118038290474
0.102759495664345
0.130591400395743
0.127846714826284
0.170643556431918
0.139783964823131
0.136141488445085
0.155136422649702
0.121530057363587
0.126798471458635
0.121732038813994
0.129977949636926
0.129119548072063
0.131753435474505
0.126663913818975
0.131923331072905
0.130558379704917
0.143230703988244
0.140200302285461
0.138327862257082
0.137747913052518
0.157172936066207
0.157549356046525
0.1509830327971
0.141504361210291
0.175299984874197
0.181148576727744
0.194023810846853
0.160226745701118
0.160003000060721
0.160927213374961
0.163699502513676
0.173196602295306
0.164257535667405
0.17675256773734
0.171100492366954
0.206019890648407
0.189958592624
0.189267502623594
0.192801710104659
0.179474939412033
0.207371570681751
0.197634309311756
0.199988249030692
0.219294453843126
0.203059419175708
0.179972178546082
0.222923273973751
0.229085452006647
0.195393137274649
0.229756816400469
0.204868025533031
0.216332884907361
0.214591020885922
0.223260378094519
0.207269037768279
0.246396873419475
0.223584234316074
0.240456179966574
0.236497650295861
0.236105730944552
0.230181825845065
0.255503727346899
0.238277667341506
0.24159892152207
0.255998053663461
0.243856853062358
0.25342748939947
0.251648017171494
0.287978817398933
0.272768432743438
0.278573552714423
0.291617829040159
0.270157484197643
0.278575674591429
0.266288207506765
0.267281693185211
0.278818788110094
0.298942131346512
0.286976794436645
0.29303383891925
0.288860174969778
0.30124389592509
0.305478092334928
0.315140179686151
0.294467197084657
0.322577395423827
0.301275698097031
0.31978355076291
0.329840769847274
0.326761439002838
0.34254820681575
0.366900659202343
0.354907136863602
0.370605784062498
0.345160927921083
0.346507548602241
0.351927204530782
0.352311968382634
0.343814158164745
0.381085663835566
0.354398876420552
0.372750464619175
0.362604851741975
0.388275308060006
0.36300852872698
0.374430671663582
0.373956561586966
0.389685380613933
0.400700572948404
0.418289373992
0.405172171654858
0.420772274924592
0.404401374959803
0.451108187024153
0.414593567145655
0.438532762716523
0.432318263558435
0.444168383754526
0.431749779116732
0.445164828635254
0.447802617128614
0.439402872414135
0.446633702308997
0.456970172505214
0.446408694176569
0.488818990230727
0.475158260546778
0.48271860170763
0.454618948141906
0.471748121971034
0.494630588014912
0.51263482130342
0.492348753444142
0.503692929020047
0.517700228473
0.530774218400532
0.517083860190187
0.53310257896344
0.536705785881705
0.523622979892055
0.529663761676991
0.55222216861872
0.520453480036984
0.554817168760101
0.550859818765944
0.564101663573502
0.56862036334654
0.575365722222467
0.545121913859727
0.548652816016868
0.56846720990993
0.583299925975859
0.570158838709657
0.605796869010977
0.582180593891164
0.611952082701712
0.603968532816169
0.587863552977866
0.604468366135448
0.641391875685315
0.620352823924078
0.662581301932899
0.660127066522737
0.643193646533986
0.623993210710813
0.688379307874836
0.630268536367175
0.644144430299263
0.64101322910436
0.671886788941971
0.677051102843486
0.673883498809631
0.679871815520519
0.692376882758181
0.674673705468678
0.698853034277333
0.667172029230161
0.726442604390141
0.711419196515143
0.743017392775131
0.712011304773084
0.729276447144796
0.726356534448462
0.763882500268231
0.723362719535293
0.734158120436214
0.750131546025948
0.737329242450192
0.772857899232226
0.783955677023952
0.724330419034394
0.766651297739947
0.752134168389666
0.762999006333764
0.743526229936481
0.805212655463757
0.776005748016965
0.84394337708419
0.763837243279074
0.811699953727207
0.798216592975781
0.848446526385244
0.850081164504125
0.857876668605785
0.853891334515898
0.858454360956084
0.827601319992266
0.867904259789846
0.841361966386455
0.877577966405012
0.866083229064505
0.84260761967205
0.847254531261017
0.891614245040781
0.862396375190553
0.929359058468625
0.881482683608613
0.857936872379574
0.90163351413042
0.91675071949771
0.914214161779187
0.980491932195772
0.908972790023078
0.938443622116566
0.904281371892445
0.917672164957412
0.936212004449875
0.928968905814623
0.8970478710294
0.963642692776752
0.972760385409966
0.930555409709244
0.861598618964647
0.935644833278357
0.934046579458543
1.06655974025923
0.974051036847908
0.986092848089059
0.956787968934499
1.01753800521692
0.971505428087274
1.05423301492457
0.983608638134028
0.985685856033471
1.01509793750895
1.13303680530256
1.06537259879778
1.02326248899212
0.979714231016335
1.09373491389581
0.996110519566321
1.05004885950359
0.966727562317626
1.04681405546651
1.01636722671493
1.11255472903868
1.03933767464423
1.05273388360504
1.0337079962575
1.06927650685518
1.01346992134033
1.12122229673721
1.11429227092437
1.1182609307309
1.07210405420394
1.09349747283417
1.0205498325943
1.08948756449727
1.05098543668483
1.09634854122767
1.05396809913913
1.07844532328842
1.15371895354838
1.14357293588702
1.09343928513451
1.13528704115942
1.17102759238755
1.14432822574942
1.1015375803345
1.16074670971607
1.10025576207011
1.20380527618275
1.13268121233457
1.19721432682809
1.12641578034606
1.2155576648933
1.17692233620398
1.09806730984824
1.14557081150919
1.41180466025531
1.12701899251421
1.22345485456437
1.13212593883725
1.17383504184632
1.14085908345832
1.17971130608128
1.16886347711915
1.19532664222076
1.12182223035348
1.19699259903497
1.27134536145114
1.28603381415649
1.13693867350147
1.12783875316214
1.2042330675077
1.19695607020093
1.10065667724216
1.30031444319736
1.25097170738719
1.19761400565772
1.22064154331886
1.25410634230328
1.23346734430428
1.22734044049899
1.24807463325145
1.18487460610756
1.24768113403585
1.28795023439361
1.22536440851828
1.21447779593184
1.15564789606243
1.31118679492593
1.19145952541614
1.16840308330913
1.22423971777144
1.26190025155785
1.19915277168828
1.26704762612988
1.2425475540772
1.19068699409311
1.19975158160827
1.36621943441767
1.18846840661555
1.25164886705133
1.26235064127118
1.28424608716076
1.18853529481376
1.27152211831277
1.20646961498336
1.29201502084975
1.19292511756411
1.30474179325588
1.31431531374656
1.22887907858131
1.17971906781987
1.2811334248502
1.23664834189498
1.29668858559368
1.20771867315439
1.22025490047899
1.27187863246553
1.22091123420653
1.23004846925746
1.30047816406611
1.19539240941124
1.22732036533783
1.24915068780211
1.37201359407835
1.2375119786041
1.24441000515843
1.2147063902889
1.3405008799039
1.26132083259584
1.24545075337039
1.26203701770012
1.25944567494012
1.255868317403
1.27082237849743
1.29878519793093
1.26127885452069
1.19305616668209
1.22483573299399
1.19982502098734
1.21206596508656
1.26086233721022
1.24914088693855
1.24531200206215
1.23317294698535
1.21699794591458
1.25777945122857
1.26115609677028
1.24623910001489
1.276452814153
1.32664533601123
1.27940264809337
1.24813611367433
1.17014200410141
1.26058978888637
1.26850688874674
1.34936159994473
1.19679173832141
1.24008433529611
1.20318517771412
1.28251767776252
1.28082520723357
1.22380493285203
1.21003809491516
1.24960054614119
1.2750892989747
1.28471153632242
1.25630961762182
1.32593020251626
1.32207500745627
1.21204940009517
1.25720385274975
1.22240449449068
1.17464804723486
1.23407150030546
1.15556635428291
1.21442602219406
1.25543302433893
1.21838962851385
1.30453921237152
1.30683685511307
1.24085093099183
1.24926710817364
1.24278932186026
1.23748106710971
1.23019706625135
1.22346666985233
1.13105845425209
1.15985920547492
1.18564277566679
1.21621160252027
1.23237723718652
1.1545549445612
1.11013240298453
1.22986512623614
1.21425202426175
1.20650972426705
1.19996458822902
1.20622135034082
1.24072443897227
1.20603391939943
1.15545097633076
1.20635288553753
1.21147527882582
1.18819572122293
1.15534845482553
1.14519457809949
1.10781942947677
1.21663924472674
1.1349101373876
1.11981108940447
1.13722603300061
1.12097399380637
1.15511089969539
1.18375152590613
1.18075473966583
1.15823115590703
1.14077303700342
1.16657464175672
1.14407289216388
1.1288165468363
1.14029477323673
1.1646000713011
1.18800554243677
1.13820911373291
1.10168624196486
1.09270736802078
1.10796262949209
1.13561507421748
1.10633734949641
1.1077103508784
1.10746132738111
1.15203392195003
1.09604675649812
1.07661388357956
1.08326335893084
1.14012862122881
1.10602521068223
1.09674728106208
1.08333666309006
1.07327311828254
1.07873010009127
1.1024176449719
1.08124544900098
1.05905384982051
1.04726348273918
1.08883758657193
1.06398773506526
1.02579036446812
1.06706501946268
1.06626030363323
1.03601017822329
1.06342189401515
1.03810845403461
1.05330266361581
1.06347843996032
1.01959198107399
0.99347155936902
1.03948366593093
1.03753657213117
1.00839160147642
1.00422573832298
1.00839512612435
0.974477737229269
0.95638826279225
1.01314232691452
1.00349160523693
1.00529029852768
1.0108731070312
0.9647841752409
0.967991476226311
0.979951883925021
0.958655784149524
0.971296673380421
0.982808178179592
0.993852737830332
0.967526100137741
0.917983149117835
0.963477452294069
0.972990616951555
0.925768606999062
0.929491551837491
0.935266480703652
0.918196232434169
0.942712671562287
0.916958511610583
0.88877662893765
0.912883863248241
0.914751542186188
0.902786088995939
0.917178894472774
0.90481096541228
0.895631289576683
0.891866530545074
0.872915636558113
0.88346135424562
0.883955298753104
0.867434919517789
0.859643002995285
0.84889499850449
0.849818693389739
0.850547436935583
0.83985606188279
0.845354532965284
0.855719566783288
0.848356367514241
0.835397521144543
0.827260313278358
0.826811472130749
0.832861460920958
0.817414377018747
0.828147913328221
0.809130014363658
0.81363357071337
0.835324109931418
0.813691127988019
0.796226723882151
0.800659064403647
0.782851952100788
0.776868551131318
0.776306637954822
0.779314648161366
0.777147068994557
0.776740994455803
0.774387986974096
0.765628969061646
0.774347219869374
0.765507439939959
0.753807729940838
0.762624602721159
0.733067567393475
0.741430205921881
0.739649695884
0.729634145904611
0.739689987021994
0.727692824876606
0.718896120653394
0.72641995821314
0.719081292494896
0.714591975899831
0.708673169896406
0.69642826979106
0.692975046938026
0.724197405657602
0.705977665148469
0.702936314626517
0.696771788018755
0.689568130732773
0.688177602991115
0.690802579147272
0.66921688692252
0.660648167175862
0.669747802589656
0.678392520800311
0.669943841753341
0.665076776186998
0.652262720974984
0.665668151859733
0.654952037090142
0.658811028900862
0.651411075262596
0.633361909265538
0.634762628795862
0.639133383353593
0.630691405439501
0.624084383191264
0.622014057742049
0.636947920934187
0.618077525653273
0.614489453508721
0.604130780575387
0.617194986195323
0.612692745205986
0.597164595764799
0.606713949544102
0.601297725971701
0.593932128261763
0.595169222867814
0.587557877638195
0.591102586536827
0.584015880186681
0.587441617098826
0.573872066870581
0.582749201256123
0.57059614319369
0.567527436420415
0.559755764250159
0.570629954554492
0.565283876803973
0.571110230674971
0.559046824200162
0.558516714101366
0.548087846937164
0.549911010507811
0.54495633003327
0.548510545405596
0.535839217164523
0.527474839280855
0.537720408929256
0.547249263955959
0.534992089678682
0.534547948880415
0.536705601988137
0.535891017981892
0.507778201970332
0.508147219196085
0.513828005030898
0.519368509348767
0.510984067017043
0.505840327223492
0.506508208034318
0.517934024713022
0.495642509092141
0.492445542438742
0.494360409058871
0.499371554750157
0.483204062817084
0.485874492041044
0.477730489793299
0.481216005744654
0.482936063923456
0.484014584516459
0.469993035182324
0.480651861718016
0.471799682429181
0.47601431430787
0.463171386928866
0.463848845089137
0.465840029466024
0.464923861945776
0.457012181020391
0.459380488161373
0.456562391698597
0.462369562187251
0.454744935012789
0.448409755815791
0.439001050834797
0.445453287819894
0.436792666409384
0.439602763151566
0.431434225947274
0.440535960187488
0.441101719909372
0.446183375026118
0.432719532855316
0.428703102742257
0.425687534709666
0.42977082519814
0.419936702014256
0.420812181063445
0.413435567986093
0.422319182895824
0.416184629015472
0.413655159790333
0.407497997537195
0.418863335721996
0.407117146565621
0.413164882581855
0.410546573225094
0.415809455868277
0.403544725475725
0.409991964181847
0.40583695886896
0.406428425701135
0.40081184150612
0.41051118654195
0.397847038862764
0.403061393702793
0.403340445037392
0.403673333708962
0.391876299351419
0.402575308286097
0.394921785058178
0.397118629707564
0.389991128355009
0.390981184550594
0.391218808726874
0.404332412351865
0.391161957599685
0.396283665518691
0.391943015990832
0.410315077350409
0.39305209400794
0.398165949603956
0.400891581470642
0.397040501456591
0.400515771327755
0.404989120304038
0.399631273596003
0.406830098311854
0.404055177120881
0.412874731653946
0.407648941010976
0.405906914114986
0.406411514222626
0.411588726453834
0.411656138412643
0.422541290587587
0.407683792812779
0.423755610520555
0.42523357150619
0.422483763614633
0.419266417723687
0.434731264192788
0.41704708339585
0.42879800438132
0.424463445515621
0.428792473421164
0.427768784686698
0.434525573238811
0.443215228447821
0.440972462209713
0.434764112415358
0.453132384581489
0.450575542356223
0.453943331366537
0.447035518113973
0.458757601618893
0.454216173066157
0.468746966806565
0.46590809131551
0.471005712224399
0.471934829986392
0.478606995082597
0.475570867288893
0.491327445274956
0.481324874535926
0.481127297656969
0.48407212849129
0.495694051284208
0.495855536838868
0.516032455901469
0.503008652421208
0.504014863832245
0.510436866655698
0.523245598156518
0.528557083882912
0.535510743715834
0.523314558658825
0.536162002642377
0.532996077412569
0.531203100170414
0.528154113202589
0.531363021641996
0.52643956822303
0.53691966924714
0.533359934132534
0.528955888454875
0.526388863078132
0.538502062989604
0.535579453286836
0.53544558371623
0.523095211616382
0.550119111845961
0.530584122351726
0.533638174279556
0.521534192294984
0.527994970778914
0.523431153087726
0.53746275233805
0.537985839177283
0.542270617392406
0.527460791570627
0.528467018430661
0.532799119192693
0.533098561556883
0.521751624492224
0.537375719135798
0.538676031757365
0.54166157855606
0.527229688690306
0.545940396720329
0.530876958091015
0.55114130563824
0.534260703166678
0.543702978020545
0.532512080259482
0.527759679032985
0.533598668589364
0.54331955261539
0.5275684592973
0.539316868850913
0.542604061780048
0.546275181324053
0.528637473131865
0.538093439939531
0.530379035291567
0.54815377675731
0.542917326709477
0.552092792452126
0.526674876393387
0.535726362245666
0.544032118359629
0.527028054087801
0.532903376738358
0.546514383258923
0.528065732481035
0.531472755833424
0.517514459222401
0.535808129333039
0.527425354382054
0.529074439282947
0.525632552559578
0.520601832028752
0.519391511452095
0.529554199686514
0.516825475284184
0.513411834844478
0.501040831043904
0.516165513818078
0.501666529963431
0.502950269387497
0.503997219643448
0.494084446673006
0.494295316691922
0.500088661163504
0.489647415607971
0.483524860151984
0.471556853775142
0.489209457599852
0.475552171747331
0.469891117245116
0.459371994376239
0.471501721531683
0.459195658979115
0.453916659792568
0.446583440322415
0.447395154439599
0.446477363860767
0.451964262047402
0.442203290372554
0.448704065895703
0.430740142817652
0.435623339806111
0.429532009159671
0.442046876647775
0.422691058801911
0.426138953575793
0.415660688914375
0.417033967364853
0.410584407657901
0.419925989681737
0.405516104896868
0.417261258458158
0.40315117515936
0.39964125662613
0.400195245283647
0.398995073989227
0.393372321399133
0.397773983248908
0.381353304054937
0.391172439370096
0.381335597364236
0.381961757368277
0.375507957341628
0.388714158556978
0.376208817578329
0.376016862089718
0.372021927410878
0.381505020902014
0.368443338591245
0.377252262694937
0.370490969332332
0.373421400621774
0.366123795249382
0.371960932949172
0.361618505454396
0.363472017248158
0.361163285119557
0.369509664264903
0.357316270715077
0.356173723101345
0.353821959353814
0.354737480495921
0.350198642236082
0.35096733962804
0.345642736350007
0.349133197130234
0.338973596684834
0.349914640389058
0.336209280392972
0.345636090177791
0.333767373812375
0.341205614160716
0.334591033714612
0.33855201761698
0.331460891584945
0.337947904315452
0.327451327971614
0.332671815836699
0.325971666012948
0.329924841113437
0.317563990436487
0.331233810409913
0.326053503720476
0.328716611877514
0.320736883534093
0.329367558478977
0.325052002769177
0.32421237211765
0.317079883868551
0.329456953776194
0.315077812603014
0.322393148552235
0.309194325622629
0.322645436876869
0.316439807571633
0.321540882543579
0.30924262837076
0.317180058059474
0.311131764553437
0.316917978688775
0.311942328332926
0.312323070448921
0.306156123675925
0.314755042706603
0.301817009934451
0.31067089422033
0.303015693060465
0.304925654709987
0.306662147382611
0.307269067235654
0.302322864226807
0.307429494898976
0.297414585988495
0.308366222484122
0.297431849836621
0.304301521116056
0.300592283358576
0.304800016007107
0.290335746973526
0.297520879986759
0.293222837464932
0.293972478306834
0.290590381518935
0.302781727497214
0.294383734554117
0.291788689256479
0.286889841311555
0.295852573672087
0.286612653177267
0.29437924972261
0.289149567079627
0.293607100810166
0.285052727032921
0.290121435322052
0.284618342075467
0.293643430469801
0.28372511085104
0.29376150535508
0.287926419239253
0.293428667551145
0.284956853837822
0.286703135537771
0.280205220557901
0.290365421601803
0.280867254257002
0.287995798459565
0.279975336827051
0.289202447932778
0.286911615227047
0.293395270074205
0.276058065739953
0.279500223251278
0.277369466122055
0.284551775018021
0.27979233418373
0.285324940195898
0.279709601549026
0.285478015982477
0.273376852389021
0.27898062782712
0.269982209992274
0.284580784325994
0.276514914065062
0.282049071984296
0.272043258051
0.278306764935312
0.266878151085465
0.27159639252964
0.269699243723964
0.27090911551755
0.265742827287767
0.27285234355565
0.271888116497541
0.272427171152157
0.265891926796096
0.271554021377183
0.269402806465782
0.269134486517455
0.268281059267023
0.267060105397229
0.261665407637128
0.268752833171334
0.261353400995931
0.264771648225119
0.258004957553625
0.267164353994727
0.262978766040504
0.264000683475897
0.256877109076979
0.264406065505985
0.258012562886611
0.26339983458371
0.256979522352706
0.257351845292707
0.25258543772775
0.256175004873966
0.25792862208016
0.255688427626387
0.24759924915281
0.257839389176366
0.251442728494991
0.254011156147819
0.246726272752264
0.25294883718336
0.253660622703288
0.250892782004976
0.247968367478909
0.250062466811773
0.244492135195097
0.246044663870683
0.242653662633207
0.247885022952898
0.244421041089571
0.248180263816225
0.243092814424221
0.243036881017337
0.240209766604865
0.24280557027043
0.232351694817599
0.236652252875911
0.238206338968386
0.238841969609992
0.232394566849962
0.236089713448908
0.233848003597302
0.236272850573952
0.232791523590607
0.23490430779056
0.229557898754803
0.234397195599087
0.228849493074147
0.231946298035287
0.225853991014492
0.225552238551131
0.222346276739758
0.229196053904436
0.223869912621474
0.226982594282404
0.222356526091166
0.224096718716233
0.219339751327726
0.223928168386959
0.211050804025453
0.219606555113189
0.212529729711469
0.221693058669521
0.212967556130265
0.221061357530843
0.209019181546442
0.217272959289924
0.207834625545037
0.210919919657266
0.209097857313945
0.208956726521715
0.20433849229206
0.212370213152087
0.202849091120691
0.212780862843142
0.19813768286631
0.210289821897371
0.205196229914623
0.209023552823347
0.199812578979979
0.20844402164362
0.198697187181852
0.20511229037388
0.198059045948535
0.203498411665782
0.200938997387059
0.202915550639363
0.198337341570164
0.198905905347165
0.193297431341343
0.204622473134912
0.195450474628292
0.197589411511269
0.191073537726152
0.197065089616559
0.189356192484102
0.192533257438876
0.189045542500373
0.195753021048142
0.187120164841197
0.194523209851689
0.185652104128289
0.19202403949976
0.186435132462417
0.190500761356654
0.185678569883813
0.186407540983631
0.184894144090606
0.189252700308351
0.182849186052513
0.188349940392893
0.182405673113427
0.184696767394016
0.183282688873987
0.187596427594436
0.176777402241601
0.179653510653559
0.176876661386944
0.184711711441879
0.179405643244818
0.179989208538511
0.174904388867855
0.180811805433274
0.177307580196751
0.176746827644959
0.176736196582157
0.179407893270635
0.178387789326254
0.179397564463609
0.172926084795422
0.176643703058171
0.175625977636032
0.180158544803853
0.172857440864206
0.176625341314257
0.173191988652353
0.175920457394717
0.166008247222788
0.171782870349992
0.165438798693382
0.177717546005509
0.168486364051219
0.172983837286232
0.165501295769951
0.174340640936903
0.169533366011648
0.174582532949009
0.168784457549584
0.168697430496856
0.165053785778968
0.171043612605781
0.16758480456825
0.168889069000961
0.165713432117811
0.170291290367517
0.166863390639304
0.169375023286927
0.161673874203272
0.168967923812951
0.166390034165267
0.166301199717628
0.161440578129063
0.164827508257575
0.163555794212521
0.165445574319869
0.162675161774128
0.166195439176293
0.162942870894048
0.161649751119129
0.15897975364004
0.16529140854497
0.158745101238152
0.161152931175553
0.158630996085924
0.162118301563664
0.154794516491751
0.160912190906571
0.157860843457383
0.160594332457449
0.158323316522515
0.160818083357177
0.158047236384891
0.160554197432947
0.156142505707257
0.156733786373264
0.151253881388987
0.154307079987975
0.151565365338115
0.15579017935213
0.15363996642694
0.155389760737416
0.149350587858717
0.152074436699074
0.148402829835338
0.155774823504551
0.150096516163416
0.151082962357218
0.154287744712892
0.152276000742234
0.15136696282355
0.151132711921476
0.152958342856269
0.150886887886505
0.15189739098282
0.156257817087331
0.146504573839021
0.15033308771479
0.150896169343557
0.150458664496399
0.148913370087114
0.149348416582649
0.145577413084599
0.151956692781484
0.14524309569014
0.150469408249691
0.143985791762916
0.148376591675837
0.142659528726968
0.149960630083665
0.142920719473029
0.143204053143678
0.14028739229061
0.145772188100264
0.14177927872274
0.147700851234268
0.144138233866836
0.145400352450409
0.138844855064777
0.141282095904895
0.143037489957433
0.142853752384839
0.138506531765287
0.140396562312453
0.135941697303762
0.13902496898846
0.1369959072762
0.13728119663633
0.134685466006766
0.138892337761194
0.1349350117074
0.135901331643469
0.137248317498003
0.136801417831902
0.130924691226311
0.135501886380574
0.128806581860827
0.129568620658077
0.131694006336099
0.135452037813208
0.131984008548326
0.131201188172936
0.125327827888261
0.131894755663646
0.128034751300381
0.131108686130705
0.127361112054805
0.131634142914731
0.129539323931193
0.128167814135108
0.127398649642422
0.129490860033791
0.123083391315525
0.12596337137801
0.11958897337105
0.126072790964648
0.121866353611915
0.124848820144991
0.12065674844788
0.127983000159797
0.119425510716469
0.121132561698176
0.119516393960917
0.121418876222605
0.115695948686872
0.123926274324365
0.11782140253108
0.121968839946417
0.118854952947674
0.123205787508725
0.116821770731234
0.119336177410673
0.116357910417579
0.119765267539614
0.117972044875545
0.115792572128425
0.112517650644846
0.118350227486575
0.115940035504625
0.116626180655249
0.108183521329808
0.112994009088054
0.113334401222485
0.114145983198612
0.114224629466392
0.113106140737972
0.11016391785892
0.113426692476535
0.110797197758025
0.112430490129764
0.113129097011593
0.110058716863502
0.104769326928214
0.105608889551498
0.105628899303265
0.106588964417531
0.104598433449582
0.10833042861025
0.10505609325327
0.106230381124806
0.100468993757876
0.1042983512553
0.100565358526173
0.106899356204301
0.103076818933489
0.108448247825292
0.106287821655112
0.103946771861714
0.102234547579538
0.103339441131828
0.10211386884005
0.102420316118773
0.100160030809995
0.103937996637651
0.100411938587239
0.10306295044273
0.100014946318674
0.102391481875384
0.0991635150524064
0.102986535407696
0.0985794767684878
0.0993431958636253
0.100446915449686
0.100116611282627
0.0977603447427672
0.0994357973884458
0.0982228806367978
0.100786409557351
0.0993679807899861
0.103890959168983
0.103810845681149
0.103900319185456
0.0993714110136563
0.10153575100929
0.0986430563536617
0.0977804114390489
0.0983027238669685
0.0985940577342649
0.0973608572985845
0.0933652950563559
0.0933293065856358
0.0946813723664833
0.0991444616277408
0.0977700164722782
0.0911331441927135
0.0901077157530091
0.0886232111142905
0.0966829354482104
0.0912935380861152
0.0967777422455422
0.0963046783226389
0.092481588359073
0.0956012312212386
0.103686543668152
0.0959518897121969
0.0960150358209158
0.0905150526769175
0.0934926149108648
0.0948969773279962
0.0912639978386585
0.0971354476180195
0.0947010555850726
0.0925525703995892
0.089202225177776
0.096163926815498
0.0888488384405352
0.0986441548965512
0.0936274390686764
0.0954516759180254
0.0898692770894835
0.101229360358274
0.0941836627438105
0.103926388096626
0.0914859221244163
0.106858712004595
0.0884371226185532
0.103761997302289
0.0870516480564839
0.105716736645925
0.0818345851989588
0.112480407085576
0.0793718589743337
0.113899386550719
0.0757253314243451
0.101630709510158
0.0762660464958279
0.110930996994815
0.0742145077551775
0.106795613610539
0.0739331818588106
0.105384794543558
0.0803130821706157
0.105703753402016
0.0825528383101208
0.0966211612335058
0.0900723055637487
0.0901089035257674
0.0948052009328661
0.0822894330002064
0.0975544121524205
0.0755378476063287
0.102474107092032
0.0753960312550616
0.105224714872524
0.0762705938507886
0.0965987770119862
0.080886166910581
0.0957036646086721
0.0856293184560855
0.0866656648323764
0.0854712688260179
0.0839924054330012
0.0866693811300337
0.087723515359859
0.0869917672797241
0.0884530939161087
0.0833755371855547
0.0874721280594172
0.0778801105802152
0.0869028413217477
0.081077902125709
0.0865542987852543
0.0830891640447614
0.0855941054842846
0.080887660295781
0.0862012219607366
0.0822238811087229
0.0846927448456752
0.0821530091466541
0.0878441826627419
0.0818546503531462
0.0866431220682686
0.0833176719938396
0.0838452001572486
0.0826360321946705
0.0862103216726377
0.0813555230119428
0.0845498934649285
0.0817000355150925
0.084365271947166
0.0833283998128447
0.0863057927582387
0.0799654692842736
0.0857220693183686
0.0832182197390163
0.0869204395051056
0.0819856515234356
0.0848693059602279
0.0844943109588684
0.0852696113107613
0.0820566255380668
0.0846157604284138
0.0785680607642253
0.0833121677598014
0.0849321259462201
0.0852002431723752
0.0831031489562159
0.083970032643285
0.0813558267642396
0.0841220146731049
0.0804832593982217
0.0852246413904652
0.0814437346823996
0.0828371115821636
0.0791461509822975
0.0860990908428054
0.0817024855481734
0.0836931625738192
0.0787507642006291
0.0843949789290564
0.0811036481155232
0.0844769995551562
0.0833302276320851
0.0859080564334849
0.082162316104856
0.085702394760465
0.0807997963908948
0.084586101244843
0.0818297480606966
0.0846278344421472
0.0826476312796084
0.0853755664197528
0.0825498657988211
0.083375724888855
0.0817859648634355
0.0846170079247076
0.0796841662583143
0.0853460606601066
0.0797356221716937
0.0825093510830414
0.0809658112931539
0.0835442760596897
0.0804034102171252
0.0852482879523577
0.0819145652262094
0.0849307298267307
0.0824883435754286
0.0860759522609853
0.0830394596845911
0.0847601180869013
0.0846843220602801
0.0853535052355706
0.0823101758399026
0.0854762254132011
0.0838873048044709
0.0851426184917347
0.0825203135946975
0.0866380760327861
0.0847440901113552
0.086514703383316
0.0857712821372349
0.0859128864056148
0.0820975345598399
0.0867825188106618
0.0875049464924574
0.0866240398527508
0.0854292238534088
0.086833200296517
0.0816684101204233
0.0864377648977657
0.0838417139663875
0.0831210242841015
0.0846995769755361
0.0863888538373929
0.0838531173142141
0.0871292325935868
0.0838878398398378
0.0866945873572606
0.0851648760866415
0.0879482209972737
0.0838338780272365
0.0850817546580653
0.0822662087592414
0.0872500730527251
0.0841532131666033
0.0894783595960876
0.0825712895537894
0.0841763773341641
0.0840255772332316
0.0858673289761257
0.0836190562293622
0.0866728906159439
0.0833700982875115
0.08601260893246
0.0857389957229011
0.089515791590666
0.0856232750691616
0.0882440302666315
0.087578013972319
0.0885138118762237
0.0864330075699898
0.0889157118418057
0.0842053884243584
0.0877216802037022
0.0850500084378012
0.0878797575290076
0.08756124446342
0.0887378896746031
0.0864417785825796
0.0880595573685968
0.0879409819100658
0.0907607668528381
0.0853416340647906
0.0886182233947317
0.0870926121133668
0.0920505092019857
0.0891809059505762
0.0880010544186551
0.0854402920222765
0.0913447831913686
0.0879948249283705
0.088619837207893
0.0888522583832262
0.090799556082347
0.0891774344131606
0.0933978335032724
0.0896600253461186
0.0895154224729716
0.0895151127713073
0.0933095872963476
0.0880503309147047
0.0879533910485561
0.0890768796140465
0.0887896928316557
0.0864308591889364
0.0907191068345965
0.0872161743504844
0.087628662267609
0.084500520306249
0.0876540140365784
0.08580444535995
0.0875021474975472
0.088603268062334
0.0870164956738697
0.0829974790459091
0.0860774856686295
0.083981402822839
0.0864986729138295
0.0849235109652809
0.0873667053623944
0.0861305998826305
0.0866418794826665
0.0839779708812207
0.0875341085518687
0.0857303146717169
0.0845039406340064
0.0838265178583522
0.0857937966070997
0.08475944426613
0.0837105542279442
0.0826149908562844
0.0866883823191488
0.0840389627743227
0.0859140601973017
0.082457099704049
0.0844655749473082
0.081730686918744
0.0842848855580642
0.0827600440801981
0.083437504853149
0.0800727347561866
0.0841442628716786
0.0819032573773291
0.0866379326758183
0.0838013590809241
0.0844727155602524
0.0842625594454092
0.0829541375451898
0.0811538261413649
0.0814988692293308
0.0820799613147923
0.0835054695108192
0.0811616017037642
0.0824434452419783
0.0829701805900806
0.0847654666017304
0.0801232821422019
0.0819842535551319
0.0817943618132136
0.0845252849714712
0.0794134422553574
0.0795244642293311
0.0798192935577663
0.0829037370072213
0.0830989450855331
0.0839164709460321
0.0809313153259287
0.0816649725250864
0.080056915594817
0.0815750405181948
0.0808814968576679
0.0804216551080691
0.0791889128358631
0.0821364670412617
0.0782737205342177
0.0816073853797774
0.0822169738425474
0.0824149786077356
0.0814344858093908
0.0817742180544408
0.0802640129126122
0.0790436963152426
0.0789657694705204
0.0801147003584209
0.0782767304857469
0.0790802357574676
0.0778288895523569
0.0825744826085792
0.0816368396132081
0.0815194665216491
0.0785016601518374
0.0797642754563741
0.0802025170867957
0.0784075017255154
0.0776691594002766
0.07974796348356
0.0778108899745606
0.0804568024526203
0.0796682807481167
0.0787697268478373
0.0755278130587808
0.0786557913060446
0.0788947805915163
0.0782141277875478
0.0751977499190468
0.0780925893398931
0.0804739999141385
0.079535343642342
0.0779862255433704
0.0775504126055685
0.0755490942865092
0.0771951267033929
0.0776084276715449
0.079713170885871
0.0779631475838671
0.0788029555892035
0.0780498811664764
0.0777420049141969
0.0763947747981819
0.0777644387951582
0.0774148625361481
0.0778038152893074
0.0773753151478849
0.0773699906623489
0.0747912787691803
0.0749530340299436
0.0747381371973736
0.074714252866476
0.0728335247057249
0.075954245761937
0.0763299768455652
0.0757678609535138
0.0720126032494281
0.0722037498287898
0.0713469902564373
0.0740913842493499
0.0758615803036991
0.0743228137211918
0.0728792770740744
0.0759557112829809
0.0732746034551167
0.0720231843642323
0.0701447162071958
0.0704670302839389
0.0693817206216895
0.0698671694255306
0.0683175665649309
0.070701420417748
0.0693619053846088
0.0684528422189232
0.069317835718399
0.0716016491767487
0.0703942715846122
0.0693846071024321
0.0667149451120664
0.0669055998538064
0.0678413035118263
0.0679720961318007
0.0666493650115088
0.0686866276983346
0.0666081871582598
0.0689414400769706
0.068341476163262
0.0671057552098585
0.0657253800458836
0.0699246431874276
0.0744048046936215
0.068047909679281
0.0660861704520694
0.069251539305481
0.0682960011762784
0.0672191220549516
0.0686330505505752
0.0653748253073624
0.0653436217428568
0.0680097851927531
0.0666293721605033
0.0663524734864116
0.065677991056116
0.063984884463615
0.067955720805648
0.0660361083447652
0.0636513065185045
0.0670671662131208
0.0647702315079784
0.0642458285691099
0.063614492476487
0.0645337499765762
0.0641145139633722
0.0655701212979763
0.0646660180906629
0.0659945799203509
0.0687595469205403
0.0667391750902403
0.0641085923052882
0.0645223640140932
0.0648718216507221
0.0650269330022351
0.0647602527011561
0.0638168221425642
0.0631894335097865
0.0656898674353257
0.0633985104709219
0.0624706778257569
0.0599468153808631
0.0642321029073135
0.0625350370141859
0.0609233502019717
0.0625172131043645
0.0609173583670047
0.0609766837300948
0.0610196782344183
0.0605413842513799
0.0621173817877388
0.0595371783075552
0.0645668087405541
0.063993365998409
0.0588039358845492
0.0627304069071999
0.0714023619513637
0.062927926584563
0.0620086461965962
0.0580024953909365
0.0621460039885487
0.0621952801453983
0.0579590731548164
0.0605340387175917
0.0614004971096784
0.0620666264812058
0.0637644732668645
0.059724770196574
0.0600273189258153
0.0595883187741207
0.0603488423286257
0.0586939042543528
0.0575544713073199
0.0570386121538229
0.0611960590836645
0.057587381546981
0.062481465521186
0.0714811450896806
0.0624544141275955
0.0607342496589928
0.0650388945045229
0.0579427315365042
0.0704403729739489
0.0670147498839772
0.0602587241593551
0.0581575877361384
0.057251150180467
0.0603301071927064
0.0579209961629271
0.0587598472326707
0.0592147557181102
0.0611915047178638
0.0599621686769395
0.061880390764599
0.0602878019141847
0.0589584336855147
0.06075545750081
0.0579852039636481
0.059427212599999
0.060574561271269
0.0612865420328969
0.0596064455372699
0.0582259361390344
0.059434541773624
0.0592918449762663
0.0573128988517883
0.061668614773906
0.0619826619728762
0.0573221348414535
0.0603527994828005
0.0603860280364999
0.0564710930495815
0.0593923643723279
0.0668391335182013
0.0626404842459361
0.0608176312807979
0.0593200951645352
0.0596411150559671
0.0613604028787991
0.0585210431101275
0.0580964743721193
0.0580357971570406
0.0592808798993646
0.0603722556063324
0.0587526687274773
0.0568264265126752
0.0561474596360098
0.0586514223338809
0.0584888042553984
0.0592657584572937
0.0600030586558829
0.0567230778430237
0.0582006696831907
0.0567103381879425
0.0619006425127597
0.0714955456218945
0.0698415626105942
0.0651940620814428
0.061940709118953
0.0604849561317858
0.058166137461582
0.0590704981335852
0.0608400857720316
0.0604200730173227
0.0589978701941711
0.0591792101183636
0.0597650584651775
0.0579535197517596
0.058071095598715
0.058177357774058
0.0589682945958123
0.0596628083325765
0.0568165055872013
0.0570020478133302
0.0565192129470665
0.0577850931685368
0.0574377329760216
0.0633584550984147
0.0645605018567329
0.0614658392021758
0.0535768370181185
0.0707358291275223
0.0772731960572756
0.0615235365147624
0.0619882862868054
0.0603151703849548
0.0596477220028428
0.0580805052844412
0.0601360041404309
0.0636455229360733
0.0603563756525708
0.059263223908324
0.0585433128467683
0.0620195306415181
0.061625849490178
0.0557713238521449
0.0669854930204212
0.0810710696445947
0.0684383368519495
0.0638009459521203
0.0584160641228
0.0680672382704293
0.0769299057302319
0.0626868586053947
0.0626626657278433
0.0635743916313331
0.0592043579109268
0.0630587713823117
0.061497619084656
0.0614111036150801
0.0642847230813704
0.0625401077488606
0.0618178283759628
0.0601100557889007
0.0589567512755097
0.0627134236757536
0.0639280209379335
0.069876956098714
0.070004081632229
0.063594023752474
0.0682383824082851
0.067016047133072
0.0598669733962553
0.0615541159097214
0.0637586188231388
0.0619311129642542
0.0684194445454551
0.0717499097659035
0.0650463382332127
0.0728501376441254
0.0753182281167279
0.0650100440888896
0.067395098937577
0.0718116534747123
0.0714589408635361
0.0599054556620217
0.0712323881037603
0.0861115815047813
0.0847638853945037
0.0802165584249987
0.0699085439850961
0.0667269420175067
0.0691528614070771
0.0635962243210472
0.069671568526666
0.0815433168778864
0.0708563898110475
0.0704600071015311
0.0622921709025542
0.0713083407546542
0.0786190665714873
0.0723399754678232
0.070456178565736
0.0697192400792873
0.07110278324206
0.0854679733291413
0.0705807705661515
0.0679700288340268
0.0811414251127339
0.0940367729313187
0.0965149259534461
0.0724114034628384
0.0690467905575295
0.0897997684284199
0.0813230988886183
0.0731798783735595
0.0711651716910857
0.0760346678072138
0.0697531479298665
0.0813539138222263
0.0980434950774185
0.0761465396109211
0.0767912034293309
0.0783682559621468
0.072377104938569
0.0878100651747683
0.0827515360760713
0.0764350647274064
0.0798033309023718
0.077811713684643
0.0763553851420933
0.116143906744561
0.0907274648106003
0.0953977161496226
0.0973467672541959
0.0967762884998505
0.0887107684483435
0.088163454805661
0.0835262279264526
0.0976079939311177
0.100679247236745
0.0930732103114852
0.0792812942604168
0.101221648125415
0.10250848135363
0.0942609172782749
0.0945125978718081
0.091307555548859
0.0853569182636839
0.11366241058712
0.130035395124518
0.121681723386148
0.102412342155769
0.105156787855246
0.117318966018869
0.109547228974581
0.100887156732818
0.105473812371301
0.105581408912416
0.105299056660052
0.102582774455663
0.113628655446155
0.110701506804533
0.114904279268545
0.106451426031263
0.115858472822173
0.122743740160309
0.151686312858006
0.142313484298103
0.126040977654296
0.135024573099909
0.13970706743308
0.131064928589541
0.123448098855721
0.122735758031128
0.132126417343312
0.132548962395727
0.132964731245411
0.126820215318815
0.143860957850545
0.138573974852113
0.152921596997401
0.149644838412529
0.148541211548902
0.138778838344904
0.145646377969599
0.227421289941762
0.176773081757107
0.168058794690446
0.157242029493786
0.172977746305535
0.209827698630185
0.182245597873172
0.175795173139769
0.181350352722732
0.179649379463572
0.191648075210565
0.192937264373238
0.200859372841548
0.212824896557019
0.209392218186421
0.201343301383178
0.224157102423898
0.272636693830787
0.27226695824548
0.242725633872625
0.238290950944755
0.249006764707762
0.258997174182816
0.250664891721553
0.264536877257964
0.255357051923616
0.278320112971186
0.31067269385752
0.296661126747825
0.286340016103704
0.29564694612508
0.312751581195259
0.298410253550312
0.340411574253864
0.336463082422349
0.332566272453369
0.322906705981416
0.339516603665719
0.339394780964157
0.344415251674681
0.356415687876122
0.367728349484958
0.35994488930576
0.366435891948281
0.37535197308043
0.376122095277171
0.382372504009452
0.386205169258389
0.385600161182821
0.414883022476349
0.409273096535883
0.504557005360671
0.426449685133151
0.412516671270619
0.392770686990305
0.412796015243419
0.420374162397996
0.412284248132696
0.443381233104315
0.427005433305244
0.411131621661753
0.409160885633853
0.415428381817184
0.408107417345274
0.406207050346444
0.419703256058993
0.405371894164663
0.429866571190709
0.401202077880652
0.457518869405241
0.453249982714775
0.430998458404444
0.412456940354317
0.422228698288344
0.40643917404709
0.412803958108916
0.401617866960113
0.425480569482876
0.417917558000952
0.410291729376445
0.407181745808724
0.397810164577268
0.4194045907942
0.41720716594453
0.401967161710177
0.398312949326894
0.38798853058763
0.398792320555652
0.37970558768961
0.42035693167657
0.404709432422018
0.39770742359646
0.387059202649658
0.375940988207534
0.37885038048362
0.379010902843978
0.376748832657871
0.379381947088615
0.368528099820356
0.38131630270317
0.375091848090386
0.370387532845624
0.372064444451001
0.367331213519679
0.370115186366442
0.370680673874237
0.367463038457881
0.362051006487899
0.362851143686835
0.365537863249132
0.365790090319421
0.368597894304088
0.363062857706433
0.367066767542218
0.367824965823115
0.362586205411438
0.361173085967127
0.36211191556474
0.359136460491757
0.363391388043857
0.362622248031039
0.36248950005669
0.360596768246732
0.355458136059351
0.355070233583259
0.35727530882539
0.355955941654825
0.35196346840216
0.351771212672179
0.353763185770264
0.352823773871588
0.351747546549977
0.336701703014574
0.408323487547498
0.358402680260332
0.348407261565715
0.332452017977566
0.352773148814824
0.335308129056065
0.335300089513298
0.364270720539337
0.342468825123461
0.331324499222407
0.322378144282887
0.313617947820253
0.333215561858228
0.320171742478951
0.31133751779159
0.313969392913641
0.297149801125896
0.344263503100895
0.318454331356411
0.391915571475381
0.352166307454298
0.324413193943045
0.28932446450514
0.314700337905924
0.313831482396006
0.296074186043432
0.292930960367426
0.280216764341466
0.322835181750075
0.28849627786891
0.28666685814405
0.277140265607894
0.280100445503839
0.300548659035643
0.307804896441676
0.281351950114536
0.293868766917652
0.293033063905185
0.284847964688313
0.299103196258913
0.33096493319407
0.283767106116288
0.266341088528426
0.268521869166381
0.258694203378533
0.262105426885474
0.289962502753975
0.254369034177667
0.270311632452616
0.243230405093642
0.253684786385938
0.247015066424239
0.267029260221632
0.242091922650178
0.26020360291403
0.268807260472062
0.241097726181442
0.25782519678396
0.243279176109696
0.274872898247549
0.26389040472533
0.245777878254552
0.224594022728574
0.270054989607046
0.259059966814274
0.239422041972757
0.250267427361974
0.222955231979716
0.234022811305153
0.234798479956411
0.222341204423373
0.242859604655094
0.238047820163741
0.237576532028367
0.256970835165909
0.273711185862194
0.264822332176199
0.231080385888961
0.221715078485324
0.217198936744643
0.220191873362525
0.224078522448638
0.207835897108823
0.261915937932917
0.221879737862023
0.223714859712747
0.256409834311521
0.2329522296906
0.229505297225941
0.230167805878242
0.228261556624459
0.230619053622117
0.251361780874841
0.275530531253411
0.246140417257996
0.264821306804598
0.271678245571684
0.259623933328547
0.26031182569668
0.259556986192979
0.264987194733859
0.269217544473249
0.28766340000044
0.278176514365558
0.280834897079719
0.293770355326291
0.284176776734708
0.321049686319333
0.321730902930737
0.310113706068368
0.352324076346261
0.327983431903067
0.389431392557428
0.34488070935493
0.353094180594094
0.345215617217174
0.355061378811862
0.363464405024726
0.35519748446559
0.381797356247084
0.400286017978315
0.374890971851509
0.388647554715623
0.379650917846979
0.403077409515573
0.389382424978722
0.431040105125786
0.389275692734008
0.478760751557178
0.429182078937501
0.43563004803299
0.417602754803422
0.418010921276974
0.426951978440483
0.426067110079874
0.425430383118115
0.41873127863272
0.434533349137826
0.455750644929125
0.428822996433686
0.445062204571578
0.434186855228096
0.451816216942373
0.444826822356837
0.449643905065474
0.451621286314606
0.453250338974793
0.465018687289203
0.465482140412594
0.458186123028828
0.543366800251635
0.473177247849328
0.495875584697462
0.476850018721408
0.502249143331005
0.479055577640079
0.491828982163988
0.515779562262897
0.505595561313362
0.508954289400522
0.510865487401337
0.509083530831804
0.513637582259202
0.513616938398646
0.540024873533161
0.508612545224145
0.554796020250021
0.50170227497611
0.580883102781948
0.555706270280638
0.558650903402433
0.551740313069413
0.548650683597783
0.543742449797674
0.54863228271966
0.546215465748505
0.553813208770314
0.553995364505384
0.556450113392299
0.557877398262779
0.548253322779946
0.553700607644284
0.550811429580955
0.561285352740279
0.582361489238069
0.557552332162523
0.563177236574837
0.552531377502213
0.558964670027057
0.540618897890965
0.577752384656258
0.569995523792506
0.560139364050627
0.548437904100622
0.563435513610994
0.568213075749451
0.562566462074004
0.549859754342164
0.555044116798595
0.549107004129454
0.570345562330493
0.538419349520988
0.566882188372029
0.575819787214454
0.567567422083147
0.570611036021468
0.569863959913113
0.567670275185942
0.569559791860211
0.571975750505829
0.57932419207123
0.572243662230371
0.585210662012927
0.58503677122575
0.586436072824498
0.588254504174323
0.579741267953403
0.607093607249992
0.606119971761343
0.586425912830168
0.589032130359241
0.568117338170941
0.581251350098723
0.578813115906789
0.580626244722231
0.569096565432677
0.566245367796093
0.555457566415348
0.561753465048188
0.579641849039541
0.544969521290183
0.564929607682794
0.539896611472914
0.537578112835825
0.542537613627094
0.536082210258325
0.527785351253909
0.527439369201857
0.523074872740055
0.519724873698942
0.518163216554052
0.50881626693848
0.517957324109217
0.509762600227209
0.515626144149905
0.504194531281104
0.504886202064793
0.504053074143824
0.50645139077668
0.506826997965346
0.501057478520716
0.510466208098965
0.503976833325366
0.516489706588232
0.508830188726624
0.518763638159011
0.502668247881343
0.510786137180479
0.511363651177532
0.504018853534822
0.503041215877267
0.497530305464667
0.506140121140315
0.499020166060281
0.503718232456079
0.502161864698202
0.504450201611886
0.497048984976579
0.499631658462387
0.494004579870864
0.501886604623355
0.501417436591215
0.500996514340735
0.497596883357895
0.502953348585689
0.489959214811028
0.509166154535447
0.494882959389103
0.504454023962688
0.494799367089236
0.494359031626853
0.5025315521508
0.502231933350138
0.500269961928436
0.502600430455853
0.496993021054262
0.498946151256808
0.493277744876427
0.499313948958995
0.496790399987076
0.499099120629024
0.493113626443249
0.494975886476938
0.489811086082698
0.492843988234148
0.479286829474258
0.484482842342981
0.477595051356725
0.481823136720401
0.468347775254754
0.468820413598493
0.463711414859628
0.462524474716701
0.450161008517993
0.454879012244083
0.44992341771097
0.453436259586613
0.439370560478916
0.440649823349421
0.442532421701814
0.437291660490589
0.4300758855678
0.430183485956325
0.429992297664281
0.436586737739734
0.430770766181847
0.430195433177338
0.423845421412814
0.428837056876346
0.422873640142207
0.429061453761765
0.428099682335969
0.428960822968892
0.42660283355715
0.433676936954624
0.435398858289761
0.437790129544217
0.438129934378339
0.4381263527472
0.435902361819757
0.442902069994061
0.443913554220234
0.44755060662746
0.445011464039292
0.454133859824971
0.448367251815907
0.452578867842128
0.451618376481116
0.456926015717019
0.454059188387558
0.459285658479318
0.459008353931025
0.457206429085096
0.456641338416175
0.455382930996619
0.450057493822162
0.458515691916717
0.450370923732064
0.455075493379546
0.452681300619329
0.452163108693398
0.453722914743478
0.450776880082412
0.447377042535078
0.448443883446609
0.446796925273437
0.444668758013289
0.439326413621502
0.44154231297626
0.436116385204426
0.435699308170688
0.433420082645979
0.441156137567545
0.432830286717279
0.434037554965207
0.427482052616431
0.431482705095732
0.428539683711639
0.430971677081048
0.421663130682133
0.427942678101206
0.422774721012411
0.424064852401874
0.421541589024803
0.422199864897512
0.420222976052501
0.4182788766896
0.415025027867858
0.42058622146684
0.41354858143504
0.415692028846862
0.413535477504613
0.40957523334067
0.406984704249843
0.40824178313713
0.403537024573337
0.402732852207995
0.397020676740894
0.396092853078347
0.390179412139072
0.391179597894707
0.391973759378433
0.384699233043721
0.380754321845592
0.37683196371758
0.374494512290769
0.375267389125104
0.373765165093093
0.374590038734197
0.370715324150948
0.373957846085728
0.368513374643956
0.365228178193294
0.365714619899962
0.36514082740196
0.365048955869933
0.36475909711296
0.361527851240127
0.358719576531545
0.354759583967008
0.353091756739892
0.349532415245384
0.345886767541221
0.338041835533538
0.333380734982419
0.329715299385672
0.328312602150048
0.324850393811748
0.325270695843938
0.322891428412878
0.322398194229497
0.323866694308445
0.331317222277532
0.332378547512897
0.342083197368024
0.347773668178758
0.359655211623301
0.367118767985465
0.383525916558172
0.394278547016801
0.406679175053099
0.423642859230894
0.44076338601131
0.453760294917717
0.470694167462033
0.484006585049435
0.503231038395973
0.515078087329316
0.532859200618673
0.548601842759547
0.565163384731692
0.572785152083812
0.597239340433672
0.605188682828147
0.623700447274688
0.626241089980429
0.645417862751829
0.649340910050308
0.665367418489794
0.668900373580605
0.682543462526635
0.696708424575679
0.708149650082492
0.708873887738873
0.727507178143691
0.719684648891598
0.728791018094549
0.726682615505403
0.740133165928031
0.741415096588588
0.735429206116434
0.738863214497018
0.74488643359749
0.736524905356129
0.74237505641367
0.746350685972541
0.744330037782938
0.744519144107697
0.747944459807339
0.752344165947358
0.757762717437794
0.760537871128554
0.761321043422913
0.772447491636684
0.772184653169889
0.774792354586834
0.794349178974378
0.788628895007671
0.796272554974251
0.794543881882525
0.814593284612712
0.814553004374263
0.833453518858546
0.838539605687591
0.849232654774775
0.861726727309701
0.872445656349473
0.877033150762256
0.891641084797716
0.915793622787525
0.919816258362793
0.927293056362994
0.9410224646688
0.94572752519422
0.945686097566268
0.950933662276834
0.963721784408667
0.948735902650066
0.949496608972638
0.946643234146026
0.943256237285281
0.944027894726759
0.942613183869425
0.932420121566848
0.940594560956929
0.92892589990086
0.936686415008167
0.943378284563589
0.94974175117596
0.965130524001441
0.971342312344022
0.988635294837829
1.01423144457778
1.00420165576698
1.02254174519423
1.04934418899104
1.05894758974265
1.06467631821053
1.0920456292825
1.09621286920749
1.1160854190339
1.13018820825493
1.16337011043373
1.16752563154788
1.15727941632697
1.22290551465112
1.22950429843488
1.25192697372087
1.28295191848048
1.2757238828374
1.29738466433014
1.35384216746983
1.39328718338893
1.38931745516628
1.41769251497853
1.42740338977364
1.41698856832877
1.4141165978295
1.45154603071111
1.50831360784721
1.47406783666388
1.53636181639121
1.52837239168587
1.57599441812145
1.55435349088195
1.5692501905233
1.58411230802603
1.60750469823984
1.57684051015845
1.66336474927952
1.60233854885054
1.5972377586596
1.62175645544004
1.67629610573066
1.62615418213533
1.58588344407042
1.58013116121675
1.54208346027948
1.60774823600088
1.57421428239477
1.56854927988952
1.56709474191581
1.62713579704545
1.61619642781278
1.61375173356443
1.76851038750938
1.71838059727328
1.72882483304202
1.71129433601841
1.74057145464652
1.67599122375823
1.75272054935618
1.89584751265477
1.88637224323931
1.74549409387105
1.85948213488701
1.72644379515332
1.86977545933037
1.88518592682932
1.86851618754094
1.8644754405028
1.86829828517759
1.88956980993288
2.09347366441244
1.95360611732516
2.07737478773466
1.8505343145157
1.99314912432102
1.92208236351037
2.29290747103942
1.90642670356924
1.90038926477294
1.94516359474951
1.98558580547811
1.845867007958
1.96935020909947
2.05297838025654
2.15119550803368
1.93769318228894
1.99455510731974
1.88925613450464
1.99179143365076
1.93969688111634
1.87927586788285
1.8076773938951
1.86247678622894
1.78083163627774
1.81684706511464
1.70733448032341
1.74110492664493
1.64709539369723
1.61075089238829
1.47261108697639
1.5084322238259
1.4871278255216
1.43901684842247
1.41670725822465
1.38165381924765
1.38082963269514
1.37001570100238
1.37420114965544
1.33058118653084
1.28649307683852
1.28590370544292
1.30375794487044
1.2620545052615
1.26406153830614
1.23467818131686
1.24788401160496
1.2644699415735
1.21719725126189
1.19493431477393
1.17123430362096
1.15008688393466
1.11663829340961
1.08562697845814
1.10090858444919
1.0634420888575
1.01503494183515
0.986548209041836
0.940294121609349
0.920222321083971
0.897736322737139
0.852538052786607
0.81195826977622
0.78273862002836
0.735755533449221
0.711577606350162
0.683499295590088
0.640356032912218
0.610944841291694
0.589675562822461
0.566859209774215
0.545589796301948
0.531198340178924
0.506415593766975
0.491566988282867
0.482457451768971
0.462179932942325
0.455350977456018
0.443433805780144
0.435782899969087
0.431771288912794
0.421526182208759
0.423043838014763
0.417574131155602
0.41807777181017
0.416293161310354
0.413071547796359
0.410300234525756
0.415885394026945
0.414518152342675
0.416324455858105
0.418409086871298
0.421957530053575
0.417452647395811
0.419862126173858
0.421400601787258
0.41805454019537
0.418244663342209
0.414763214592002
0.410093510254638
0.409143505410448
0.405123556093978
0.397283442846023
0.393465919763946
0.390159914443878
0.393458553240781
0.378654521288155
0.378502183757306
0.38163339916876
0.384402572603685
0.384390105289948
0.379902287500386
0.388620585850127
0.39324766221828
0.391237377093198
0.395810979878161
0.397040459491849
0.403819680823604
0.403857033037688
0.405945373686217
0.411540562076229
0.416308412185546
0.409709679838704
0.416495637561425
0.423505638662872
0.423271254915913
0.425659717567896
0.417847392025809
0.417429041292858
0.427167090312126
0.429081320915252
0.416099004639489
0.425826062685801
0.434290563037682
0.429265550343784
0.428984181313607
0.436020464574974
0.442825064364296
0.448431977707512
0.457447440827178
0.456388106331184
0.471890283401678
0.480949801407465
0.494761475037531
0.49011768178521
0.507816054378985
0.540217391983483
0.538531301152499
0.554185824165996
0.570968340005736
0.576966590141111
0.57572711102414
0.570683061651118
0.572248042840548
0.579970134580131
0.571802612312542
0.563400421661016
0.559066630804758
0.539136271937944
0.528928221078504
0.520182138627751
0.520527228157571
0.5088353131832
0.511587737419597
0.512605989354885
0.515410280219433
0.4969556390505
0.506383126700103
0.512560428047316
0.512369260199263
0.50646969721019
0.513096328683659
0.494743460619475
0.504822771585345
0.498149886753965
0.491798267071024
0.49153886395996
0.488260993625785
0.476990336417301
0.484008642655872
0.468002820523352
0.469740816546338
0.461538739751673
0.463267257154505
0.438234206921328
0.442060850456539
0.442519585326412
0.452599510805638
0.43318914801961
0.428048247417232
0.433051681495764
0.430860856489954
0.424773801211391
0.438439016242204
0.418502674337571
0.417782672520364
0.412181391389865
0.410081931154461
0.414376383100976
0.41366772682247
0.411569358422134
0.422284660741307
0.403874578964046
0.411405571337067
0.402395133601971
0.407865124646616
0.395543531235298
0.393903825613326
0.389554755242649
0.381506016440568
0.382753775285845
0.385958248059343
0.381962339478356
0.375987967328644
0.373300404997619
0.377031646515787
0.375173050876814
0.368050717643168
0.362467996740749
0.371316135995847
0.353646468148798
0.366998430798041
0.3695412831847
0.377760063053379
0.366163890880701
0.373641594863376
0.371325999065653
0.378472173375308
0.378737086221222
0.388880019466365
0.383939893251748
0.377272081120552
0.366243041789877
0.386529884019169
0.378985747615516
0.387337289626957
0.394346663174906
0.392573392800055
0.401029197673845
0.399101765083431
0.397799944794351
0.399845517568622
0.397828494101419
0.428868624728956
0.406324661806786
0.422895225659189
0.424784514803935
0.433135835359781
0.449588815439513
0.462554958344485
0.442138026516379
0.450025180722637
0.473702193489069
0.473643338344461
0.477836905030971
0.519336263445283
0.496695247227624
0.532576341705033
0.53697075985455
0.560001808785516
0.582102153998083
0.619368975216702
0.617194459073659
0.604709632899521
0.610455720327013
0.656908322690222
0.637794253223789
0.695447662136947
0.684696629525402
0.687038610885537
0.654835050969395
0.656630991993044
0.667864033973133
0.699290812890671
0.701458313969935
0.682164178146015
0.661062416403867
0.662831484810127
0.650560031327476
0.655429173976901
0.664012036881299
0.670712001531674
0.627444351126219
0.646082498739421
0.650110200958846
0.624159740484034
0.624110015731845
0.623923562740957
0.629888647118663
0.637661419660588
0.629855739860406
0.6323031858368
0.594334557347977
0.617929425036733
0.59995951187789
0.612076891834496
0.586907860929416
0.565556674652393
0.569208713861813
0.606284849289811
0.574634014365281
0.617727001863603
0.578143082217343
0.602241322913843
0.576189663959992
0.564309308578314
0.560236096482651
0.567900804122423
0.555977732600614
0.565623563980645
0.562976890774896
0.574812044600989
0.565857910437226
0.599583900737303
0.574044102031464
0.601136543873508
0.620894920630141
0.611347452945101
0.58637771130517
0.606648404910763
0.541159536422346
0.574556644210612
0.57775110441415
0.633887325395215
0.570644023628247
0.604822256805899
0.584068331090837
0.589959861105548
0.646843547820448
0.61882714284509
0.632232220827172
0.716705583775136
0.62899807945233
0.647281796695285
0.61544575024237
0.643330432693092
0.648596682760165
0.698860370778301
0.705470314464259
0.688919152890277
0.650278135678707
0.670402897556183
0.67890077179555
0.816420050085175
0.758633595816701
0.760899952414182
0.715912231049415
0.893202418298699
0.796842277528374
0.748555545456215
0.763544883154543
0.874647759916537
0.830380412150841
0.95281477508363
0.891755108908225
0.777678240208101
0.748443565118314
0.835720626636848
0.873418210452566
0.878219807593595
0.87604642491186
0.998527754537591
0.820345972771927
0.651036777462422
0.711018978794469
0.875503333132871
0.751272547212815
0.755096247303304
0.731372471043042
0.747008299055327
0.73830955943985
0.779794448653589
0.732286009014062
0.778455245640036
0.790927192588584
0.741294859417049
0.810851872600967
0.770262027964237
0.594653338825716
0.850354860793102
0.819217980638051
0.72884965869386
0.693397513972429
0.751119645478269
0.696642156645625
0.873164936141884
0.810974780264083
0.833654458918254
0.701437475500392
0.784320429772028
0.835159617489187
0.829577296038683
0.664671354951265
0.912373068274134
1.06408916577292
0.980788865903422
1.10768809396752
0.854893725571063
0.694689875121703
0.742440774282787
0.725265503743794
0.773441127275386
0.592673184251461
0.56824089515021
0.926588434941235
1.10235243956811
0.636520315189901
0.695805185339144
0.682258911601589
1.10839909760533
1.00389726779665
0.96736534971536
5
