3596
4000.36533379555
650.420452594757
1
2
2
0.0461117529777431
0.0467914501157793
0.0578406828209191
0.0420337943997492
0.0555843205306811
0.0432104641385178
0.0532333618733821
0.0365773726544944
0.0454807213910009
0.0277822200181279
0.0548792788681921
0.0326710039817343
0.0448749907545922
0.0404686526115962
0.0527786636527348
0.0410207169450417
0.046897320777016
0.0356542698004895
0.0518240114039376
0.0352836134633859
0.0537628067725909
0.0405504755128371
0.0504104443579319
0.0356094061499225
0.0459989360021952
0.0403150881652297
0.0561251753949865
0.030969421409488
0.0466903185226035
0.0408130844859328
0.0503722437056708
0.0389227486695324
0.0452602621773993
0.034702450743989
0.0527354382318485
0.036057077789531
0.0508692423382426
0.0371162408885405
0.0511726881305277
0.0307333924344737
0.0434775402379994
0.035869787775768
0.048380484303547
0.0368734939990429
0.0513801164014415
0.0333010805273742
0.0506401719650265
0.0372129918330053
0.0535346451901176
0.0435349497150701
0.0513107249127445
0.040609820210231
0.0536367224476606
0.0456848811349699
0.0409240889553441
0.0463193762328094
0.0602141712116365
0.0379404971293717
0.0456928398703716
0.0366284163634137
0.0492418522617105
0.0458820135306373
0.0484997544792484
0.0320779427612533
0.0420384110819399
0.0370754664632899
0.0506815406273469
0.0350941602783706
0.0484721911699082
0.0390902619371409
0.045586971636297
0.0313360462247368
0.0554402567371167
0.0455376258539906
0.0501883756980546
0.0404740009834725
0.0511456232440563
0.0357687566862966
0.0370705015869574
0.0363778138360288
0.0569434590608104
0.0434072631268468
0.0430670901869684
0.0277948842148183
0.0436874997952639
0.0416913548331139
0.0396917888040432
0.0236003077709536
0.0632589535464139
0.0393437719346055
0.0394779128668292
0.0309563823088231
0.0488784560178116
0.0352200961829012
0.0422065204390201
0.0392682115534594
0.0476834891644858
0.0291709921410077
0.0498688782437768
0.0394534824915141
0.0436565593653968
0.0155874951159317
0.0598594255812491
0.0333854874666316
0.0642903404819274
0.0493880535133594
0.0267720183538287
0.0495690403419099
0.0516787873627424
0.0421688213319967
0.0493125524404242
0.0361524569578814
0.0420798263130399
0.0319591199095645
0.034589364471475
0.0358255329580379
0.0732177410688301
0.0349024957279718
0.0444907327096789
0.0373493931716972
0.0243662020582366
0.0275716912292567
0.0739733420044873
0.0277293228738513
0.0525790432815152
0.0303291200123902
0.0296504206556162
0.0317651107851804
0.0628203975466448
0.0364443060115073
0.0408168750756449
0.0265700486370178
0.032851586356701
0.0120534951355304
0.0602687583015149
0.0420825344213643
0.0356752346829878
0.0170307089696535
0.0399151723273515
0.0584317144288726
0.0584303434728242
0.0404006276098774
0.030933444291664
0.0171030465253289
0.0737031330124927
0.0390852456193134
0.0359412206798829
0.0368609549839425
0.0565174740519495
0.0368156667131669
0.039099116319661
0.026404263976978
0.0555295704223642
0.0337040461351011
0.0101512979098375
0.0124381804557881
0.0841703303079677
0.0313719491559995
0.0726309383351234
0.0424035594599823
0.0409756428014446
0.0385942599905692
0.0360776699544877
0.0301547860678027
0.0379039459580326
0.0273042638595007
0.0344792233731461
0.0545362723193373
0.0402977412407723
0.0259140312186324
0.0495317314680324
0.0318357848515763
0.0269422907147537
0.0502622792882898
0.057847417855058
0.0107874749192871
0.0547942446202851
0.0416637867779099
0.0357564066653088
0.0329936646675199
0.0639448236104717
0.0326043024139392
0.0411940543063478
0.0295055600850318
0.0338231097632345
0.0437705837676789
0.043920369570213
0.0301633365302062
0.0443432350799476
0.0224394722261047
0.0330928200582367
0.0468603955079098
0.0631387700180885
0.0370963144401874
0.0437603727089854
0.0194742039586146
0.046156116475896
0.0739131656036006
0.0414385979214005
0.0358970645424205
0.0415475670020985
0.0304152604222889
0.040440840240772
0.0322897896581167
0.0344606853520312
0.0126171161904748
0.0543596522782331
0.0580153885678553
0.0440243963089426
0.0328427571372584
0.0258965943411329
0.0279329707352297
0.0555388195148868
0.0644378686165047
0.0448788861518876
0.0414748333026224
0.0335553863295036
0.0288771958506424
0.0626448467163851
0.0439354483547159
0.0381653101227046
0.0379168814125292
0.0390317723068512
0.0352436218209546
0.0445153014614391
0.0379269079341121
0.0421123615005628
0.033434522176727
0.0397767763008089
0.035043852118186
0.0448196531356167
0.039380467914514
0.043676881129123
0.0326953035937732
0.0328649101791353
0.0334444283927773
0.060736315159676
0.045282989196331
0.047435620477366
0.0370851230233897
0.0407428081331804
0.0386499783050545
0.0479918031906944
0.04166596783631
0.0372571807038238
0.0240953002145283
0.0519943666192903
0.0532847807768828
0.0364324764137616
0.028803811198864
0.0414977193423525
0.0498231932246959
0.0399340349886775
0.0405100939984963
0.03643941998537
0.0312468487402236
0.0292036411459701
0.0520486745220932
0.0464533849907802
0.0348603455261383
0.0515327679438241
0.0454936566601771
0.0395817949712073
0.0317823794743499
0.011049429605628
0.0686743941708599
0.0557145705897037
0.00975897910899196
0.0743771222540644
0.0553168626720698
0.0478143199958334
0.0374857095616073
0.00900222850942614
0.0784160958369831
0.0888383817714742
0.0389158667976976
0.0453111483218648
0.0479575858781475
0.0478551948694724
0.034484724662574
0.0412495645710092
0.0311414279261178
0.0336240245293299
0.0497299079232669
0.0747790710372416
0.033032397483429
0.0370264669375601
0.0701116605179586
0.0526961573509773
0.0436642230386141
0.0338851604454894
0.0413964049096775
0.047025207430584
0.0552160930695433
0.0529656013100553
0.0495084039293197
0.0448119816225796
0.0648414411089399
0.0546573905665719
0.0393394555379073
0.0503224856757867
0.0508725163229391
0.0560482362579318
0.0407819146513556
0.0497709531156807
0.04604008978822
0.0387884189434734
0.0255279437523768
0.0722682934493125
0.055543144153032
0.0422574920573873
0.0662580799793846
0.0582033696549355
0.043478769082627
0.0544906407091784
0.0469413582144886
0.0542708573526049
0.0417388167948289
0.0405567810107272
0.0527527487244438
0.061538138170804
0.0403174718224363
0.0518194682623985
0.0492085507601422
0.0562565840675691
0.0455399063757246
0.0539523288919468
0.0497185876998694
0.0525157485557849
0.042163879964456
0.0613171998417793
0.0629677591312029
0.0472379924912592
0.0555559248437073
0.0886495860037115
0.0566216153225211
0.0660667134933011
0.0572432369979082
0.0608987002271768
0.06207226145878
0.0716535158810761
0.0627861403807013
0.0560081087818052
0.060492075629952
0.0738154192483145
0.0587896112026626
0.0590043410998654
0.0876223188882246
0.107237261747777
0.085176530636619
0.0677060940483961
0.058930732712594
0.0698063286286757
0.0936958084370916
0.0854372197449171
0.0916874904013374
0.0857471781548159
0.079426616632899
0.0870732524541455
0.0772632659847878
0.0893480449743969
0.085014117314973
0.0941273542124812
0.0837604692414803
0.0975538063108654
0.0917971030242353
0.100306894231888
0.088984633657986
0.111136487488683
0.110311473092444
0.106968498636807
0.101002563755104
0.104568878262717
0.0963338339165805
0.134293401474254
0.127764036622911
0.130691219147462
0.110769305556175
0.139258673820802
0.125310262673621
0.126076874537637
0.124854400866192
0.125986671599619
0.129368230941464
0.132198090139336
0.129307125426477
0.13514817945567
0.132703242346678
0.144796037920922
0.137029601655754
0.140802234050754
0.145185410959926
0.155506421717237
0.153780759034795
0.151259672839819
0.147795380940237
0.142826550342544
0.178488556638292
0.182480661421509
0.177530266232486
0.165784957449263
0.171203780731259
0.177482483224816
0.17512114870803
0.176456266873636
0.176410875392094
0.185014563822427
0.178365059081158
0.197364436237974
0.199654515783878
0.195830730295832
0.186143972387122
0.198807254423063
0.208563507412851
0.215670552621917
0.221242949975324
0.211586702840699
0.210338779847093
0.227489500413372
0.222888528868743
0.2176474892497
0.234063864984348
0.239690208258714
0.22207938711394
0.229841954271653
0.227374534390224
0.24753015331145
0.258436179398351
0.249353037147811
0.244576395414171
0.256539612325821
0.252497218980687
0.264138037208436
0.267691682880133
0.26164711040502
0.256421222014524
0.274017728130394
0.276243701734786
0.273577202440837
0.277151137984035
0.285938628207929
0.302712373567264
0.303028613938735
0.294496950797095
0.304974219408955
0.292588714992213
0.299185675118179
0.307261884679824
0.326653774239983
0.312760859267006
0.321909120964637
0.325420456782456
0.332058965538051
0.328805112772829
0.340893995800365
0.337915370829559
0.333251746252003
0.348025920708148
0.356670472285291
0.347973153682757
0.360771209301624
0.360036679494032
0.373016380256013
0.38248958074676
0.395780784980705
0.387454844890915
0.389010102626671
0.372481535537837
0.391179140532626
0.394976586489771
0.397915549660283
0.399139241479896
0.412753533803961
0.405548176434943
0.429053203310102
0.419377565049365
0.41884775899375
0.436399444659576
0.449249890250357
0.434531931922563
0.445672897993373
0.454094706199695
0.453614754025394
0.453808080566342
0.455457303279195
0.447519104682324
0.45877381948551
0.458173725877816
0.481071361867002
0.487525984156952
0.490338810918291
0.487441511614303
0.491167026731955
0.507397573517059
0.505653326080908
0.494360069298598
0.514135588039527
0.494286616287277
0.514304638770498
0.518394129447985
0.525055773342752
0.523147008721622
0.551336411690338
0.553299499604697
0.526086342135006
0.541756953167134
0.549704806985553
0.543619857209
0.53644391720024
0.535658872605297
0.582089521821725
0.581158329454733
0.584860590478438
0.602936446850874
0.569163558525032
0.562022559035372
0.59903885603723
0.589776409690416
0.610203236144099
0.594776531964506
0.588606339672054
0.61985013552883
0.624906692029533
0.629162565318963
0.660299762768243
0.675687283526327
0.639642323939451
0.640961031107259
0.628541293287259
0.618354864509056
0.658743895491381
0.654677419100041
0.654924253823195
0.674831125517758
0.676442731370037
0.680240862163621
0.689194968492503
0.696551320185969
0.698559076333454
0.685344166365031
0.704057141307005
0.705654120394107
0.710654787720156
0.697016328778122
0.694384748165709
0.718782574661179
0.73305670984497
0.725693164248257
0.723613857401405
0.733726496517573
0.716438350835245
0.725414270840303
0.770397392314882
0.793604460380345
0.778192725071566
0.778408702920489
0.759458672833548
0.773169471532756
0.784477799417321
0.803411612527055
0.809047549847389
0.805446518500816
0.794814177733241
0.814665428078038
0.789043388004935
0.832214036193713
0.828422888982627
0.789027039892048
0.803102733026683
0.799173109210557
0.823708745289699
0.852976192659644
0.83957546129442
0.861548163669038
0.874841120792759
0.857310951184707
0.859112065758934
0.903517781831172
0.853590067294497
0.87966862119656
0.927216166895242
0.873434554464948
0.864241728916133
0.928351215328664
0.893761807815082
0.891795173788553
0.937908200477462
0.9180163105711
0.887231721637109
0.925105717988381
0.921137107303139
0.889641619148754
0.897851538770254
0.97791218087142
0.989459764734558
0.939318942844761
0.973088651156838
0.978536240157816
0.930039790044532
0.952253153786239
0.934147084379457
0.962755621217646
0.936751368985853
1.0139975499617
1.00211911838873
0.948652168276112
0.992048224527272
1.06151198337586
1.01310938777822
1.05509941180348
1.02199825697324
0.957441172532123
0.989939179438751
0.991935066772422
1.01967779813322
1.13002445486965
1.04258284995938
1.07326521476839
1.01476916249596
1.02446324109534
1.05062171272863
1.02309944033064
1.02438303834411
1.07800858235243
1.07060924753479
1.10380831613451
1.08302049809121
1.06993473724835
1.06099611838648
1.08740263042756
1.01806812431344
1.04500865774972
1.10061837710529
1.10158199378634
1.10116418548825
1.11263222521932
1.08142493096126
1.10619486518474
1.087069147377
1.16754244555327
1.09970666627455
1.09022925591698
1.09093122168156
1.15320820914513
1.10886131863811
1.15074353671025
1.13022018881006
1.11466399585585
1.15717426933546
1.18381755694763
1.1210878165937
1.20353085660928
1.11845109031162
1.13082971128757
1.15216760424312
1.22600490901429
1.15259064660706
1.14704231506684
1.17306123994714
1.17504401653247
1.17674371554208
1.19273690087066
1.14878011198767
1.22576475958073
1.21334205601188
1.20324966642843
1.19543455580665
1.26420658076198
1.19852310645969
1.24104491079649
1.20223016841939
1.12834725226658
1.16683562087924
1.2702605118847
1.15409152189078
1.2457000067031
1.23024106901019
1.23169774363804
1.22418979685731
1.24312307613736
1.19244668901731
1.34720983115451
1.20419617026189
1.26000015639952
1.27329637939521
1.22613269758631
1.26191600818035
1.27677405260072
1.211389756302
1.41261978737376
1.24433260636428
1.27179207138643
1.27219043338388
1.25458146047259
1.22201285531296
1.26287993411071
1.16308592892451
1.21647189361097
1.24111721384733
1.25295997423209
1.26746820713532
1.29496095801273
1.26763600438152
1.3006951972374
1.24281595234424
1.24222620879797
1.25158482298635
1.25622191378388
1.25810868464501
1.32198048512145
1.21056295644996
1.19407291319974
1.28911100330989
1.36135404987881
1.24031602288574
1.31506261731834
1.30412484718465
1.30510590546864
1.30718731281384
1.26407968126076
1.26040842425298
1.29021259914731
1.27139020786835
1.28278424059598
1.24591082201726
1.31872980805848
1.28469617377234
1.38525530788629
1.29865529068793
1.29811275625991
1.20709957333721
1.30040389658677
1.20888909542702
1.34352374167399
1.31528620577299
1.24616867802393
1.25735881316418
1.27047623193391
1.28356578329935
1.32803145941482
1.31080859841386
1.34009354852142
1.23213542967925
1.27120111264124
1.2921440615279
1.30467610508085
1.35038152808129
1.35055909331501
1.28749912759017
1.36343529507634
1.31710022258958
1.29410473822114
1.2696484946494
1.23804157069421
1.30350100272532
1.42631715903898
1.28221488906322
1.3725309641817
1.33383130606215
1.29688674245822
1.23196565545831
1.28770165677515
1.30379947179753
1.32038204447166
1.27196461500055
1.33315702290077
1.32192663692512
1.28019264326502
1.25998675272246
1.38749193610287
1.31424131822247
1.28186063606178
1.28195839656176
1.26488654511904
1.23813270508324
1.33334738795188
1.30956951580602
1.30942875249118
1.264015506259
1.3749850224422
1.29876698667126
1.38827097400275
1.2836777472936
1.28242605805128
1.34129002847061
1.28795567259579
1.22147351115395
1.30625618945752
1.3098754660668
1.28276543797871
1.2990232632632
1.2908657595028
1.24829818489737
1.33400692414653
1.2175010884613
1.31775993726898
1.26912312380799
1.25965396219099
1.26462545825264
1.29546881997853
1.29552248037968
1.31003607900168
1.23919664087525
1.34789955692478
1.25317353416701
1.2625516596545
1.2740777253766
1.31991054362935
1.22160235774252
1.29656664249669
1.29513626990844
1.22763728442553
1.22847074858698
1.26949924077422
1.24250095692547
1.23955691434572
1.207948183802
1.27584644431689
1.20601519560939
1.21240719056758
1.22965161477353
1.17347875666307
1.15908428798674
1.29192118518169
1.21624498137238
1.23466399581842
1.13836410282746
1.28292282400238
1.23983639983257
1.25724591793954
1.20772854705548
1.20585206885016
1.23933592273015
1.22926338407657
1.15958513481413
1.22309954496965
1.19429106178809
1.19928144938057
1.13989859272892
1.20539002255046
1.16514831369143
1.17463216534224
1.16549845611125
1.17416354554509
1.12183254236915
1.14766382730659
1.14488973184749
1.23709757207898
1.11429630587125
1.14738761959343
1.15197032523195
1.16886273878767
1.13142236776382
1.16646306972807
1.10810038466441
1.13116788151228
1.07603367396982
1.13733427457228
1.11643800017519
1.11681584197891
1.09894746973023
1.1554011260672
1.09284820858077
1.11852675332272
1.08674501569486
1.09227058265123
1.07816613046856
1.09819745712904
1.10285811475255
1.08230206076907
1.05257733207431
1.06635577815651
1.0419622988455
1.08648976597135
1.03073501162657
1.05417072283835
1.06361597487098
1.03596683968813
1.00363509683921
1.01399135605583
0.990493860086431
1.07381203055512
1.04450880168161
1.03390881780235
1.00803286274194
1.05921817846507
1.00315173973446
1.00300895655666
1.00182713058273
0.996645087609878
0.98381416230591
0.996477667203993
0.975878832198656
1.00341531334798
0.964104091665113
0.992750708501748
0.9758238300367
0.972417007248568
0.934569185683767
0.962331853313912
0.921954356342578
0.936965902088887
0.942913323329021
0.945830487179049
0.932444133163562
0.933866504754434
0.929809675172684
0.951619275818691
0.89637500406656
0.914107400193942
0.915199513702458
0.924815188250965
0.877854543199104
0.903791885736587
0.886616009271191
0.901430217725393
0.859994615706102
0.879411906424619
0.869400421662036
0.911955939522925
0.859822503716648
0.863710152488404
0.847473431011236
0.847463142153242
0.833229426286138
0.846725894609309
0.82402318246835
0.8335403812156
0.822618092696975
0.84717851241141
0.832483542201302
0.865676905346177
0.793530687703934
0.817029535012735
0.803221683409724
0.805317179188878
0.800241013739967
0.812345124123694
0.805107764276423
0.789645699192263
0.77493991008602
0.793510475829827
0.767717072685938
0.773861680545833
0.777593649111832
0.788475879510064
0.7531054429994
0.762897410194671
0.739805667688384
0.759943062308018
0.754568332342517
0.747532015020849
0.749884890563481
0.759920432963681
0.728029295624375
0.734750697303923
0.713504249791723
0.734509692147804
0.724609895052363
0.729199288528542
0.736770832214338
0.737126197409268
0.699257756428748
0.720626484740007
0.69888321640564
0.707488601955196
0.696241324723326
0.721593067140143
0.69352670212234
0.691760766116958
0.658890733201485
0.673638994929525
0.665762289812656
0.674529593475095
0.665719329228564
0.667517084689336
0.666104694855162
0.665608422637868
0.656000635844129
0.6583138018183
0.649845347582559
0.651699644719942
0.635390119106859
0.628604527052425
0.629945335199599
0.635488858759424
0.631615392674405
0.637618423293085
0.6232505776051
0.628675958824341
0.622425607089227
0.614733391364594
0.610351000195109
0.62501058909395
0.597151790683188
0.603676080394887
0.5958337001564
0.598368293690781
0.600251654525119
0.598611188500052
0.583186042306712
0.596438557005812
0.582838857224587
0.582083300027874
0.580750488035989
0.584516605926896
0.572735287909711
0.57680903597949
0.566265025857705
0.562267977256013
0.55985828963374
0.566705214876123
0.557155704104097
0.556417558646456
0.542096046924806
0.54653958517289
0.543499447031329
0.549935351219012
0.533306386459451
0.550257515358194
0.529542154967194
0.544816132435137
0.525581623395773
0.527633389030747
0.515655597599229
0.52250311239867
0.505354673537123
0.518329727131606
0.51582820937752
0.507693992490029
0.505437205433584
0.508892969409677
0.498727692704018
0.491830582993325
0.488056260662454
0.497769876622471
0.49178854019713
0.495927533460666
0.481224648677024
0.489544404144106
0.481023369390957
0.483168860097847
0.48131042694231
0.484498854137207
0.465429674206307
0.474543350100675
0.464904660932234
0.472924124137675
0.465962316474737
0.465284874429682
0.454841079883348
0.457137370329906
0.450286743419178
0.449818956969644
0.447354156324534
0.451145324254999
0.444011109343099
0.448855704478328
0.442613080482512
0.448789886224352
0.444784512503254
0.435516415305572
0.431222770659964
0.438503872023772
0.430130909170774
0.431298072752412
0.429702925939917
0.434862382575682
0.428841352807108
0.427727959791976
0.426409472740727
0.424940372320548
0.427002540239776
0.432453732360943
0.419013891077364
0.42588779979789
0.414991369350923
0.416227418934277
0.414362562854362
0.417162448906233
0.407993058230999
0.421900711033028
0.414680564434751
0.423603386201032
0.418168689780685
0.428014576331589
0.416701694500858
0.415706936092675
0.413845869084426
0.422531173320737
0.416511431480359
0.423146088963817
0.422235659253298
0.425014223703313
0.415470880118506
0.428550727087237
0.423677418352501
0.424928781136923
0.424045044852338
0.434307266733395
0.421547303055568
0.442235240948444
0.437654936947765
0.443578527483328
0.436223756012665
0.445477972275605
0.447377470066881
0.452677244057358
0.438613681147189
0.447862763902119
0.441722020179905
0.457410609983306
0.444989642546594
0.456674903912037
0.449193339131436
0.457070955083773
0.464569632030424
0.462299153975876
0.44798756010399
0.462304709487703
0.457495663920133
0.472364375942686
0.462577464090659
0.469519007556895
0.471915636463378
0.471728522584975
0.474339045891736
0.488897594217753
0.480817880150318
0.485668109824415
0.48741270846695
0.501254250187595
0.490861425675593
0.504731269745771
0.4980861835733
0.504207356658632
0.512290172546515
0.522203302621754
0.505749181536417
0.524115890818436
0.508115728247577
0.526857662057405
0.516823835057128
0.527977226618521
0.515239029148552
0.532304188250837
0.519883178090733
0.532856632131723
0.525492514616806
0.537593226636121
0.514499541214787
0.528294604989459
0.532945482097651
0.543743946813692
0.525148914974756
0.540624325646636
0.53104491529453
0.541201110058953
0.520848359970667
0.529252214926195
0.523560089532608
0.531278032438293
0.517796792448159
0.536810983998532
0.519802536312253
0.51783305963313
0.525684461724461
0.541038896690143
0.515265553792768
0.53334050964924
0.519109858648563
0.526382418070576
0.515177963173185
0.525755937146837
0.512876945667552
0.525833097333509
0.514571770499349
0.527115157641142
0.520700975650361
0.524499450473016
0.515579409885684
0.51732120780443
0.523451130022463
0.525477872557989
0.516836972348021
0.526284293342162
0.515692246311334
0.520273430790808
0.511112216006838
0.525438778316977
0.506458111238908
0.529887473422628
0.516289671086519
0.525929311807441
0.516075555186364
0.5337833516652
0.516478233192387
0.518212865591242
0.525679237887571
0.520778326094552
0.514884557319519
0.528713234648568
0.512533626941682
0.522925040044407
0.510081981599492
0.526807295795557
0.512831079808678
0.507596244099146
0.502397252321278
0.50894013717083
0.501048607338281
0.514968059331307
0.504248764301685
0.494759464401373
0.488933157825024
0.49619174833615
0.485473639692754
0.481688271011763
0.47472919985318
0.48190139367054
0.483031964172853
0.471501483678535
0.468370682177889
0.471661233163909
0.455639868291048
0.468445104943252
0.456050855659837
0.463028942564082
0.451112073574432
0.450247648037086
0.442190107132315
0.436670959942537
0.429768146596082
0.435487524048209
0.429206781231021
0.435756895823327
0.42661657645355
0.426970434282002
0.417789202311961
0.423417677244389
0.408446742550486
0.421085025203062
0.405702844595086
0.403335042333211
0.398585523633557
0.411377141699663
0.395980348561403
0.397526121001782
0.393106759746791
0.392664644079533
0.384987471025058
0.392876131030933
0.378418949376559
0.38289092529117
0.384408072147478
0.382605576060619
0.374491874107726
0.38455687781536
0.371760786492957
0.373597213477819
0.372260265307512
0.374379603592408
0.365407041848726
0.367703612152738
0.360344008454229
0.36434016962173
0.354696552487362
0.363493368415538
0.352652697833748
0.357734233394888
0.352143396733751
0.355579631053273
0.355348595194997
0.351336077779599
0.342840508806535
0.355164981874538
0.341042765199242
0.345718958194701
0.342951201622393
0.348307335818229
0.34104960587689
0.339136475841963
0.34073987778632
0.342549907742458
0.33731299879739
0.338731333068478
0.326760630997917
0.340961858640851
0.330462838349986
0.336139918673032
0.322119563860411
0.329316149996251
0.327424903514743
0.330345366675647
0.319943407054156
0.324249599698292
0.320890431721907
0.322062023059314
0.318619230923279
0.321765174731056
0.315290594381417
0.323341653465511
0.312744686673768
0.316065667568051
0.309178512219099
0.313048237927572
0.309321646736442
0.314440158609394
0.301624920360527
0.311357855688598
0.310093409630118
0.316279489862253
0.306198142398187
0.307922411794146
0.300656008637599
0.307930347946527
0.302020951140544
0.308342946346235
0.299085493856668
0.306771434204905
0.292854384307886
0.302130326116344
0.29732187384785
0.299817734455769
0.295250037318846
0.299528372059805
0.289701662887964
0.29564713302321
0.293635073484519
0.294827802938171
0.288763998496299
0.296612332481059
0.284340758038034
0.290536160790118
0.2842862172958
0.295098128519545
0.285528147187071
0.291662016129187
0.284615770255012
0.29034406199316
0.281640369532744
0.287869609546233
0.282752675916845
0.285434006254883
0.27857515645462
0.283899660798079
0.277170793898337
0.283313705745679
0.269254112671098
0.281119823777058
0.273025912898652
0.280254608976013
0.276876488173785
0.282206506011557
0.276296131568157
0.283789659284466
0.274440207016581
0.281449437075478
0.273450390478683
0.279776796261237
0.270132655698588
0.277268367275842
0.2709538477803
0.271317667608746
0.268831071260142
0.271118686122333
0.266653134358202
0.273727488202337
0.267286494114916
0.273229661819366
0.272447202734235
0.266490463044145
0.267671370974366
0.271269315233296
0.265096359725649
0.270835892638898
0.266270194549685
0.270275796883419
0.262864960701917
0.267094922877652
0.261230942737214
0.267452441342394
0.266172294247282
0.265274989247576
0.2598975256508
0.267226568651312
0.258631958336813
0.264759970833324
0.256895091876746
0.261387451352687
0.255776600680172
0.264680594976531
0.252287296648854
0.25773317116406
0.254197846512508
0.256827625350886
0.247403482653045
0.257439061240152
0.244068532997048
0.251654885095753
0.253062977188951
0.252475879528919
0.247439266114842
0.252969353284468
0.243036450707206
0.255317313571126
0.245010772698607
0.250271877475264
0.245021672088511
0.251972400978681
0.245955473245397
0.242203955045754
0.241386643511417
0.243219146522407
0.242355984585063
0.245093868372401
0.240053966724523
0.244357971050131
0.236793876648963
0.241886661330853
0.230633507305493
0.240647615592609
0.233723630732383
0.237577794129738
0.234505798835301
0.235546040742028
0.230091596625176
0.234975275781944
0.229624967545114
0.236108299168599
0.224999844682161
0.228734449748247
0.225848637595581
0.228759232838766
0.224187124033612
0.228515616622431
0.221939789525746
0.225606771671653
0.220656890122875
0.2254909430861
0.219698085600115
0.224591122382143
0.220397035071444
0.220309862473469
0.217062862373496
0.215666887295309
0.213772089563154
0.216493484434577
0.210010622804092
0.215013290038326
0.21213204061777
0.212521683473558
0.212435367506848
0.213339239107213
0.207210052205151
0.210734982175453
0.202324430981636
0.210080766934512
0.202333566811885
0.207364955013045
0.200430280408844
0.206921685997622
0.200624243957535
0.203932115467062
0.195903490916078
0.202167484105223
0.190698404771432
0.195893762492235
0.194111581811513
0.194763074374821
0.192841861832394
0.197710715327451
0.188724635053086
0.192792913618332
0.190076779115972
0.194765264674133
0.189108642525558
0.194301170577275
0.192433999981405
0.189643875202195
0.187144457073391
0.186781493785926
0.183640724950764
0.187545080685841
0.180461397277815
0.184924306832373
0.178242983957867
0.18368540001518
0.179597269640706
0.185013087103577
0.177703500040535
0.185129145515096
0.178552103354355
0.185273251165921
0.175187298322018
0.17707943846644
0.172452863202022
0.177916917185474
0.174605184834111
0.178535405550388
0.172321255910656
0.176161617185135
0.171490020969477
0.176187047118466
0.171566601470377
0.173136689978646
0.169509215028474
0.177068757839552
0.167421517635905
0.168464196018761
0.166548445676893
0.172480036421839
0.166125550019109
0.168590973847325
0.163588676082843
0.163358281463325
0.161459592090752
0.168010754419507
0.162149674849716
0.167702607827339
0.156895292137487
0.164388033505725
0.160225273610237
0.163080671204962
0.158394991980721
0.162439017732447
0.155836012653147
0.165596922913449
0.157136074798355
0.160999693673282
0.155840979788146
0.161309764861731
0.157556796644765
0.158361759618509
0.156191982686767
0.158435196248612
0.153689793547331
0.159672752891439
0.153431173047049
0.157485629492727
0.158004321360287
0.16027570361599
0.152467137642602
0.15351485336847
0.151108605931467
0.157660343652845
0.153741269497295
0.152664125492559
0.153113340831979
0.156153603729738
0.146319139412214
0.152975260565333
0.151464788885642
0.154456577662492
0.149070603950297
0.149950840850713
0.148774920851482
0.153102266527651
0.148328050703561
0.151266327180316
0.148706381240296
0.148019206218444
0.146123012516875
0.152989051361807
0.143516764112615
0.149265409662897
0.14520156001274
0.145747388800834
0.143747243160388
0.148232997229306
0.142925876988951
0.147709149203918
0.143559785307961
0.145644486729647
0.138893620054697
0.141533526143477
0.138923366214779
0.14582062983258
0.143367707019629
0.141920854927969
0.139112324293755
0.141068284025121
0.135845075181764
0.142506201741763
0.138015012102161
0.139716162753712
0.138482373559529
0.143387531163782
0.137320335648581
0.142127389741446
0.135147202428963
0.135686207470482
0.134840928811184
0.135288642318587
0.132759744629402
0.137948812953678
0.13518682478507
0.135925126219818
0.133493128485216
0.13482752165095
0.133105087841778
0.137483487568779
0.128054569222389
0.134053923202091
0.129560855540691
0.138081380969336
0.131489748007474
0.132126641446464
0.126813254983028
0.132194433618853
0.128180583365871
0.134201221916206
0.12786368824292
0.130167976888472
0.128759536768286
0.129544973846624
0.123650799064049
0.133441064187138
0.125541093797889
0.129218742245457
0.125322252298966
0.126888504454636
0.126560151258512
0.130725242798984
0.123841294612539
0.126435498508448
0.121455698897392
0.127181724858453
0.121603528521366
0.127201010602601
0.11798659942068
0.124074708093181
0.11929586579999
0.124419045853933
0.117324954066022
0.122253844963824
0.118429986933188
0.123381874635324
0.118267133445257
0.121275520946087
0.116145117898116
0.11939400114779
0.116467482333713
0.117983610716479
0.114095982481689
0.12012229769319
0.112170781705872
0.114692809992315
0.109395269704107
0.116318035120044
0.111989811496207
0.117404926427731
0.112029921008513
0.114103077148221
0.109182311872044
0.110565920341965
0.107752389749797
0.113239646463812
0.107456647596022
0.114416825409999
0.108339808028774
0.108975966372851
0.105868720388357
0.109494034879708
0.105876345607018
0.110809598232433
0.103286321911296
0.105793019355766
0.103751457355555
0.107543098887824
0.103081697660285
0.105623467498072
0.102656121535547
0.108400826874083
0.102964919303835
0.105350169921522
0.0995092984017506
0.104076934927427
0.100391096097296
0.102230652296701
0.0972505293173318
0.107062940704259
0.0995902085787972
0.102496067222819
0.0966222955972645
0.100486994243151
0.0990881513908826
0.101525903639413
0.0965633601652499
0.100510266622515
0.0949041506621547
0.0980923089311913
0.0935470283835489
0.100586598933815
0.0924489081553397
0.0982920347096907
0.0913486990657767
0.0971728183613458
0.0933922420848358
0.0949137963105205
0.0940587263977625
0.0932666926355951
0.0910458892693875
0.094942712940596
0.0920524503569178
0.0951292520662725
0.0871516195634825
0.091757891163164
0.0884235388406578
0.0952635243519387
0.0901182877077083
0.0933841126353272
0.0866918547603503
0.0932577316843535
0.085727270517719
0.0909702181149854
0.0864329175775877
0.0942732370511025
0.0869390596158091
0.0904989367087057
0.0857006478746626
0.0894741739837636
0.0850234415519216
0.0913985002438005
0.0817880284245407
0.0879232474145114
0.0864822199670315
0.0888917632946154
0.0828457254690123
0.0874380344084177
0.0830837122601047
0.0870881875732849
0.0837503458106496
0.0880214788621211
0.0827722421556036
0.0887433085607197
0.0838006953567319
0.0876016055822889
0.0830190739766807
0.0897759325908336
0.082630825324403
0.0856561352520629
0.0758437729351985
0.0851736319817758
0.0797297241261872
0.0863761908716202
0.0752513087822439
0.086338289728629
0.0785488008787714
0.0904657717429336
0.0785430198775254
0.0881802710530268
0.0676626506737754
0.0802550611765175
0.0783581119820579
0.0900657998827524
0.0747486854164442
0.0819934885247393
0.0740138797048213
0.0824710457715452
0.0687126168854075
0.0853535476306975
0.0739389628479064
0.083839677700257
0.0705118223489548
0.0896043993268757
0.07123837487684
0.0872118705128708
0.0768439381744776
0.0836094262662798
0.0776385930019415
0.0900509735245045
0.0668121102959758
0.0797246678448667
0.0688638835494113
0.0851203376469332
0.0632599841567461
0.0870589716940808
0.062042798085647
0.0869760945074078
0.0596833884754176
0.0913847943794904
0.0558108980386488
0.0921651719730901
0.0556438907979937
0.0966792228389669
0.0582990143473163
0.103296647936767
0.0542826425372228
0.0961564579394795
0.0449156084112195
0.0979522888785796
0.0529409543287803
0.1156784291587
0.0517369752906958
0.105228358458085
0.0420037150464608
0.113216646331849
0.0546498176235875
0.100706557822857
0.0504054600467385
0.100469729831026
0.0657378755013521
0.090669289642112
0.0687785941716543
0.083617912987245
0.0802914643193715
0.0665954525023944
0.0886587089683278
0.0615091643449375
0.0922402746342253
0.0600586807180144
0.0956553827450756
0.0608520845852845
0.0882658450853387
0.0707715980341765
0.0825076255709065
0.0745185183995019
0.0746977803783321
0.078167248598095
0.0731164429311765
0.0781435003948211
0.0750907787202929
0.0765953339015546
0.07969152276478
0.0747848599786675
0.0807813766453312
0.0716184560687068
0.0766895926937539
0.0748724650646182
0.0766548769025655
0.0767918958271823
0.0761454235248273
0.0736836623854816
0.0739823745504379
0.0735523612312988
0.0752039396540206
0.0730697995290429
0.0786615606110791
0.0749784315630741
0.0793535367356313
0.0747738765409437
0.0750881586374844
0.0759052947754418
0.0767001849433645
0.0767848034540427
0.0756091271461408
0.0768385870602586
0.0789138596057273
0.0745328538391053
0.0763156834763296
0.0771752756813369
0.0782732448393757
0.0776943898787786
0.0780859594041756
0.0791768433597513
0.0758636009339824
0.079108499947021
0.076692512635721
0.0746822862747002
0.0768608863502481
0.0781840624388376
0.0791049274661411
0.0790794616786121
0.0778879112678036
0.0771942234896507
0.0772054742268554
0.0780183810101375
0.0769202250494593
0.0770111977073632
0.0773661808681404
0.0776388862754617
0.0783481304301108
0.0772913611723932
0.0778145953027211
0.0746733139335049
0.0774704773125975
0.0785800280175032
0.0764895601690864
0.0791130860048894
0.0801676404093229
0.0793602169785686
0.0785579523851717
0.0805633221378775
0.0768941654509327
0.0791754793301287
0.0784961966523816
0.0780653126575489
0.0786182732079359
0.0778254824706628
0.0786854283504012
0.0774986202409458
0.0773390688051979
0.0792769301590956
0.0781295400862487
0.080541189790551
0.0786792411496205
0.0795914517321349
0.0795006534561003
0.0798466426835364
0.0779522270938033
0.0785619467407038
0.0786021934428415
0.0800891500152503
0.0795099278579492
0.0797717199644414
0.0782553436449886
0.0805857399941331
0.0789942083654501
0.0795501407080076
0.0805413653427675
0.0815665681529188
0.0823125855920261
0.0807924853813889
0.082551003789735
0.0808331724253689
0.0806068528478622
0.084287968817441
0.0818546676943156
0.0817424102814832
0.0816466291970795
0.0826728238610499
0.080838537228598
0.0838045217960043
0.0842948992129057
0.0835812629630893
0.0818777150889408
0.0833418996443874
0.082705258362289
0.0826050478400543
0.0843346792743503
0.0822379432083513
0.0809263232886782
0.0830707161253159
0.0798823486588203
0.0851173737976456
0.0843969049044752
0.0848829994160418
0.0831431044581271
0.0864902810833462
0.0821727494840356
0.08231380026881
0.08374743586641
0.0847871230664208
0.0852891244952656
0.0849148831459743
0.0819290394888935
0.0853997909099007
0.085223855931607
0.0873389029367883
0.0838486256499748
0.0868274459518322
0.086396882759247
0.0867671891233954
0.08628866397124
0.0863745270054184
0.0863165178678396
0.0871141303145059
0.0851261883319423
0.0877445827639341
0.0838601337454669
0.0870089875733833
0.0885824006288279
0.0882759714157829
0.083005594711975
0.0875877851788351
0.0866610031136263
0.0869951061729833
0.0871084300570564
0.088408049085419
0.0869397769576339
0.0874351506900889
0.0871750888969352
0.0907150862052501
0.0907173671225945
0.0907460509000632
0.085636449729384
0.0899097812111806
0.0875147123714391
0.0913115067696842
0.0896867182298694
0.0895210152036668
0.0884895483223068
0.0901455733514756
0.0894017245850285
0.0889330026641711
0.0873372434113084
0.0906325507216386
0.0891175865586412
0.0902687116552119
0.0860646655212382
0.0895131388642239
0.087825066139685
0.0906880030561199
0.086671565956392
0.0881073356208621
0.089448173441575
0.0899530282333449
0.0868231624250642
0.0895025786947387
0.086794152265779
0.0875770087525
0.0862480280841328
0.08747331224167
0.0829857693957184
0.0888205229279628
0.0876633402844717
0.0891171717627144
0.0861126424016523
0.0885798193274687
0.0863949954396055
0.0872355137863773
0.084362117275998
0.0867182350039995
0.0850155836521222
0.086818531880747
0.0861543736332687
0.088955540551844
0.0837284298539924
0.0870321465874151
0.0845168402036467
0.086892941909943
0.0862156334217047
0.0868991331736234
0.0864863537314975
0.0861876638232213
0.0836569212531934
0.0858250819470897
0.0846116091675828
0.0854166806902304
0.0852600670238499
0.0855478101292926
0.0861271843638447
0.0863246605269263
0.0833166662200585
0.0849843402256425
0.0820631008792076
0.0831785495042867
0.0818541428061782
0.0841517763795831
0.0832322922285411
0.085875111634549
0.0807326373951309
0.0861740318736121
0.0823342396345036
0.0834091427296592
0.0822236827372363
0.0851466176305292
0.0813751324600916
0.084751159548974
0.079896214243742
0.0832352268804457
0.08167013715182
0.085038573246533
0.0814670787081586
0.0825829400738564
0.0802073724265216
0.0822546872369566
0.0806993606016088
0.0831223590228461
0.0803064493577237
0.0854026473570099
0.0810795482988921
0.0817284911473118
0.0810151942722657
0.0851104391551402
0.0829451672015572
0.0821984497763795
0.0801232887109119
0.0801909693828821
0.0784207454277183
0.0816205149516958
0.0792045959812155
0.0815926526809067
0.0814467371248598
0.0813827888810469
0.081713045389814
0.0828688761680737
0.0776749882276096
0.0825370454199215
0.0787754664610589
0.0809057399818153
0.077935270024088
0.0834039884932185
0.0787229465011401
0.0821319028557274
0.0791893349477747
0.0810769341925187
0.0765315996912714
0.0801404297425563
0.0783964576537914
0.0820277051839672
0.080327334248387
0.079685006937272
0.0770016140347352
0.0793030507742788
0.0789707680669382
0.0790210307476466
0.0794206579455528
0.0805240557015252
0.0764825720070202
0.0777143321936674
0.0771109952955436
0.0779040106613372
0.0792911034243145
0.0798753683359689
0.0766397061596878
0.0783272999617632
0.0733611788294126
0.0769777909028
0.0754125685161662
0.0772974313396774
0.0743453742743016
0.0761012120642185
0.0759980510383266
0.0763792861734428
0.0739620083880559
0.0752412339178495
0.0724715075799221
0.0732450605372295
0.0746727082226673
0.0744401031960878
0.0714033310166425
0.0725493305585952
0.0726078530865356
0.073086263832686
0.0729396962528994
0.0732724270500758
0.0743334340872994
0.0725852592741865
0.0674095415640869
0.071288716431297
0.069001978988463
0.069824656865619
0.0709650575828061
0.0718573419551496
0.0685974150961982
0.0723243988135921
0.0688112828960831
0.0710519688994886
0.0691861669372752
0.0684192530550082
0.0674573667836702
0.0699059658174669
0.0670914351039822
0.0693743665758484
0.0673324023625335
0.0674764152107597
0.0669462130508077
0.0675415658559182
0.0676992268813943
0.0679222194678734
0.0676361334364383
0.0675066858334011
0.0609266156381493
0.0714695455771812
0.0644588844012975
0.0683303808551588
0.0656282976164195
0.0674673136106688
0.0645504069403174
0.0672837729005911
0.0644043666004825
0.0689661585448563
0.066580367359353
0.0675193127630531
0.0652214453543592
0.0672409470826303
0.063016527796494
0.0680181630986818
0.0639794242715647
0.0664904595241602
0.06538034730345
0.0649356225569334
0.0641849147139837
0.0668839407180322
0.0626940619891482
0.0655512826787997
0.0625910474156723
0.0652491986253712
0.0624262987566986
0.0682545370608387
0.0619799813076036
0.0668161341886969
0.0624868741366201
0.0665386058461363
0.0617553294198023
0.0635464865363763
0.0633832152366612
0.0635971558660791
0.0603772702184621
0.0615975304884294
0.0618377492316578
0.0643617402795591
0.0622266793903084
0.0622075435542146
0.0593343904495526
0.0616812279779835
0.0586815477118613
0.0647140162483639
0.0588812273584242
0.0595798871647802
0.0608459149151101
0.0624618503446587
0.0600142910364267
0.0620746384521236
0.0618725908244825
0.0559404542106258
0.0733721477964147
0.0590719074742897
0.0625846043573135
0.059418198462519
0.0616538677691186
0.0608664132784188
0.0598402216016
0.0605778896813552
0.060826240008754
0.0592821986100951
0.0596942985518546
0.0589064449375246
0.0596725048280313
0.0601789482512467
0.0602825612650905
0.0605390532818851
0.0599766860928038
0.0591988435732821
0.0599699791351312
0.0592751926075131
0.0571232328569863
0.0641738168777874
0.0630457539504045
0.0573028256159998
0.0636125710080843
0.0489924663758664
0.0666020125792872
0.0640962139044848
0.0578553890182261
0.0637311851110687
0.0571292494305042
0.0614473691603582
0.0576596488920433
0.0634790072244711
0.053267492472473
0.0663483811044414
0.0557839928782686
0.0639610054626516
0.0574669630481015
0.0620979622131588
0.058003330004409
0.0598509336337287
0.0574645535549222
0.0608393796645055
0.0569440935613596
0.0589125390363631
0.0582968779212734
0.0597933555979239
0.0583108137207793
0.0602587128191678
0.0547296693882998
0.0656278775505335
0.0571978573215395
0.0614677489269748
0.0590020526750641
0.0604147059998881
0.0498887115482743
0.0738474669415891
0.0513963415364297
0.0623257822695765
0.0548284663421045
0.0611686664465589
0.0570354335455846
0.0628711395401594
0.0560400356493436
0.0594362780006982
0.0561742592835535
0.0604224556394156
0.057790454585128
0.0607392168535535
0.0555386350380347
0.0605700403966312
0.0603513972869861
0.0609919824287802
0.059888931751984
0.0554736593352554
0.0617121020728705
0.0535696908591067
0.0559943799252562
0.0731009614659065
0.0564712488903031
0.0680038298967758
0.0593462989754917
0.0623462287169436
0.0564969070266099
0.0650222715971325
0.0541460979819647
0.0655216542320233
0.0554178186185293
0.062397042351319
0.0551492531790372
0.0620631544072611
0.0537024954561546
0.0627442634083111
0.0551332845217323
0.0660748480916141
0.0525892289749061
0.0638729302709315
0.0529466113847413
0.067206816596827
0.0527138220624934
0.066598787996954
0.0564081876808507
0.0679699828997629
0.0468391270845162
0.0655464829781912
0.0807280290423537
0.0541985921778092
0.0696873853517071
0.056494542972796
0.0633009000476794
0.0593495164762313
0.0604918781633688
0.0596106482285207
0.0616829066466936
0.06254978837876
0.0606342939457895
0.0611384372479885
0.0642377675607375
0.0601511698972816
0.0476833001374061
0.0779587460745294
0.0623457071991967
0.0651057960668168
0.0655262389493066
0.0527954860667596
0.0784893921358199
0.0624550753198276
0.0657809181856933
0.0653501845977926
0.0622329903826687
0.065592460680341
0.0634756911286319
0.0621825615353319
0.0617398548621694
0.0674360657814393
0.05913087484552
0.0696115340049432
0.0593959170634192
0.0697666069884102
0.0615755602023284
0.0661264155799863
0.0713192486282965
0.0635755598400923
0.0638817055333218
0.0688917462357163
0.0637151617769759
0.0671442961908753
0.0635891748262416
0.0659727500458992
0.0632063962908937
0.0774617979855748
0.0609173297528988
0.0714291071240867
0.0728841887623543
0.0654323945924939
0.0683421368335099
0.0699719331927721
0.0717529418289574
0.0706939369604233
0.0491437595872545
0.0968060332728074
0.055497550658827
0.0911740231074995
0.0606329320723974
0.0804642222685057
0.061200434985657
0.0788834938927921
0.054586928691583
0.0828443472280316
0.065592785386756
0.075178382469871
0.0688861578277448
0.0734667269353291
0.0795213352501656
0.0730638719966765
0.0753977457137961
0.0748673642008716
0.0709821584345932
0.0752890507548125
0.0830020222348101
0.0530447629882079
0.0871995999718183
0.0874326605183131
0.0805300579032044
0.0885984751170921
0.0544884530771985
0.103443326512054
0.0769701309750245
0.0825734441904784
0.0760437943153367
0.0797972021738189
0.0816320138766139
0.0645453542561463
0.0952031830116624
0.0888765604201564
0.0734532873939367
0.0942945696447623
0.0661907937201808
0.0916353157352182
0.088105078233255
0.0865311719764015
0.0795933186287219
0.0932756221485977
0.070848461236399
0.101855172989464
0.102686376166641
0.0773133803977846
0.108308562535019
0.0829476260352909
0.101974021377773
0.088658029141652
0.0963298581380544
0.0910963128851343
0.10593573078832
0.0971800955541916
0.0942145762790612
0.0837652694064328
0.124928520256752
0.0906242274641452
0.109909779841409
0.100837716857184
0.0877874891763208
0.104061523151106
0.142641063999397
0.117256937182278
0.116767244851086
0.101925928959152
0.12437526288953
0.117341024318614
0.111808473086246
0.118620257795376
0.116534840616671
0.12074153401749
0.114269269153534
0.126741953996977
0.126290376695616
0.122213289539595
0.130018598124714
0.112863629112605
0.129896252118421
0.125991313207464
0.16640446473666
0.118179535623056
0.161035975154062
0.148181759143757
0.143737109655557
0.144689813483535
0.136526454342382
0.150240899804359
0.146148509757314
0.155928068316188
0.145405844397274
0.156758613578088
0.169438786760047
0.139571218203469
0.190350132303595
0.157376882553998
0.183997579743399
0.107205208002082
0.28293809683926
0.192339694280091
0.192295973751856
0.200571817623622
0.160111230051105
0.266900584519206
0.215252660280844
0.223848870411807
0.228449086093613
0.23531922520263
0.238540503198682
0.25858720402346
0.251354814658905
0.26695311429623
0.278463428790536
0.267331207061659
0.273210851887387
0.339146710708526
0.317010048656789
0.338059460034781
0.306652708777453
0.335617628648468
0.34209483790056
0.343519510689124
0.349163211552615
0.366602955873785
0.325539920978555
0.436038039287755
0.379705445075556
0.408863254515551
0.389776899175623
0.452297072317945
0.399169724901818
0.450921517942904
0.467377679220789
0.447339421658317
0.466830802731727
0.466747970909107
0.494974737335175
0.469797173429406
0.524373410427818
0.520445000715741
0.508284337696537
0.523535717812169
0.523791662844638
0.539258322498164
0.538759067650597
0.557258322415413
0.534371957770767
0.580775866281168
0.531635520094497
0.651340523563221
0.602204318524509
0.555842412818547
0.589589761894782
0.556148316863315
0.609203726043961
0.583072520014795
0.572543095489036
0.610968641338006
0.578548373523403
0.589614263233133
0.583983206628196
0.606142881457031
0.583235832700764
0.600701059127422
0.576180128041456
0.610667851069943
0.611184947704024
0.556959348189841
0.668656682165281
0.595517957841593
0.590487070565668
0.581452021371854
0.592553281451526
0.58170174830057
0.591874749618792
0.578372433752636
0.613306861791359
0.570241710519026
0.581367525075579
0.545608126961782
0.565217489462375
0.574915045740351
0.532774511216821
0.544994182448316
0.525298902966074
0.524488843338028
0.508134572816777
0.483961863107914
0.556091417113486
0.495195711550407
0.496617298500011
0.486793400070955
0.484249621686109
0.474906147485833
0.469467040233887
0.468960838905734
0.469338110000917
0.447919396223708
0.461119348921319
0.449824722564987
0.443676538077999
0.441024986820186
0.444925420815907
0.441393938058928
0.432942243522771
0.434794780023981
0.431346463841705
0.428793909965362
0.423674048487405
0.428821932149315
0.427535335994902
0.425582204597832
0.429492164792147
0.423353002548338
0.41843604442801
0.421146085827611
0.416197040860938
0.424139261745379
0.42026244682655
0.421111504846933
0.417852682759636
0.418438637482701
0.420268373020417
0.419902139757887
0.412116754259656
0.411045668909123
0.408134279836296
0.42028860535076
0.405093774458739
0.422772347898449
0.388779394551735
0.427959181822509
0.436345064821667
0.402553365911911
0.421169634632588
0.396207965720808
0.41815446748921
0.387669672177251
0.426899930435694
0.424499602869908
0.400057005165175
0.403883512289492
0.398781908013603
0.392955764949258
0.40898026387093
0.386580906558743
0.407217672206389
0.375287970961818
0.388729829845129
0.455353366665983
0.351147459652327
0.461306753718492
0.399942473559827
0.404536545553359
0.362600381997973
0.432873358339812
0.384049416670894
0.404208153051203
0.383159856394573
0.400860598537132
0.402401932967703
0.379751065807395
0.391098710450485
0.381217085131457
0.382967729208584
0.407913676746584
0.379550230565949
0.369098711295473
0.404645185012042
0.360940788010827
0.394597878941747
0.409581450871659
0.393479297645256
0.363872896772619
0.360265612996461
0.364752429226404
0.338706044883625
0.398205960760309
0.359549586780059
0.353468424875185
0.349339302448795
0.328938914457741
0.344247911337195
0.33375508916076
0.352675769033853
0.313373057688265
0.366198817796698
0.318709915596613
0.326816251091549
0.334736898387276
0.320551373878591
0.348304122680823
0.319007580679092
0.31111796356397
0.303154036392392
0.349466267082666
0.297313145727287
0.315123901627487
0.300421570183526
0.286364844649821
0.313564188502445
0.290184265667122
0.279070572425588
0.296248100321651
0.269860964297867
0.298646701164654
0.291978234781293
0.309224125708639
0.285087920734843
0.266847138042627
0.271682324272668
0.265905360948919
0.270949942329203
0.260258912373898
0.259063866461989
0.287499637701389
0.231804117522774
0.305330771710658
0.270719045969067
0.266167579024015
0.269901278084096
0.268054755430778
0.262241284326287
0.276467651454438
0.284687449490882
0.286850544828751
0.261493924876039
0.304483756557462
0.276316699999914
0.291318706231884
0.279081369118509
0.297546715607641
0.288172697833989
0.307539414803031
0.303614092057913
0.310660800122132
0.306954147309476
0.32606157969221
0.303760668118315
0.364849635453163
0.315067291291247
0.365009984374712
0.347965377942945
0.369691700898028
0.378257237768894
0.364710802319056
0.387004419516618
0.38289486783609
0.389269030941841
0.395899080993922
0.376919325229566
0.43542828147284
0.397539395358018
0.415139777720415
0.408999815876127
0.42482921749272
0.413144599199116
0.434956793423642
0.431651519193103
0.433233919128201
0.483292724245367
0.428611410307147
0.458855458999197
0.439918502017516
0.452384473565177
0.455710588166074
0.446679114573581
0.457248859473394
0.443253185397945
0.480155195394055
0.466233565172924
0.460105335056738
0.467689415270383
0.463266492599712
0.472178447049524
0.472435564520995
0.475502570540577
0.478857569267183
0.477476395792763
0.491077226484076
0.455981700505359
0.533665553877281
0.508658128514899
0.491135957842081
0.506248940844486
0.492495208440318
0.507019574425536
0.50014531586585
0.51462102985683
0.51928853356094
0.512894535510141
0.525499127408599
0.520670995590321
0.529012623747812
0.519613160748219
0.547037448563615
0.528396982111968
0.532875352487082
0.529961804920197
0.515130143630207
0.593522736029446
0.53704531217636
0.565015536866403
0.545459350600718
0.563355011647432
0.551122949951804
0.561370129927389
0.553899965462251
0.557884309585759
0.56234857542857
0.564975239086684
0.561703669563033
0.558391746927539
0.565896857809275
0.552785025743562
0.566204308430766
0.562565916012764
0.559393159625039
0.560460621575483
0.557065660568581
0.555129351534717
0.571072203792565
0.573571969371681
0.552779868103365
0.566023053329297
0.547527158982158
0.571514536726646
0.571468956291192
0.550897055920754
0.55616354207739
0.564032222039122
0.557386370983237
0.570677658613868
0.551566987465567
0.588541613598048
0.564466146879296
0.571530928087034
0.569017376588971
0.571483143070789
0.577536059295975
0.582180941043736
0.574321945710406
0.587021136895323
0.586388691266132
0.590909352251891
0.587499932878681
0.586462673558556
0.591970834395599
0.599887173172559
0.601012381320659
0.588477150406884
0.587428962209957
0.590612258561171
0.579730336441346
0.586442921974928
0.57342093263373
0.579434253611517
0.562114621573235
0.568497239949816
0.551849212232608
0.565649405548065
0.554211108640174
0.554564207256873
0.553430147642777
0.537660278871783
0.548248029380378
0.533906747620068
0.536648618943952
0.528476969274107
0.52459143171123
0.518171065538833
0.521974054952812
0.517036065527942
0.519366649881828
0.515514204222277
0.511134267333601
0.514350307983944
0.518569485120198
0.513121223886949
0.51034069620878
0.510112008417206
0.504683234246062
0.508599237976273
0.50711721864032
0.511837780299713
0.517095871937982
0.508100846837023
0.513515787946773
0.50428768708417
0.512596870910627
0.506001742890678
0.510947422985734
0.506420222143691
0.511976329779672
0.503254230166194
0.508106666905453
0.503131303561645
0.500201513843174
0.501935597244475
0.508215486894259
0.504220605381326
0.504637519966267
0.503902559075765
0.501385675575258
0.498246600280472
0.499637401778279
0.503366961072443
0.506263166968713
0.50677557699019
0.493380627448328
0.501446367301831
0.498013204232997
0.502750247587052
0.503018801982454
0.500942750097119
0.502334627697415
0.502304557476963
0.503274017665468
0.500636469132825
0.502704726497287
0.503050235558595
0.501989042392673
0.500206213518631
0.496248528648354
0.496329947610686
0.49438675640824
0.486298272586932
0.481903463747024
0.482875226815178
0.477008501938389
0.476249887806848
0.47327370715741
0.469529883389847
0.465594593771745
0.460591870021775
0.457699708387227
0.456378102862084
0.454248830257344
0.451236150219245
0.444581077663865
0.441450665705739
0.444124932020209
0.439863594562799
0.438658687748138
0.442066563787008
0.437363565910389
0.438003195419432
0.436619876644628
0.439224803592999
0.440460642758056
0.439695996744545
0.436227552897578
0.44064121510956
0.43703939459708
0.438008943731844
0.44049624948781
0.441766375996565
0.441749140144046
0.44381026862682
0.44858504118842
0.449941436456619
0.450098295837556
0.447086023424462
0.454869701494402
0.460921749055091
0.455572997482322
0.459819946313295
0.462341280577783
0.462739227636466
0.461289896021831
0.463027094624442
0.465423536878277
0.466249852432981
0.465471023379782
0.463958521516127
0.464992766560528
0.465152820535911
0.464876050763917
0.462106129259771
0.461234697556474
0.462624745548324
0.458347441307899
0.456595988739703
0.46051842008178
0.45628819779176
0.454854336015993
0.459281915770293
0.457405023932735
0.451336539346557
0.446643538061204
0.446816525739831
0.448452475435698
0.442534593424577
0.439530790751501
0.44126853052478
0.440258515307026
0.439159429820535
0.434290133900239
0.430572579612164
0.435897301423007
0.436125339505123
0.431686480549778
0.429564323094632
0.42861806997868
0.427887451665671
0.426243052830529
0.426220885328041
0.424127608202254
0.420729258418993
0.420166233336146
0.418227469830333
0.41838420242207
0.414455523697266
0.412507571744272
0.412553344761049
0.407166442424617
0.404053535570006
0.40165808868445
0.397989386394975
0.396949190337987
0.392964464132947
0.389492300187267
0.387711279535576
0.382847412236945
0.38335756306117
0.379570427394802
0.376998809296216
0.374935193678615
0.373082274391077
0.37327452587967
0.369738449736885
0.369325492571253
0.369995397987683
0.368242841506334
0.367782529341145
0.365169641014609
0.361970829550689
0.360803043215221
0.360505384351472
0.357652760629415
0.352962095184533
0.348251206520503
0.345678660029561
0.34082083246944
0.335213614853285
0.333923913614537
0.331136250989354
0.32718486047835
0.322873089155099
0.319869012516784
0.319717555544398
0.323099583458582
0.324493989557024
0.327330633495551
0.333279719530034
0.341888152007058
0.35042884095176
0.353329290379457
0.363926080002271
0.377915078779833
0.391559593792914
0.404120548746067
0.417214669017797
0.43830338161467
0.45008477222517
0.463850807796987
0.4828611645196
0.500073148513263
0.510654745192046
0.526383509198987
0.543647597469588
0.556137352876068
0.57393180993376
0.588541056103369
0.603720080914243
0.618152064669309
0.625743352588835
0.636894166140812
0.654381061527723
0.670801560917365
0.677753897303953
0.684281472044937
0.692046156649769
0.698199178048616
0.705376760362913
0.714179118604852
0.718401751686558
0.721871423432246
0.727280742121267
0.727939668959999
0.732174600522251
0.732954378884423
0.734574913175435
0.733265372959857
0.727299520247813
0.729203528902678
0.73397496501515
0.73973471169673
0.731843958534294
0.7271464542403
0.733208855056375
0.732226096610955
0.740577752687658
0.744561192055852
0.749989755422417
0.759713502742559
0.760653635296496
0.77046022547775
0.776606700631947
0.778242397233272
0.782467007163993
0.793874722777226
0.802408466715728
0.813648724932552
0.831114347668951
0.839044328112136
0.850399301777485
0.866052710716629
0.869874804482703
0.88851079469637
0.89205199885104
0.894994597174004
0.910589642241061
0.917936752205696
0.933084778310848
0.929288306654442
0.92710602590193
0.934580711191523
0.931658749407403
0.932922153987203
0.926059598284482
0.924746270746369
0.920354854972476
0.918509762448941
0.911846352548609
0.908927524490435
0.915365086986406
0.924092910756844
0.929816163910042
0.930197134070861
0.932364488951944
0.94865478939773
0.962838155105832
0.979552950607911
0.997649475592163
1.02423703938264
1.04033059213365
1.0345796672288
1.05361247936427
1.06945950138068
1.08339396620603
1.10019684786016
1.10732691711557
1.12511037231588
1.15438754139529
1.182457018721
1.16774553986778
1.20498080045495
1.21895790296352
1.2305182530027
1.28121922659126
1.27392651716771
1.28586724728746
1.31388833016026
1.33732305429025
1.36372247917883
1.40962111971758
1.43557363625058
1.43197057272956
1.43633135944082
1.44246887793381
1.47463398589623
1.50479041759192
1.50858664317404
1.49379423476919
1.50852108777839
1.55925601269027
1.57122273707745
1.55018767576184
1.54341746568678
1.53414892572789
1.54597668053425
1.55323492583066
1.56630241307131
1.52989573000296
1.52013467441295
1.49216938077604
1.52784720029464
1.54089095756801
1.50958203794799
1.49882832443981
1.53250942715938
1.51403377105525
1.50309238565218
1.53844879378937
1.58005897820762
1.59132311891301
1.57461818351973
1.58667154486435
1.666946619694
1.6574986104043
1.67190777069769
1.64112053730963
1.69653982867214
1.77233909013568
1.76019425095379
1.75104146698622
1.75151393969486
1.72616559691594
1.79404741398206
1.77902969505111
1.71826405557679
1.7534905779657
1.80743751282789
1.78983458347302
1.79552639077292
1.80292876596423
1.91686127242806
1.94868800460947
1.88400441767376
1.86575594061093
1.94076423176427
1.83913871668424
1.92503523739979
1.8074714299952
1.8711827470891
1.999565746951
1.8560111853357
1.85276518186673
1.8879503686985
1.79410553710421
1.907788748888
1.8484735698501
1.7932040516723
1.75808497313905
1.78640465608839
1.8656034027764
1.85754322876255
1.66490167134117
1.6024710546296
1.53244436073215
1.55028157946029
1.47086802621807
1.40120661898636
1.38630781738733
1.34481663458324
1.31189862713801
1.28569540861454
1.26059216141038
1.25901937487376
1.26864742556616
1.2616330534314
1.2586722157206
1.23214879994972
1.20135857540929
1.20141222866013
1.19120335806764
1.18157666167055
1.16440356878575
1.14420797847742
1.13482342639933
1.11987756034413
1.12274245048794
1.09657130889985
1.06479445677114
1.05022510748018
1.01959661321793
1.00578356203215
0.965612636878074
0.954102700677591
0.913611107447563
0.880436308573477
0.84704192506684
0.813580320906061
0.777380670665042
0.7379672049565
0.703542780805817
0.680411308292982
0.659173536686661
0.619836285339426
0.596830158031852
0.577261520180861
0.559696197743085
0.53647645893584
0.518676626248245
0.504860255613801
0.486094094090643
0.478628984475935
0.464287232669799
0.455157081252868
0.445123687194309
0.434874042192558
0.431701195116778
0.425050015240732
0.426673945201503
0.425093317467503
0.415574462025055
0.422005552620599
0.419479178673545
0.421798472438014
0.418256758045012
0.418617691654541
0.420327468918822
0.423633213857685
0.421797626376086
0.424590726274365
0.433802230524558
0.432873496655449
0.425109846700535
0.4230455739098
0.420850700857976
0.422431724137655
0.418469287663129
0.412779486505142
0.414753165245914
0.411137389781834
0.407326979966302
0.406181898902791
0.400799354315134
0.396236620558208
0.40100821395628
0.395640236022536
0.389598505036262
0.397405789816174
0.395432676841392
0.398700183450953
0.401937310217043
0.404337410427734
0.410182880188651
0.410219147956883
0.415069530040058
0.42179215610271
0.417651841618509
0.420361210806055
0.422206632852684
0.424206120342095
0.429501402977377
0.427284046039474
0.429901450423286
0.432430233400727
0.436173662390115
0.442278854252952
0.436352669471973
0.435093145568463
0.426986177146261
0.435658413041371
0.439985569358559
0.444023739539886
0.446261801447148
0.448564873927207
0.458287258663242
0.455408399760183
0.46916811823883
0.469717700067164
0.474581580216353
0.496626221520793
0.50324162653751
0.521526681173431
0.525591879216965
0.548002075371231
0.556278923669851
0.562843721350205
0.573724262208079
0.582932817568007
0.579828566511184
0.593539237793437
0.591611676371536
0.579693997508161
0.571685522405005
0.562229385597624
0.554192656949588
0.547887645707781
0.545824726139324
0.549397185893984
0.53288511888942
0.533212702486043
0.52629232443152
0.5350950853195
0.532113173391675
0.53704400626279
0.537620365328211
0.534400363292724
0.536552774935056
0.545192546720172
0.54562841620619
0.530837414080452
0.538260560411587
0.536044039506442
0.52357695182557
0.516344178169758
0.515145425530184
0.508664794859753
0.504072928423364
0.500744981714963
0.505534445513389
0.502628058988383
0.489073223494045
0.479411394017781
0.479654872460119
0.485798677500032
0.481435542566156
0.486365821825444
0.491112895533236
0.474964451739734
0.474270601818193
0.483231934745602
0.475957908471948
0.466050372488304
0.471651953587989
0.47684468459911
0.472933201356433
0.473998869040953
0.469158516366711
0.470420315911874
0.474328237565539
0.472224653348715
0.472217834067288
0.466808493582402
0.465002437116041
0.465876988846254
0.468241956788414
0.459133114714859
0.453816339703371
0.455310542943157
0.457864943642414
0.454380867060265
0.465275527643076
0.457641388401807
0.447681603840757
0.468203025745958
0.455705121372947
0.449092485970494
0.448639784792022
0.449852641248933
0.460623040628758
0.472704247144631
0.455804425520099
0.453828709529466
0.455887213748543
0.474322477042355
0.467914426881081
0.465711143078536
0.465069517960443
0.45291961644966
0.46506752009484
0.470392213298466
0.464540807094428
0.494857619555214
0.476881353416485
0.489265085825564
0.497098801647236
0.500287271639572
0.491972272411973
0.492741913859183
0.48446887845791
0.507199194043935
0.51653653141731
0.491791824089121
0.510560076854378
0.523572542259307
0.516867157757872
0.539364411697221
0.550436221019824
0.560196387937116
0.539292381720175
0.572583714177641
0.560915481794837
0.575180110450987
0.58316311474426
0.615962315937178
0.640472664302565
0.63881871940533
0.632845422559041
0.663193303405009
0.680100844446486
0.692102969378153
0.68730382702702
0.702046584661418
0.734227933578236
0.746598882109311
0.75178400989175
0.772753212416076
0.761664443659574
0.771297730641053
0.743859738563502
0.791399505710127
0.740799566883542
0.773829860526243
0.791389597476901
0.775165880736742
0.744498302365643
0.760491516210683
0.769579768507552
0.747091910381008
0.734370922116835
0.722477059308012
0.731100062808979
0.769901626287301
0.756558481574304
0.744873418212804
0.738777333998295
0.745950339222543
0.733816190115326
0.730490954708744
0.690443764285974
0.705024248991116
0.687578152552612
0.762396750722076
0.702050477057294
0.72057253776356
0.669282731391711
0.716880956642625
0.714410308877889
0.703707401344426
0.714576432908334
0.741201478640231
0.692894636815214
0.724950453914819
0.686404141427055
0.68953986287737
0.68520736061597
0.738505790642763
0.706687337759583
0.702125556348493
0.699929008136485
0.746254394303028
0.723357461444333
0.712477912740068
0.692975413538264
0.739252058411684
0.688860425202372
0.738361504604078
0.69734215520905
0.784728991270708
0.747153948076174
0.76258627198803
0.714085210787757
0.735334770346863
0.726899793460007
0.794750932648683
0.747654015243223
0.787500369730533
0.717883557354762
0.871589547386782
0.773509416084247
0.736921555302949
0.721403114886384
0.837084753366729
0.764112642608534
0.795163899860854
0.765561623774729
0.789301442854923
0.831920847570005
0.862236145107478
0.933116690428747
0.777622009886591
0.806683519919789
0.811170744646398
0.785449732196371
1.03702802610923
0.905050498108681
0.822678251497131
0.851603270884871
0.814254049289705
0.885797208598833
0.855653033450543
1.03140108860851
1.16118420235277
0.918087595993206
0.897734894968189
0.927835960458465
1.01901323622282
0.913132327356037
1.03884190108305
0.848287259870371
1.02757487544923
0.844606003549157
0.919932143953951
0.897835784576963
1.18227670271596
1.05692507117184
1.43251481231943
0.873750891728944
0.943349421353515
0.746235063818478
0.818994714324662
0.775560007968968
0.988105491942263
0.867513240245215
1.10886956319119
1.04472199711076
1.13264521293931
0.796735207412915
1.01297004333623
1.11746046635356
0.955680159044062
0.966126927319268
1.01370048384554
0.702981804467078
0.92688908238804
0.776196302765943
0.91957541125788
0.858970651810222
1.03009522604048
0.924332313472916
1.08787644251372
5
1.17420609958208
0.843417400442246
2.53694765011664
0.621911180368427
0.898644784211404
1.08882597870375
1.11186073312039
0.866910166028776
0.981241010459503
0.987028661531932
1.0246709260393
0.763145504490724
0.746660207101831
0.76759888227795
0.737639403365505
1.0641479596172
0.984756103045535
0.860742588351696
1.56011631686015
