3596
4000.36533379555
650.420452594757
1
2
2
0.0400653591710516
0.0262681604329813
0.0442358438560671
0.027999654521215
0.0409319016719258
0.0228612415075066
0.0479003857727498
0.0306758166580293
0.0374468988040633
0.0216329319242889
0.045327330007626
0.0204738147796786
0.0365593606060098
0.0258618126000105
0.033663067190163
0.0229722398783003
0.0429844387349534
0.0186078789531593
0.0385752905230972
0.0196900995598925
0.0403266130597176
0.0247643117938038
0.0344174369586788
0.019058074109786
0.034247742573826
0.0265387502685418
0.0454675284271675
0.0225064473149327
0.0384215510547289
0.0233485134174273
0.0451457496073199
0.0264735622752522
0.045197956681003
0.0313642984201855
0.040778608258293
0.0264630486634183
0.03504429298643
0.0289676494474786
0.0384694258231636
0.0228580453672957
0.0460365396466088
0.0288888232737572
0.0416375744381204
0.0196508139734922
0.0373461174889843
0.0231220180794471
0.0419407325998444
0.0332282033118142
0.0389125101946121
0.0298844112790183
0.0436400132457314
0.0236731316974661
0.0446354132824115
0.0279152240214618
0.0314921122394764
0.0307829285454466
0.0488331396646317
0.0258290053546291
0.0418908451843053
0.0230377014927798
0.0405672098978687
0.038890631440847
0.0438614937271225
0.0286420261999874
0.0356542919957441
0.0209704832773136
0.0433953212669155
0.0230028291515577
0.0399072103364965
0.0265994532661998
0.0290455526609874
0.0217066313676762
0.0458032517564943
0.0283366807042737
0.0457265805495535
0.0278650917295982
0.0365181046692367
0.0198860266886009
0.021669251864098
0.0247049786273793
0.0482515809066273
0.0283564315012931
0.0412094574771021
0.0244340706525529
0.0356824429356199
0.0388264179839147
0.0310597256901029
0.022500569241786
0.0467740908332994
0.0322844817286238
0.0349866082812278
0.023798825890263
0.0326790395172176
0.0242111873739559
0.0307716953498628
0.0237928738158314
0.0389771111165882
0.0236231171734166
0.036112399977909
0.0360769462172167
0.0324870658644366
0.0133358567122585
0.0693985939399786
0.0100099117790627
0.080693813672315
0.0288980093567716
0.0179109535066841
0.0452033105504262
0.0458650802502399
0.0354088533641477
0.0338737366315364
0.0299978946243289
0.030340012751364
0.032532666597042
0.0189566312769137
0.0284981144951232
0.0658055795713416
0.0292842584619567
0.0347475155258469
0.0333182517238374
0.0043799366592529
0.0230138894887249
0.0730524207679161
0.0248469305696705
0.0494182021715521
0.0241811561096107
0.0148352825155791
0.0283967226259562
0.0552896336278381
0.0292841495980096
0.0313223835781094
0.0278009063430342
0.0255972442715768
0.00288685827633293
0.0588409555854849
0.0281457586650151
0.0300574419241437
-0.00679482695196094
0.0402628875091889
0.0597000023724003
0.0558645029738231
0.0309750726047104
0.0245335727110344
0.00438672745588514
0.0672541110981659
0.0360171784887702
0.0310281467966075
0.0368155872728276
0.0493710510951044
0.0258930949070938
0.0314390543585968
0.00946890749120003
0.0496455138556376
0.0335668171218073
-0.00998723007714234
0.0272863646102929
0.0706222781128515
0.0252425112191738
0.0836715078937403
0.0281497105564294
0.0485746818116111
0.0254965681485398
0.0391519500262914
0.0125422020187458
0.0327680972236581
0.00905183075856157
0.0349731573631996
0.0425273980693314
0.0302103526104716
0.00975599267349443
0.0500599199377102
0.0177415286617996
0.00805810394251965
0.0616004465514715
0.0494557949628475
0.0074972397340029
0.0587158520678889
0.0369756087618159
0.0185077645666904
0.0136567458124797
0.063041015833339
0.0261372315945212
0.0421310897865149
0.022610094872043
0.0254907980782182
0.0323007580043908
0.0421665751864493
0.0204429355913005
0.0358092379873508
0.00441419996864436
0.02721182571757
0.0507933261312905
0.0650130714810544
0.0225244172880474
0.039676140477553
-0.0042509889873559
0.0606888283352295
0.0536671091538658
0.0420274997880734
0.0202487965178816
0.0315777397415392
0.0184289451427447
0.02827068295742
0.0276748984406083
0.0281242430255528
-0.0092943536759823
0.0608370127484428
0.0427426485854381
0.0380241836166372
0.0159514017374862
0.0240021516860939
0.000735983409684784
0.0707655519056281
0.0535669030593192
0.039279713128876
0.0276298358158596
0.0275862193190978
0.0204237094096467
0.0530355764672326
0.028487468657093
0.0405225151032252
0.0255043169576521
0.0352485604304144
0.0245550828824085
0.0363732151914295
0.0224662691255331
0.0392000395286977
0.022962261387465
0.0297682544758801
0.0220285562445872
0.047420992287371
0.0295458554649728
0.0348511232065552
0.0270482226306387
0.0184645377325618
0.0204735536840225
0.0561678698881811
0.0303742036642553
0.0437417434885311
0.0267846805893809
0.0278459764364223
0.0251192907692699
0.03978171374398
0.022428430282344
0.0259329337045121
-0.00230794031996631
0.0511302669049458
0.0321475955296062
0.034888380295573
0.00508382588858544
0.0427312554210906
0.0318290627541578
0.0418807842613598
0.0224353595200975
0.0373151463496857
0.0160735598590207
0.0200424775965622
0.0444827219102256
0.042983501069652
0.0172774258000723
0.0470818689635426
0.0360512018591393
0.0280269296753713
0.0121960417120375
-0.0111342355874755
0.0754260238953487
0.0404601875429127
-0.00562315329919353
0.0923644427533616
0.0416123017097068
0.044853817186851
0.0192112582226099
-0.00642056577766369
0.101560948790511
0.0921369440196195
0.0291978807867055
0.0392504621007419
0.041961101439207
0.0308013958160312
0.0252131073205683
0.0285601179901441
0.017912125242886
0.030746494601458
0.0247317605148926
0.0932867602642164
-0.000367313905531866
0.0471459202171743
0.0550005891767798
0.0441075534183967
0.0274211450528511
0.0279974386520455
0.0150312584988713
0.0413615928262234
0.0347922393834584
0.051286611227598
0.0329727349036528
0.022134745400757
0.0556136918256481
0.0491843433390247
0.020349544004998
0.0364710390965883
0.0376716929607559
0.0397715093938734
0.0287995093683728
0.030795139506174
0.0342348296807566
0.0202198921776568
0.000955377284626916
0.0841687433074663
0.0382948955553529
0.0251582678310245
0.0464797094854733
0.0458874321396304
0.0198062747191992
0.0352897996756684
0.0292308089985474
0.0369209045298757
0.0200587142194621
0.0136823427595545
0.0381729613555267
0.0472827034649783
0.0222128024483483
0.0335228448764648
0.028342052383917
0.0341957085404668
0.0239878256838117
0.0315099745323541
0.0247827605822191
0.036987308589835
0.0100891274421667
0.0417219759673919
0.0580782074274759
0.00365468325745888
0.0390970744245565
0.0710744766028344
0.029416057746786
0.0471268803343105
0.0277879217489924
0.0408515905047828
0.0264270239279196
0.0393517987703797
0.0232938242080216
0.0276417989355033
0.0288296689999992
0.0496308319542586
0.0165902621714037
0.00962801226478109
0.0433038238140646
0.101429511016401
0.0460365958737214
0.0415256393269044
-0.000594197835942441
0.0489782287753136
0.051912413102391
0.049821977169321
0.0558953244707049
0.0427463866648185
0.0389186614981112
0.0387053422704038
0.0344470648162347
0.0477419197713348
0.0433826302374913
0.0392482751712102
0.0349547645409477
0.0423642922262002
0.0433737206912856
0.0368780345628539
0.022564767716725
0.0750732950248733
0.0543291366255247
0.0474148360863379
0.0403179395262753
0.0357650337644263
0.0382928816752147
0.0507140654962549
0.0649782636805843
0.0717471803503326
0.0417307454675917
0.0910131615513941
0.0464251907791121
0.0714624691557594
0.0493626247753315
0.0590516850006956
0.048091358652726
0.0568946915066812
0.0479306676104279
0.0556290826644647
0.0507638029426801
0.0690588944464555
0.0509109472993657
0.0573711793665425
0.0410025077287932
0.0798332615889289
0.0559024550223974
0.0687936180890565
0.0467074110994472
0.055405626152928
0.0667336806670553
0.115934333528023
0.074897506934117
0.078236258580249
0.0715583927982865
0.0718755490825315
0.066460940403669
0.0669900899997404
0.0627252239769684
0.0648835923668953
0.0671918841500966
0.086693899981382
0.0794663132508313
0.102211170011665
0.0587842152648457
0.0860313104539202
0.0703363843101322
0.0857431452289658
0.0918442755352573
0.0898887767406995
0.0666559931823125
0.10489560571615
0.0977599328932356
0.0958452043704668
0.10449214258214
0.0949587124099878
0.0922643234507647
0.0992925257313124
0.0917150941125985
0.0981425608821574
0.0975450854854552
0.108530653055989
0.0897680237358351
0.0964303823494835
0.0883876160198181
0.098334393100525
0.106330442804311
0.115444098735367
0.0953919369375046
0.123945596184726
0.0916886147987961
0.128485917633054
0.0930693087171445
0.1226300757498
0.122991464862201
0.121852776620305
0.122595841749874
0.123448581317265
0.121382051863235
0.131863909002661
0.117288137331233
0.13315634912081
0.114662441532968
0.142263515005014
0.130827074697622
0.1431544234085
0.134700496880074
0.14740100930657
0.129486012431031
0.138349286382052
0.139275191782129
0.150171207638788
0.13379447779876
0.154470570356665
0.129057032793575
0.164476453134276
0.158316798653558
0.162720556793019
0.160171276471926
0.163445435151442
0.154274715302722
0.169151611131703
0.157912897420391
0.164562613379499
0.159882089788225
0.172958901124355
0.160824174231328
0.174194435049389
0.172601839518669
0.189363918743748
0.171747268766657
0.183076292616009
0.183235587145188
0.201891256951332
0.183198192963599
0.192812967761862
0.180450984583302
0.191860579240468
0.199597449540513
0.202002849700762
0.189517333300805
0.220356505020096
0.210187881999049
0.218417343665824
0.189594142035439
0.212383044703527
0.210244229863932
0.222525003783627
0.195138386096364
0.216237131270097
0.21346629982559
0.231789971639674
0.219530447891624
0.246641170881208
0.216604588188734
0.236023052459668
0.2203889481809
0.244207800782535
0.230424002513612
0.243710370833123
0.236039366960801
0.24745371162135
0.230764895744831
0.258947171556588
0.251044142686947
0.266313912986756
0.24874389377076
0.266192972801961
0.252841931257987
0.268015898078709
0.243680402907727
0.273285756892646
0.247552766976254
0.265409508037393
0.266681500162817
0.29804794948362
0.271346419502794
0.286705989536482
0.285921769656246
0.298149304380846
0.275027487166623
0.297409104549286
0.292568607743145
0.301837013187883
0.287824215339155
0.30266746941573
0.274799485998411
0.31211145408676
0.300047410375257
0.322898687078665
0.29783453414406
0.306991971000421
0.307324836622022
0.335291745818219
0.310326540638852
0.332390107644896
0.331155582827449
0.341929183753608
0.311966617660005
0.348194525166337
0.330491350297627
0.343468787903084
0.326769836457498
0.35862105307508
0.336332387112385
0.342144639791632
0.330619296294457
0.359542799359835
0.344051828239992
0.357066947252481
0.341309925579402
0.37665895205789
0.360639640164971
0.374631342223987
0.35125752357901
0.365413701884051
0.357933934862337
0.375810930244124
0.36041569310726
0.390505733363635
0.370727819005845
0.395688990412968
0.363677173114224
0.394909389808413
0.379723452985523
0.399425331795934
0.387457197575946
0.408399573011053
0.411367351395877
0.40299309877316
0.378602786271845
0.416996047187263
0.407035179609569
0.429882875524993
0.412290003643208
0.422636165334397
0.389619807922211
0.4226303184911
0.401629159633932
0.44445718667511
0.429521767895095
0.42165959184108
0.424368371451254
0.43079748441911
0.40477841276156
0.447910620465672
0.434087424680731
0.445752160589203
0.439208188770495
0.45028721663213
0.431625945404355
0.457600088423953
0.430607155156415
0.445867179014091
0.439131142694675
0.453784140720066
0.444578552295297
0.456792472334015
0.451971573945175
0.470392733983418
0.442128479859932
0.483787940990271
0.452435326688733
0.465352438712195
0.469765126430849
0.49236656525006
0.484448314716566
0.487297768723516
0.460353916968206
0.484150967291666
0.4608786047268
0.474370629827015
0.482633788288367
0.483107970543407
0.468424619231255
0.507340938599191
0.490630493257671
0.507884450626344
0.490042870018877
0.499613926329533
0.478683797505019
0.504747664883902
0.483537584829639
0.497210065038524
0.487779385037686
0.508577709875468
0.491675439993763
0.524163850386267
0.503666670816673
0.530754812775431
0.513563733838882
0.507649436114931
0.50227804331655
0.522032115939345
0.493315490606121
0.543454976833518
0.527286450676196
0.534843352678183
0.511520469020791
0.533578555470585
0.505214169180699
0.527603563580428
0.518529752969864
0.538629127173687
0.524720691541411
0.533391527501247
0.521927581645854
0.547924826469864
0.523874593096031
0.534369103014307
0.525567834914436
0.549832204385484
0.538670508331902
0.533600306927936
0.528691557086965
0.548852263198952
0.535604005441244
0.563815508444777
0.535138922077086
0.559158105449894
0.531906251865817
0.559605311835142
0.52861011492443
0.558899419895021
0.537431672356416
0.554910272265751
0.543646219710268
0.552292005816721
0.530006827563598
0.567717552175648
0.530109104149718
0.549256761258331
0.561886194685603
0.570192804727571
0.548071784925348
0.57052634117037
0.541162410998635
0.561850033761038
0.545557678274828
0.555611517556578
0.55203911929147
0.554632971406525
0.558784883802043
0.574269474483578
0.542734064688168
0.561975092668559
0.564706458023506
0.572687921731472
0.550514419651419
0.55453429235026
0.552791541197205
0.567096766756096
0.548896121620868
0.570361793046997
0.553998577552477
0.571194850733986
0.564615014401926
0.567117444566876
0.559044723559993
0.56878840586479
0.552027845287123
0.559132860599177
0.545737982950295
0.575301290227789
0.5704176717384
0.567775401152895
0.566233797286263
0.577893321808946
0.577141251252707
0.576317656109871
0.537681776423103
0.565104372991305
0.562227251052587
0.571141703102716
0.55450573431004
0.564454542615598
0.556479331570095
0.555711364849916
0.545803619808909
0.568418234155502
0.562794931969855
0.579373739803335
0.568413672636364
0.560972842844513
0.557550982463546
0.570304356345084
0.549964190657935
0.553701399686716
0.546908610287573
0.551605806751294
0.547816315408776
0.560966490008867
0.552964699326511
0.560961288129946
0.551058665813223
0.563559753711619
0.554261923348476
0.552784729803749
0.534349634687309
0.561015114419953
0.558033301948334
0.545734465129892
0.546811052730926
0.555168670177815
0.555588519312608
0.560149973241927
0.531393123422656
0.552252833029634
0.540508245665385
0.557405754801022
0.543014032407761
0.546453014593831
0.540229356477757
0.541610914498359
0.543174534633262
0.563842753318222
0.538151573091103
0.557987202156958
0.531521220052736
0.530974562225956
0.533245706173866
0.55035207831224
0.541771049088516
0.543033320177413
0.540345322249235
0.548447568182476
0.542830414151407
0.545062662140283
0.529663427463779
0.544120167308658
0.531215200985418
0.528460230915581
0.5322021355753
0.55338904281387
0.523861152769686
0.517635418868289
0.525726455427013
0.529765711151983
0.520785134036244
0.52925430918261
0.513624560099238
0.514390066633894
0.507624878689718
0.536876348496875
0.515678695821625
0.511891497672025
0.507394275816834
0.518049561873027
0.498339361748303
0.517860707523037
0.503335127148413
0.504435151042261
0.512836654678087
0.511080358679039
0.500752448866239
0.501535443014943
0.476540079648587
0.49282008034433
0.498322491250512
0.491260992474359
0.488633901554409
0.497955244641979
0.492764884110293
0.491744417145233
0.480512828955597
0.489592356358007
0.485263663303663
0.496405520497931
0.472641119117721
0.470628982476918
0.471444691743243
0.469934253208998
0.467300654491425
0.479307487439789
0.465930961068222
0.470689889368683
0.471858305154044
0.472397241804527
0.454816142198416
0.463448177044575
0.455426763348841
0.454399562141266
0.454241476570509
0.455816445259981
0.438864597634387
0.454965331862957
0.443585734218642
0.450191441863941
0.447988175772622
0.456285037124712
0.440851554125493
0.448935255340423
0.441749586575852
0.438231515486484
0.431743922796838
0.440762803164066
0.427134586043123
0.435504767709845
0.441522290014179
0.435482291393874
0.425251082460086
0.426973061988571
0.417800825553191
0.421107102480299
0.419490563568571
0.418289858593914
0.412267466288983
0.419520557756231
0.410655435208443
0.403019099346379
0.403281671868389
0.417190964554657
0.410730094161932
0.40666074872861
0.397325098524196
0.403003974823634
0.398265806190385
0.396916336023501
0.389081925128771
0.388681881926904
0.390727477382295
0.393512612788384
0.385020390932617
0.392326051745164
0.382730757998347
0.38346305453784
0.371800209747557
0.377298239962858
0.379431039996523
0.38135756803333
0.374392605704407
0.370821940273972
0.364092559877827
0.365986902330157
0.367351385898521
0.368918041332695
0.360502153812089
0.365506757643074
0.349580106463802
0.358369090464146
0.358886887519327
0.348506395979667
0.351963546725689
0.357343832803242
0.343974415781129
0.345899498330814
0.338804662357893
0.335096434304698
0.335580480503884
0.340485159870809
0.327487460905616
0.334772927981283
0.339684214663225
0.339569040971723
0.323848316186625
0.327889290585006
0.325525198224665
0.327956017547986
0.321757558457454
0.322820847868863
0.3201038130921
0.317434212342468
0.310413867673182
0.314156740515182
0.30679778972256
0.313885908852447
0.306108810822008
0.307286809532176
0.306322351284767
0.310704382402973
0.303732066960252
0.301722106609093
0.293530762520939
0.301761090162769
0.301650612654263
0.294089014724756
0.292389460087261
0.291972355887061
0.289005652157535
0.290574930723531
0.282964441945801
0.286202823135736
0.281376729744122
0.285020696249074
0.283660242748322
0.284097961279139
0.272854945966829
0.272229977265117
0.276329560495516
0.272686626682818
0.269306883748143
0.273537817325298
0.264416413012529
0.270808230334653
0.265381309989787
0.261508227643541
0.257367880412946
0.256364662305568
0.258277219963637
0.260352987318729
0.255054090234656
0.251931723867056
0.254206535972584
0.261554751823427
0.252872627792129
0.255783902091865
0.252944214783987
0.253258953818429
0.244674292518369
0.245884380781339
0.245505419529793
0.245705602024778
0.241573199272884
0.240634887593448
0.240444554807239
0.238340744189433
0.242323462694304
0.244721454122419
0.231921573870889
0.241804123682345
0.235533468304198
0.231688369668204
0.235226231279346
0.233109165563837
0.22847898400153
0.227153574068798
0.222326814217707
0.22707885706883
0.221371708553249
0.219932225121247
0.219174185774031
0.227124681490809
0.222864708202243
0.219946322531653
0.214998865074121
0.214243797123937
0.216231829498693
0.215540085928627
0.212771013825746
0.211222439788578
0.213299356705643
0.216148956434281
0.206447838938493
0.207973783464217
0.210889873601044
0.208362177712673
0.201383892918915
0.207518247046995
0.20461708414018
0.199870724329253
0.193038917779396
0.197472888760719
0.200128083946512
0.196786589177604
0.196334211651378
0.197062037692178
0.195014176398646
0.19590601654064
0.193147895885903
0.190888476485752
0.191042305931759
0.19236681447103
0.19249685980648
0.193558966829268
0.187440245300446
0.186326437147378
0.184922658917368
0.185000111110639
0.180889886776698
0.183320456122
0.182986188678301
0.178335115832365
0.17332384940251
0.175531191144504
0.177901029492605
0.182931244880002
0.178047255591976
0.170794975859958
0.172416286438733
0.173332986541522
0.16450590716703
0.168470503657987
0.170954351023324
0.170076183176976
0.168227855078129
0.167870390607955
0.165761353269498
0.166128797483858
0.164532744475364
0.162482086694842
0.159501690521621
0.162473795957063
0.16190855382912
0.158762905749182
0.157052690743555
0.156423556722948
0.152687207313466
0.151811698479545
0.1531595248138
0.15453682929735
0.152128477089498
0.150579942092008
0.154602860509806
0.154567893950684
0.150376345276536
0.155388041646962
0.148224748450955
0.146510076430905
0.140524746407369
0.142640530833437
0.142023625940814
0.148110479209523
0.151091691438695
0.146630154388841
0.141890137134892
0.144325334795718
0.143024607803548
0.144390033663716
0.137614300031756
0.138742120999071
0.144780515911841
0.141417839375963
0.142253091103784
0.143111428926545
0.138447853968013
0.141348477544682
0.133699486382095
0.138938911612097
0.140448432032931
0.137093377093906
0.142362603250828
0.141439271313518
0.137808468855013
0.138416306053562
0.137171422462765
0.140344717215095
0.141025077376812
0.139508452492613
0.13490550179248
0.138320678761614
0.142423250515987
0.144777864124955
0.147483391824259
0.141500150569505
0.139842670804009
0.142459495371036
0.143025272824442
0.145660931723446
0.14252005723584
0.144807585980953
0.144804775791638
0.146653384610643
0.149668195728746
0.152764261683562
0.152358302242866
0.153339945595426
0.153621778155877
0.152489059727974
0.152325921628834
0.152321792276523
0.153593201200849
0.159245655971263
0.159159931449635
0.160974071574952
0.159892203513996
0.159963694740234
0.160600911735233
0.163657502257255
0.163795376113589
0.164184134669685
0.16383553433887
0.165191778229264
0.16568911066551
0.168203901680244
0.165937091373572
0.166858015986045
0.17030639794134
0.16813699285909
0.170811145128314
0.173316178298386
0.170368518185952
0.172856140024914
0.173515813010465
0.17439565873823
0.176756023059602
0.178283937679814
0.182606124849456
0.179448632570881
0.181189216100006
0.185066016373819
0.182382284136633
0.186344816673336
0.188468823034991
0.185010179521853
0.184968305139028
0.190511615014299
0.193626026174628
0.19641580389491
0.19128684574087
0.191949301047039
0.196374132071346
0.195361022974598
0.200761884367727
0.193510136931487
0.186953420431086
0.193086350972838
0.194046610492174
0.189430866162266
0.198442424003084
0.19177646711508
0.192120771018065
0.196001801584789
0.192196121654417
0.19078375951764
0.191768068716775
0.1952280366089
0.192898626346876
0.191493131889127
0.189906405717219
0.192412961776072
0.190109011695147
0.186043614044392
0.183191316678637
0.189357149441702
0.191666780243143
0.187667622023809
0.191902987524378
0.185741687521744
0.186806536454308
0.189589698738834
0.186395604983417
0.185481891350359
0.189858436359475
0.190680853700224
0.187825430185188
0.186691854783982
0.18226457469611
0.186481064777658
0.192161597342497
0.192044352013081
0.188243398327828
0.187484667727674
0.185875527068241
0.187421819330693
0.188756342660019
0.184155645130996
0.186392692766426
0.187322854099094
0.189820279225427
0.186557501714405
0.187565546329791
0.187731301193957
0.183851862771145
0.183150374082471
0.181398947793149
0.185136241429048
0.18683955154447
0.185337487753997
0.181388971985623
0.177126484628687
0.18201845980494
0.179147619159654
0.176705237137516
0.179072163989201
0.180553843243198
0.178155394701708
0.176151960107656
0.174652408322104
0.175394433887631
0.174229991997796
0.170611887056695
0.165164180330477
0.165982610044617
0.166517742905465
0.165362500537523
0.161609954039406
0.159154415767463
0.160357028436496
0.15924104653435
0.153470505828415
0.15738190883782
0.150576818352894
0.149571652797577
0.151504039852347
0.148729141515722
0.147585221047249
0.149732747566107
0.144305000459385
0.141906488506069
0.142578300416672
0.142938357386819
0.140157489002838
0.1413686162632
0.137280939959439
0.138973423194371
0.137903927585446
0.135015979858239
0.13402156558644
0.132117669462502
0.132497671585497
0.13311450965783
0.127926160817715
0.129799505206768
0.128975985928825
0.130641040682635
0.130193065628787
0.12776010803939
0.126531848423913
0.128133830466256
0.123322859621536
0.122928430551939
0.12338623993906
0.123317820529571
0.121954808839064
0.123045471800544
0.118377730856184
0.118905715104029
0.119343429321085
0.115711603453442
0.116000784857217
0.116275968706708
0.116067838447907
0.114784026046885
0.111884725549397
0.113625091703706
0.114975735336618
0.114295179086159
0.111968511528013
0.116185385434461
0.11180346534547
0.111522731350312
0.113164053065756
0.11429584388389
0.110450950523212
0.109595588157589
0.110682062115521
0.110394983460551
0.106651294110816
0.105586691581964
0.103722666566194
0.10556191945614
0.102459322262378
0.100811209768559
0.103612926843689
0.107086847107229
0.104506910951009
0.10339384195202
0.103102624563228
0.100476276943406
0.100421933604076
0.104286073168991
0.100345015241015
0.0994120756711199
0.0957736651930469
0.10109442897187
0.101063477780337
0.100682193987181
0.101763129298265
0.100927310372164
0.101373771914091
0.101492844258994
0.0955885754461646
0.101553975037514
0.0972800801368166
0.0970976734522473
0.0988719456257407
0.0973356779757299
0.0944146700575354
0.0950932595515627
0.0942067627479678
0.0987235931818094
0.0980331462410055
0.0947884151717314
0.0931427530955444
0.0964170185578286
0.0954940934579857
0.0955030226326869
0.0923755119335812
0.092736022123119
0.0894018477407314
0.0919177798990098
0.0931066853149937
0.0945605997743759
0.0903394793342878
0.0890892379559877
0.0883387618043958
0.091255481363175
0.0918369204330866
0.0916069337948111
0.0886991172733563
0.0896375058500958
0.0889221235191213
0.0882162686529822
0.0891975161858287
0.0916984485446718
0.0887946585037878
0.0886675468000933
0.0846657567939813
0.0836971757393543
0.0836730016513069
0.0865546631528823
0.0835173945576678
0.0846560024076592
0.0866731920329614
0.085966563397024
0.0856713356199818
0.0869443700520155
0.083355540175752
0.0893122320678736
0.0863313877311347
0.0835785688139507
0.0849339219945539
0.086689423963728
0.0838720782201839
0.0812570107945168
0.0837534694879499
0.0830525481548419
0.0805423695149751
0.0867251441914285
0.0833520876971782
0.0846956138032918
0.0826681807279298
0.0842132758852376
0.0835715257098418
0.0868958772673172
0.0844686605242557
0.083229382328055
0.082383936197657
0.0832326256353789
0.0827736781196464
0.0841533130610787
0.0822780703669844
0.0825217466558741
0.0806469133476087
0.0807732705323954
0.0805346215492324
0.0826059981961237
0.0799712693924731
0.0859977805888841
0.0801255765362147
0.078600617427569
0.0803521702433583
0.082462088391873
0.079271857149846
0.0820179836774707
0.0790382953901321
0.0768355977714077
0.0781874571628237
0.0785857787588033
0.0752127976447267
0.0781094788617114
0.0781494356216186
0.0756247591328671
0.0753400798576841
0.0777189829917777
0.0737469361009701
0.0778015025241653
0.0749250598462501
0.0741694246677263
0.0732526970668535
0.0744010049187077
0.0720076602716033
0.0767801676462799
0.0735289238170248
0.0757621494904437
0.0718609182824085
0.0716976962786422
0.0729998066296522
0.0716113648283579
0.0691934605789206
0.0723709527934696
0.0712971391470327
0.0725647766861112
0.0685837721752488
0.0726218079697601
0.0725122957723196
0.0736114093755643
0.0715703302184311
0.0711183980516458
0.0711139793803571
0.0680948883858712
0.0702835457770179
0.0747216069946873
0.0679216911131931
0.0678868527538574
0.0691233823320747
0.0685835051293419
0.0703095944782614
0.0700986187911426
0.0674137491096923
0.0678721226849394
0.0674773243427371
0.069412014036467
0.0661283430824945
0.0678935988687486
0.063689566840187
0.0662120825329622
0.0647689450690131
0.0680704018034147
0.0654656387768454
0.0660052780124144
0.0633933775437592
0.0669584895520851
0.0667541370736728
0.0664351603979254
0.0633643111814639
0.0634126573976546
0.0633161129863659
0.063109982091802
0.0601658656513561
0.0610231375450073
0.06091024384875
0.0654602628050331
0.058728416701197
0.0608277295418647
0.0612580177301649
0.0609783021993101
0.0615073315507695
0.0604000450123213
0.0546342977198831
0.0602735776315071
0.0575159418472681
0.0599105918712804
0.0579977385852718
0.0597656007354015
0.0575345461223004
0.0571772530488788
0.057231122880193
0.0592794184013493
0.0572090968030567
0.0608789265638757
0.0576403039685414
0.0574783465203881
0.0573841129589502
0.0585754231146324
0.0554491325745336
0.0569593488297885
0.0562470254454832
0.0549730937177184
0.0509579447473974
0.0543284988115655
0.0539848630045042
0.0547734964626774
0.0563852908080982
0.0546030475329821
0.0538550625361089
0.0581713385318453
0.0532558775307367
0.052584171851899
0.0529433342508256
0.0549579027747062
0.0520501887932548
0.0557719712180313
0.0503979480654747
0.0529555702371743
0.0520400311650593
0.0521891893498953
0.0509115767631981
0.0516466011586355
0.0523250572731467
0.0538337524965581
0.0483988400645654
0.0492244343242901
0.0486952141941523
0.0529269181601931
0.0491115964927721
0.0529268066146827
0.0496502501203516
0.0505968919616159
0.0481396131158086
0.050962131466759
0.0487409491734609
0.0495155784500324
0.0467469145892514
0.0490184953852091
0.04628232995701
0.0473096785336
0.0467651183347171
0.0477497500994402
0.0472689964977415
0.0510925480155152
0.0469580004872566
0.0476228263216735
0.0468761322149873
0.0463625982656364
0.0433849004270107
0.0462402502892786
0.0459617880001335
0.0461631771625846
0.0447671105843456
0.048683567007167
0.0458351125680567
0.0490056425904523
0.0480851194953997
0.0511977092636765
0.0479102852017544
0.0460227352974742
0.0464780905345367
0.0472779911244576
0.0469246356263755
0.0455559323189405
0.0459195879950157
0.0484826955063246
0.045914764824147
0.0460112742384391
0.0449597365602775
0.0498592192269082
0.0439506664169722
0.0435823336852984
0.0441544318460093
0.0470756465594723
0.0439120736964282
0.0476444166047821
0.0463014437285266
0.0456085866624323
0.0426793389718546
0.0482408717850701
0.0447312368363801
0.043262924687974
0.0408568438174795
0.0444286060685951
0.044162998118832
0.047247726752596
0.0473317959440488
0.0477979974396368
0.0444100331618362
0.0480377268335058
0.0423742771133269
0.0409615198145296
0.0418222362392019
0.0452395793260722
0.0416160052732586
0.0437983533883001
0.0426440880782833
0.0467190997193759
0.0418091128431083
0.0442472817805957
0.0402593596475238
0.0422262916742989
0.0424190146273195
0.0414656409642414
0.0400035662514108
0.0442388460178101
0.0398696958194328
0.040834990079072
0.0360264135743046
0.0426244669022189
0.0402762854542497
0.041550917930567
0.0405222558035127
0.0421764028064573
0.036552010771336
0.0409483341771607
0.0364362111609349
0.0417738072748596
0.0359885594586156
0.0387062205240987
0.0382137119229517
0.0418536384295497
0.0403974524013072
0.0395813611442494
0.037653826693617
0.0400770143967474
0.0378216314263247
0.0406792010334376
0.0365360563873839
0.0401694888098823
0.0376113573773506
0.0394607957721457
0.0385094341183678
0.0435802577876219
0.0385177500110974
0.0402831117504076
0.0375244771368061
0.0393784987751436
0.0379958816720374
0.0396331380541581
0.0368297577977683
0.0398633487202251
0.0378468846828367
0.0410523710436336
0.0372900931972395
0.0392940692298508
0.0354859161638842
0.0376467156594271
0.0378481710646826
0.0378599278081633
0.0330437277517254
0.037174739172003
0.0359732810202119
0.0367969374338923
0.0348237675248912
0.0376413283326658
0.0348516234561494
0.03606615828608
0.034685464397662
0.0373592503781765
0.0311244063171586
0.036596448725037
0.0343344232085113
0.0332724277184719
0.0314272387206416
0.0325815145436057
0.0342828125851264
0.0359700250955921
0.0335191114673061
0.0353901246319289
0.034083217829618
0.0341621834343895
0.0327826496519189
0.0358475408016141
0.0322292105317114
0.0365985097738802
0.0311362178355114
0.030235668144278
0.0293384560433883
0.0345679885536627
0.0341017040876446
0.0326115292718915
0.0313633259411298
0.0333075153874001
0.0315559882023113
0.0342279982283694
0.0346879913872446
0.0346115816065608
0.030100252542174
0.0342508578834376
0.0309466636847323
0.0331917693186787
0.0301051186998557
0.030900613145585
0.0285991901299468
0.0308018165489568
0.0306140054042558
0.0325682278485962
0.030003830070713
0.0321448742891276
0.0296697459883885
0.0305293448422935
0.0274397147009788
0.0338253965596292
0.0281449285430693
0.0326618100157132
0.0304862854688327
0.0277567617213628
0.0291094085734942
0.0307715166382447
0.0296624189294038
0.0312814553103732
0.0271926451515558
0.0317324722809619
0.0280991449510735
0.0312990732862057
0.0283627630322884
0.0303451395587594
0.0273069948247344
0.0287531353029137
0.0267622137252989
0.0322458107337122
0.0252835431242128
0.0296306021294433
0.0273490113229129
0.0296057101984557
0.027275128750211
0.0291703565066033
0.0281035640734374
0.0306582700222643
0.0267906174692945
0.028281143010755
0.0268356904357462
0.030057391425942
0.0266293611972597
0.0264289633047035
0.0257985407413785
0.0294423441095938
0.0246182171268448
0.0258413950686624
0.0241251328857127
0.0275834614150046
0.0256773069669954
0.0272498862817065
0.0260870997207085
0.0301034779834065
0.0252630411324815
0.0285698333561726
0.025160262882707
0.0270483179848939
0.0252008468395573
0.0311190995912207
0.0257334443854167
0.0266063277945857
0.0259800022206027
0.0310118364293622
0.0240060590667152
0.0261818826191367
0.0209498166318601
0.0262428584991353
0.0214844256584765
0.0238887048054099
0.0195014090503194
0.0234974738310399
0.0246788450767498
0.0327059297886648
0.0280886926726299
0.0279456377426072
0.0142628626402917
0.019894878578173
0.0197595583157562
0.0277047502334371
0.0176253629134034
0.0233512516836624
0.0192915569460565
0.021189251942426
0.0200647214625391
0.029175840457766
0.0161963456509003
0.0251501254199517
0.0164824740936925
0.0330313774109371
0.0190895626512665
0.0272869404580005
0.0260240381274759
0.0279537808571667
0.0261773389368557
0.0305794493115806
0.0172903414359704
0.0193966235767911
0.0153852305337424
0.0235583041171984
0.0112721246494665
0.0287469566801951
0.0149122003475289
0.0276899330153595
0.0113412409426687
0.0283204378097874
0.00424594243694888
0.0286499376148815
0.00498188144289214
0.0359839193274003
0.00916122026976871
0.0419900982017878
0.00812053703294749
0.0411047505424618
-0.000647703739652962
0.0360439782392188
0.000598826917004288
0.0532918592896832
0.00648951708798382
0.0474141607809034
-0.0103933617870419
0.055809226565181
0.00428939837284975
0.0591568011671104
-0.00699140504750913
0.0503794673632898
0.00758618939543389
0.0457989583540378
0.00449527179906469
0.0396207165012618
0.0201799632313794
0.0251722090667308
0.0240103291852897
0.020481694302193
0.0321993598894216
0.01603269490733
0.0354422221534121
0.0148105773619431
0.0318102501289124
0.0176795230087536
0.02935709603723
0.0222160524245293
0.0226665713252017
0.0259574886203285
0.0238440794730226
0.0275335165808167
0.020130622990817
0.0242592689401497
0.0238478850892841
0.0239285083761637
0.0243118420842183
0.0205281569998784
0.0227183067235209
0.0238644084187434
0.0242749063665288
0.0256426186033338
0.0215289543904472
0.0234106404394516
0.0223597725467667
0.0242054639989823
0.0217104725999918
0.0233173744777481
0.0223437115456744
0.0235728037615721
0.0223566115379322
0.0225644422031685
0.0234829314594237
0.0252800051725857
0.0232106637705128
0.0218215301381647
0.0236247013616973
0.022702359953686
0.0232516941932205
0.0257123557100474
0.021046839395589
0.0231393466569105
0.0218147641871862
0.0245150813388453
0.0212559943543175
0.0258527290311432
0.0245451826644335
0.0257231762935651
0.0239162689895381
0.0236017277164906
0.0210837028914327
0.0245282506638971
0.0233765043146965
0.0257060585540075
0.0215180410446986
0.0238930875219932
0.0227158442834487
0.0235438896902378
0.0237231901381984
0.0258262520452169
0.0243003697716012
0.0236884675858405
0.0244353443323227
0.0238756168418959
0.0219629833250077
0.0216273780898011
0.0229649434101877
0.0249642839447179
0.0235672832108229
0.0247194114447444
0.022237575916196
0.0250854001536434
0.0233526496290598
0.0240707796381856
0.0206027906561937
0.0215680485649447
0.0220586797739249
0.023269870595016
0.0218081007552303
0.0230412464017879
0.0220202779556424
0.0245729896202592
0.0219716410300591
0.0223202167244443
0.0217152208677812
0.0228627160274062
0.0214825975659566
0.0254359585661773
0.022339067542966
0.0234588569196071
0.0237174364103221
0.022921902318493
0.0231817497182862
0.0231247639645035
0.0224909238876885
0.0224528270920137
0.0197997431861528
0.0246536220202909
0.0221815889670732
0.0238789690515737
0.0245032557415833
0.0268235025899646
0.0235643030439866
0.0234582328478809
0.0226293089501711
0.0243729233739743
0.0241391105783981
0.024941241420966
0.0228562131137951
0.0258009229039687
0.0238448811171425
0.0258133811362997
0.0237265683698748
0.0246376060251083
0.0218692361547889
0.0234697437342229
0.0203564854451824
0.0260245587376324
0.0234742027246559
0.0253815743235141
0.0240053059509424
0.0239715644913044
0.0232006269400386
0.0235623992202947
0.0214069918278071
0.0253517145216743
0.0225006189318651
0.0235584942595484
0.0223871028481135
0.0268743655869348
0.0236047119993595
0.0206816429119835
0.0221935774237157
0.0252553279736608
0.023167581703785
0.0248569371742283
0.0231119281092445
0.0244561949125894
0.0244977984089166
0.0249204440547098
0.0244297545536998
0.0267592731603376
0.0239840089438577
0.0279246725073617
0.0223828844305611
0.0237244734591849
0.0235324385689855
0.0260036764338515
0.0234219514048489
0.0247624921644862
0.0225996724645303
0.0260248107984302
0.0229896109884438
0.0256964170372757
0.0195386559925907
0.0231860589131497
0.0236046295970396
0.0275676478289697
0.0244520793975387
0.0260696542186215
0.0243202240429308
0.0244541478568275
0.0227697363116088
0.0272385278450039
0.0258269216314781
0.024933320187275
0.0231584324741352
0.0238046002966849
0.0260012840739531
0.0248051147733763
0.0243015065697494
0.0245017003916635
0.0245895767513487
0.0254949226407368
0.0235297485660193
0.0261362656155826
0.0230729720643576
0.025260459278836
0.0249530496682946
0.0234568678200718
0.0243308152604542
0.0266938780913407
0.0236872602370344
0.0271993291083456
0.0240538475815461
0.0262877244051026
0.023483207347913
0.0257975491858443
0.0252084174348468
0.0263807492647448
0.0234200919232115
0.0253128830525575
0.0213831824910768
0.0239302276479349
0.0207165555145563
0.0245252287847743
0.0246328080903897
0.0261964318446089
0.0231744429137573
0.023907928101393
0.0244257128913115
0.0253146071642747
0.0200573335044545
0.0216831052764125
0.0226338602046083
0.0237345859862343
0.0227212110850762
0.0272614286322605
0.0222152685189514
0.0254731042703268
0.0222512621518636
0.0230519139828711
0.0235787281879331
0.0252557272719
0.0242901390872881
0.0246980456306603
0.0222281920202093
0.0223002677612631
0.0237643078069028
0.0244717239614378
0.0215605018713663
0.0259648388297767
0.0231415256215783
0.0253657438598527
0.0245020351875817
0.0270900120365239
0.0207417920347588
0.0206086684037189
0.0214240052240364
0.0243097099423171
0.0223453054616409
0.0226111414958574
0.0226449730580247
0.0251932323116956
0.0234699867107892
0.0256666037390532
0.0235221764127788
0.024219457095436
0.0228149669089502
0.0247776475462959
0.0216770217283975
0.0257285940761565
0.0217026032642684
0.0249935514369965
0.0216657748151809
0.0238060932179037
0.022376485030339
0.0227462071939745
0.0214240975733916
0.0252708967951686
0.021025343393971
0.0248551103246604
0.0212361097303845
0.0230634486940542
0.0227547653762483
0.0243581547558104
0.0203833711860755
0.0238227540133208
0.0217282001652647
0.0252237114311697
0.0209058725689817
0.0229154761433463
0.0209926125068527
0.0224589982995551
0.0233529304668138
0.0212719503315299
0.0236007807398716
0.0229344848298204
0.0205773771165643
0.0244320385712765
0.0215390566939894
0.0233911635575454
0.0207431725591654
0.0252233313204083
0.0194582692199551
0.024447441330032
0.0215251138954111
0.0232998021430208
0.0226585421179299
0.0236496574188355
0.0209989383336081
0.0241257695478957
0.02091506455158
0.0226301656613336
0.0202591021317312
0.023021002505449
0.0200627293796675
0.022836034490778
0.0207698223382929
0.0243612835451426
0.0222736513004113
0.0209420270807674
0.0233876818753673
0.0233698969899679
0.0212644298285184
0.0226623321293887
0.0209454874590966
0.0227896270228524
0.0195538789826805
0.025061777180503
0.0202165143680032
0.0238184756998411
0.0206676715198212
0.0212802794234634
0.0225454243453884
0.0229741727529776
0.0205465962859552
0.0208550817257088
0.0212075662909916
0.0212899578107934
0.0188577981179594
0.0236261011467683
0.0196272251890839
0.0227311539204409
0.0203848008846504
0.0201932026781268
0.0196900071792978
0.0196907874673001
0.0236245499119456
0.0221651030881281
0.0176247537885549
0.0210451994895542
0.0195999469021043
0.0185688937465439
0.0180163082781927
0.0218419221709066
0.0193571872627711
0.0208644412127582
0.0182211070575162
0.0211951261419056
0.0199401737770083
0.020688909637495
0.0207816188500887
0.0205135186509733
0.019988628304478
0.0207946720328126
0.0172463228464085
0.0199890729876649
0.0172937956204422
0.0205028164384873
0.0217362376885402
0.0212764390309922
0.0197455922325801
0.018332416459205
0.0155039568756971
0.0244422926159132
0.0173220017087222
0.022228994873105
0.0184233813093634
0.0234710685515079
0.0178635775673618
0.0213687087671755
0.0189429195026043
0.0224220575104372
0.0188811338308994
0.0219737354330495
0.0160165209058683
0.0199203664368971
0.0162815583180033
0.0209950606037376
0.0175204590211314
0.0198589210702071
0.0182131766003362
0.0198734585176313
0.0193647239127401
0.0211035428000371
0.0177219653483873
0.0202359945661247
0.0173203961614976
0.0209704926990293
0.015279036820863
0.0248747802659446
0.0187981858477962
0.0216974916194909
0.0170729638952295
0.0225342858608358
0.0175484684780292
0.0178749981203663
0.0186091914875824
0.0196713471092675
0.0172669617537129
0.0188102918384203
0.0176088594648434
0.0189764196959437
0.0177973685505994
0.0213232824277104
0.0158197238100849
0.0183745128587386
0.0157345258384028
0.0195165530907269
0.0153391328322459
0.0197079819520616
0.0152897953411046
0.0208705256556162
0.0176623143240881
0.0227050599189103
0.0186759479182295
0.011054061827918
0.0288509114567429
0.0155592278992131
0.0206853627714645
0.0167602862813563
0.0179872470200375
0.0183097206355968
0.0177815413496502
0.0172989624428422
0.0189266461779439
0.0157971256396716
0.0172162073857675
0.0169579916269638
0.0175715774415677
0.0179526718066547
0.0175006768745532
0.0187651080798309
0.0185676365490631
0.0158386042329937
0.0208501135145937
0.0165557519782611
0.0169546388707841
0.0237108743608109
0.019776655232528
0.0165574185285265
0.0220187057262082
0.00487030002779063
0.027460956264975
0.0205305413292709
0.019191486756744
0.0186983807082401
0.0176708648831663
0.0172300323279514
0.0168769433111123
0.0188011186112478
0.0128624320891666
0.0247117510508908
0.0145254744586481
0.0225979553000755
0.0157744358666064
0.0195999167416455
0.0179477006507559
0.0185688897764005
0.0157238017516423
0.0177789587021211
0.0160082102550329
0.016569860483202
0.0173530269473782
0.0172704500929523
0.017269320531569
0.016487718061753
0.013341348611145
0.0229492938536862
0.015720833714699
0.0191034158263529
0.0186995129573711
0.0180227979157707
0.0086965866748602
0.033699955375308
0.0117477196995325
0.0225661878530058
0.0134277766966924
0.0199918071042418
0.0147871488653452
0.0228891537092047
0.0152504381012689
0.0184167659628735
0.0136272510556978
0.0197096446545608
0.0146337638661122
0.0204234935721981
0.0168183250849881
0.0189306338567993
0.0160858711436195
0.0182903972536386
0.017240253536057
0.0162969908621312
0.020016393786803
0.0081713971994193
0.0139859006078923
0.03051202969435
0.0196200482999812
0.027447669035838
0.0188236307629726
0.0231447701653506
0.0144665518745234
0.0221169900039371
0.0118595242461008
0.0246404346036929
0.0119002259072524
0.0213490978086859
0.0149597084212374
0.0238952607338139
0.0123204323591126
0.0241440871844797
0.0104661271201709
0.022422330652892
0.0117020968277305
0.0244825636451755
0.00815212157636067
0.0250214548190338
0.00878347891629166
0.0288786264609685
0.011297582304537
0.0301311266493416
-0.00400958948592546
0.0334516827407373
0.0370496553074182
0.0128581999915537
0.0263057321854895
0.0133142173500039
0.0207355403374362
0.0160189182807042
0.0163545533512713
0.0185239279900932
0.0182417106041257
0.0190302455195703
0.0169047744014015
0.0167435461187333
0.020754804046781
0.014008609451568
0.00583033629058977
0.0381504562908557
0.0175403906579649
0.0244671239230185
0.0163528343888567
0.00681411584939777
0.0383641102970785
0.016463295892802
0.0240680531465756
0.019361999689918
0.0184093967168013
0.0191554814304761
0.0191023067403383
0.0148058658190055
0.0154186470925743
0.0205337427565168
0.0152034103565472
0.0227087524738946
0.0123173775664957
0.0236189118448021
0.0166494256111038
0.0222257014815373
0.0262674048088765
0.0167547145411409
0.0182906720860824
0.0215424934664636
0.0177672158437902
0.0209095526495417
0.017273862233175
0.0161093929943586
0.0167622285402082
0.0313290297509422
0.0136611359769116
0.0257799859638576
0.0252704733286863
0.0146918916076983
0.0209005980180275
0.0185925201345175
0.0278485531561612
0.0158144564792965
0.00429863425594255
0.049424531463404
0.0082347181175281
0.0481330391133347
0.00891521371991378
0.0307635022878744
0.00804089770386943
0.031174484606351
0.000385319799643978
0.0408826229479715
0.0092001854076085
0.0292356243570044
0.0130838771416995
0.025941768577186
0.0272772780765332
0.0216726568129336
0.0218498435100912
0.0243224218003225
0.0147143926143059
0.0265417776500525
0.0280323676665797
-0.000652729569073805
0.0354776224900765
0.0344181755825
0.033769968223141
0.03477509489459
-0.00372638572704496
0.0557798959865
0.0209878010381729
0.0290350243129525
0.0169976165385706
0.0264888308377145
0.021185036058949
0.00865495143359533
0.040306026646124
0.0281656041156398
0.0149655835740629
0.0354388241118376
0.00547787829978716
0.0371506018562953
0.0277094105309102
0.0290448836667435
0.016391631907799
0.0368385964752152
-0.00115652518397971
0.0555749630152223
0.0368451745911333
0.0214816068350617
0.0482182129995509
0.0232215772123846
0.0374643998985157
0.0246037877983689
0.0286598019866983
0.0261871050890478
0.0405866949210967
0.0316117512855482
0.0194730311726081
0.019668278679817
0.0599698457956059
0.0192659955255148
0.0408330934115577
0.0252467742352705
0.0133771248761089
0.0317898628224201
0.0646483364226235
0.045805646236136
0.0404233178281666
0.0181575470270256
0.0501299392415156
0.0345236463889176
0.0327690011799286
0.0325018897323077
0.0315364362560126
0.0372075550239329
0.0253855068886068
0.0437177026784624
0.0345445359137026
0.0359070393891219
0.0397255402263834
0.0238432114078919
0.0309625540842965
0.0409902808124141
0.0821097542963039
0.0199194514314942
0.074167706418109
0.051055153340981
0.0486475475669971
0.0416230848464459
0.0363538603517001
0.0499214096949569
0.04297590586702
0.047401655660356
0.0299860944327423
0.0577780001136847
0.0593698419091565
0.0288097705853702
0.0738392756932182
0.0365789486716817
0.0672251348175992
-0.0295509739146464
0.211603861156331
0.0575652476266691
0.0701727414113732
0.0578152338247662
0.0245325537437966
0.140264058553976
0.0679858699892328
0.0726310023957766
0.0758964798819026
0.0725149153299739
0.0740069012380514
0.0853279527310739
0.0837403138117496
0.0900332217410055
0.0973343367671078
0.0761142953750143
0.0834663403846643
0.145133398588596
0.122606539807823
0.12716897565713
0.0949249257073615
0.117891003294444
0.120152418597479
0.115833105723184
0.122125544743095
0.123417075876461
0.0853221651528306
0.192550814805019
0.123030654298466
0.15205793594495
0.112120445411415
0.188719529568896
0.107258240133877
0.188210597620832
0.168963656616801
0.154445176607326
0.161070893944144
0.158087628534236
0.18033240040045
0.152083404362438
0.197853262951274
0.187940111954145
0.175736772613361
0.186037515496435
0.181670549460819
0.194649866303901
0.184717563348696
0.204159619866625
0.168235884277331
0.228912771872115
0.164194525823084
0.303860142752791
0.221447898176664
0.188770982014107
0.210698146921863
0.181463540809222
0.228660400006287
0.196415647093186
0.211378641585199
0.229110497670066
0.188203568392363
0.213451138478411
0.192181650992006
0.213056553319717
0.184439121325272
0.214033426639247
0.17188899396148
0.224683546483959
0.187488739367857
0.1794144881006
0.266572855368436
0.191248099032909
0.199719006207686
0.194848719153485
0.19898929181366
0.189051418995401
0.195722261908689
0.171084150323271
0.217097582909664
0.17644556111125
0.194383173538391
0.162868002232005
0.194548777160217
0.196239750321664
0.15833283160738
0.178472847147177
0.161484322767082
0.16715051557857
0.152085944487562
0.12700664669913
0.202024459205884
0.142081198401145
0.159572992638056
0.143456608928718
0.146456896761049
0.14267788344136
0.138272746998079
0.138242162294366
0.146405537281254
0.130990982962577
0.145155732042184
0.13224630262081
0.138504221337519
0.127106252208068
0.135425040626802
0.131079980473614
0.12713598063806
0.132611863091782
0.128200620545282
0.13093231821781
0.129819549523607
0.129360695687184
0.127395224857882
0.126169031241614
0.135093456998125
0.127495379730313
0.130361317191395
0.128534301411915
0.125315149420607
0.130613487971194
0.12640503916887
0.128908500833773
0.123765194552455
0.130041642112217
0.129820061884864
0.129996028919873
0.127110591939206
0.129939701675488
0.124158334123785
0.137427825180149
0.119792291912308
0.137113366914091
0.0951924733079325
0.157300408431269
0.156254706514616
0.121218335099207
0.141965530314414
0.116302835392458
0.139857746943021
0.102568186114252
0.151878484556066
0.147056746819975
0.127831434981345
0.13070406351633
0.122822859007988
0.122055312370888
0.14454754945277
0.112998239974312
0.142246820594541
0.100015703946596
0.133614086583744
0.179371204140382
0.111616449940801
0.21048722508824
0.136750685899577
0.136650707248837
0.0976385169045146
0.176292870715201
0.118048489366314
0.14668946258348
0.116872747305941
0.156199985908086
0.144242700848351
0.127844904731471
0.136528453880453
0.124463722289062
0.128267052195912
0.152576078698014
0.127391300489302
0.123867385184958
0.166950599139983
0.114217771354345
0.147903049309736
0.159783324180309
0.156184988006859
0.122981356607546
0.124988030055034
0.125157543369339
0.0972206904143938
0.17644636177444
0.11768317755185
0.125467600130455
0.123169725378627
0.109322555563516
0.120306186390614
0.11364764536042
0.135089609113082
0.0893608572138501
0.160108457290974
0.0926097706144616
0.116222094960618
0.120122055308126
0.113465903213063
0.142603971131963
0.115522308459652
0.0986502503067552
0.0976633217561014
0.143127361733761
0.0923709306949182
0.117357844811355
0.096852203426353
0.0864446141202768
0.119947125816943
0.0930480320217888
0.0948870400378377
0.106583493153051
0.0794669483348948
0.125329750341721
0.103734258873159
0.123857733900166
0.101324951645688
0.0797452318429554
0.088644954324196
0.0794262651082313
0.0940843861485209
0.0700860828563554
0.0855642902258411
0.10583745810106
0.0451198699567579
0.134031393368807
0.0836280745780232
0.0821593252270806
0.0862643372918961
0.081099593954975
0.07650746171867
0.0850212927847231
0.100592526712332
0.0969382172725786
0.0727575280094209
0.113365171968493
0.0736916834079223
0.0931321390322488
0.0772502057572201
0.0948234392310296
0.0821663237570252
0.100625456802419
0.090000604727381
0.09828361820953
0.09191115705571
0.100796357410893
0.0788038763771166
0.147316921552488
0.075858243523253
0.13687048836655
0.10091704429538
0.145772547241712
0.124882470662322
0.111082645191071
0.120014085777372
0.119730992047478
0.122913579677329
0.125443912091949
0.108449806183693
0.167303351794314
0.115756478402773
0.141384160818819
0.120499886822674
0.140535675639795
0.116694576560243
0.151315855459952
0.128117737755569
0.14572060043908
0.185890447643682
0.134550126986899
0.159916101325019
0.135385936660832
0.153359644195027
0.14668253360359
0.139724635912255
0.148341551152438
0.129464319667929
0.166407485412161
0.146179051337864
0.143807642397623
0.147219276598252
0.145198798139696
0.15120551391709
0.149520393786366
0.148818716186908
0.155592318281356
0.146275669227496
0.161747261452753
0.118840296872454
0.207416677824798
0.16558291075749
0.154637993056669
0.162598689319759
0.154594059063709
0.166884422179016
0.152302245262438
0.169571598721116
0.170366768041393
0.15897969082042
0.168869340059467
0.160197717489121
0.170022981202859
0.156300331990228
0.193446337348665
0.162608410767879
0.178586329053914
0.163945055205288
0.153196929439771
0.22445142274766
0.16576717289868
0.192629042440209
0.16565318504077
0.183993606510157
0.171859900747632
0.182814476503662
0.173127395318073
0.183716433421977
0.175349269065449
0.184212770126953
0.179617190923493
0.177524711450571
0.182134847345976
0.171155016298236
0.190435455567008
0.178522013386209
0.178466437396084
0.175037978686087
0.177500836213828
0.171767309518513
0.184755825202416
0.191482228211175
0.16840666369825
0.187453323342098
0.170409277897578
0.184148577258412
0.186865590239514
0.172020319076516
0.175098959097464
0.17477374885245
0.173956913636454
0.182179477866672
0.165663538751719
0.20273630988406
0.173710877004002
0.183015549433912
0.173394607915807
0.181512258658287
0.175031659977995
0.182472654119673
0.175024374073547
0.182631715134604
0.177717501565619
0.185797644805453
0.180011896604748
0.181120576837876
0.187098708756946
0.185062301548435
0.188309237323378
0.179142262238554
0.177339380602784
0.182984064517472
0.171460542604821
0.182844464485653
0.175418741617284
0.175590919638994
0.165435932591882
0.174976693695044
0.15232621454306
0.187735986886114
0.162571014694063
0.169128762899038
0.168716009149762
0.15454088008614
0.163157953244126
0.156676602104429
0.15994989379987
0.154037878883458
0.158188777798078
0.152456967382295
0.156448557469266
0.154845178639772
0.155528134755054
0.153995815654819
0.154024920691659
0.151903472870993
0.153142849403104
0.153524255360899
0.150508445541183
0.151394356846306
0.147699386231855
0.152122807267292
0.146133469751695
0.154252085612925
0.160175829638749
0.156581641508233
0.154712341961987
0.145658968373016
0.157422919571692
0.146800824705379
0.152278975582314
0.144918726424272
0.152190059051751
0.146315990182886
0.150505582747659
0.146964580852999
0.14976369879422
0.147760359086261
0.15192918638956
0.146358048629735
0.150608932576833
0.148475709550549
0.153720497938158
0.150562537978282
0.149735298268342
0.149324160641085
0.151352098125219
0.152035112407593
0.146667679949411
0.153923932660645
0.148955143061529
0.151389724655179
0.149359563877976
0.151458932723047
0.152922162623672
0.149644352620288
0.150360121778324
0.148442921071076
0.149201198499505
0.14882837563461
0.146258092472336
0.14722346718415
0.146916216411333
0.14586955053899
0.147398346949998
0.143454597102108
0.141093893696802
0.140254164633304
0.140345989396258
0.138575827213483
0.138193563936337
0.137609818196547
0.133906010902789
0.134553310219398
0.132950337520679
0.135282503389394
0.13280278659147
0.132954386990483
0.129508575583547
0.129954710884971
0.132420918285978
0.129325273811928
0.127533154099626
0.126816333086061
0.126493433757855
0.127511976540792
0.126676064449735
0.128761946030709
0.126522951543186
0.128193120516119
0.126593368226119
0.12861752802446
0.127276549897741
0.127416165376417
0.127070878736689
0.130351715300287
0.130597130016239
0.130200882979044
0.131099223816523
0.133207632289783
0.133073854682443
0.130991208642139
0.134956410054604
0.135484069817601
0.135335896484195
0.137860828382234
0.136008602759137
0.137432793235637
0.136704935416424
0.136238977345033
0.14006579501049
0.138065524191583
0.136809931585075
0.141184435384299
0.138304479002906
0.137959605828757
0.137261582637319
0.135664441038535
0.138889837829547
0.136999461009789
0.136139510085396
0.135996389010166
0.135964483671605
0.134208007775045
0.135866148764613
0.135532787765497
0.134970954142816
0.134338640440246
0.133338584165524
0.134180548367185
0.131954312241131
0.131831499423844
0.131663491345786
0.130902604178875
0.131342497153163
0.131311489434863
0.129783523513451
0.128308139688275
0.128650813826168
0.128570310992388
0.127766754399052
0.12668626356149
0.12777237645815
0.12748512403497
0.126298628472185
0.128289934502876
0.125690383499291
0.124392451741187
0.124227784912065
0.123548967353397
0.123744466684129
0.120520716220341
0.123085336151184
0.121660387199885
0.120603386543314
0.117978433849871
0.11882770237023
0.117653434865011
0.115734132667725
0.115272481161371
0.114718651413274
0.114775349506983
0.112171288861786
0.111603814389628
0.111445225639082
0.110155637376327
0.109590893335913
0.110282405790652
0.108765602970255
0.109438131990652
0.108011638251055
0.10806298701218
0.110108622632911
0.107383436611713
0.107028830155922
0.106234673790774
0.106211863886215
0.10513621979511
0.104982405831026
0.104313359639848
0.103251827730143
0.101298447443924
0.101173646277706
0.100315121674574
0.099732032145924
0.0985406849872214
0.0975463769983075
0.095488278486326
0.0973597231469493
0.0978641017665672
0.0981910819712278
0.0997802352404103
0.100686268590977
0.10366340949444
0.107538029135216
0.109798062994879
0.111532396239514
0.116743995938023
0.118983212049105
0.12544067999874
0.132348363902499
0.136688503514225
0.141416949555341
0.146913362126643
0.153614665950194
0.159010005764393
0.164827930994523
0.168381613559489
0.174883414698782
0.181471998650312
0.185501898113185
0.19132985223228
0.195791978294508
0.198217745530185
0.203264225288806
0.207849357255459
0.211926172368815
0.215660981249781
0.220384255224346
0.220764986010747
0.222075813905779
0.226176991580724
0.228429355194186
0.23071126283063
0.233498144834474
0.233906717596038
0.234911723817237
0.235106070795206
0.235531042793183
0.237130284593091
0.236307344769951
0.236400471524496
0.236625976426557
0.236168204684968
0.235275445708228
0.237926440002576
0.239063384618885
0.240282527861711
0.243156120358031
0.242086626408121
0.241896001170146
0.244539626540833
0.24612934705225
0.247942854811555
0.250766428970551
0.25484344660899
0.257578589022048
0.258303485474269
0.262610702605196
0.267367798218726
0.267843835330363
0.26883057177131
0.273944616381396
0.277068645036926
0.282271181827681
0.288506310404119
0.292418487086395
0.295258736423312
0.298735798799868
0.301303782796304
0.306094223149191
0.309320199410686
0.310878254948571
0.313046191944557
0.315319896462905
0.313738901456244
0.31418497377512
0.313471056538358
0.312751753766242
0.309529226162811
0.309320848288604
0.309722134492068
0.307910616234929
0.306245195286793
0.308657586158915
0.311420900878751
0.310734895909036
0.31446288331898
0.319408751331095
0.324736993488067
0.33088805367849
0.337156616812163
0.343078233034586
0.34780536196423
0.355177649563003
0.362190178920818
0.365170078752836
0.374328027248064
0.375905878676924
0.381668944141734
0.388761232985564
0.396420742031547
0.400579593225948
0.406960674832743
0.415302140903483
0.417241592969389
0.427963017619906
0.434983891493093
0.437782872057558
0.448754968306671
0.458029270420456
0.462988218462122
0.465405317796017
0.470127115213911
0.482069730585343
0.491406857230976
0.492652241948797
0.498513189092678
0.499719414992662
0.504837795773911
0.511130301755792
0.517101924871231
0.51496202318936
0.51617528828543
0.517651692246643
0.518192218013604
0.512890234837988
0.508547713142064
0.51035840884175
0.506213548592724
0.498762901433587
0.494126582362882
0.492677375670393
0.493006554459477
0.487329052573442
0.486504899670632
0.483889095610542
0.480072110876838
0.48556937891326
0.484451219814808
0.48486197033929
0.484967893963862
0.492695160011739
0.497291916967008
0.49927256061825
0.50288286333967
0.504544993790498
0.508491621609566
0.515081853672624
0.516401284477705
0.516933195189282
0.521379538277686
0.521235632753067
0.523660524908171
0.524558561503142
0.525684681385835
0.526331725344892
0.5275061037811
0.521158392303893
0.518450521118903
0.520575541424311
0.515882830174115
0.514459712261992
0.518252963957731
0.517249748787772
0.516893443580618
0.509464626601116
0.506253972939912
0.506391170879695
0.503509910456044
0.497893408748421
0.496659564664774
0.493374752299219
0.484879728031133
0.483790377901392
0.48176937027603
0.474679195871287
0.466895609682636
0.462435407088869
0.453413406737135
0.4459020226081
0.434660155845576
0.423161303658271
0.410091521593492
0.396865310142675
0.38695401173583
0.375527736151234
0.361449558049307
0.348633971692899
0.333343464014417
0.318798551755527
0.305947230536071
0.290318211121403
0.28707107552537
0.27524346891133
0.26631404695423
0.261791164548335
0.261934105656788
0.258195798168601
0.25328694026702
0.250365077116008
0.248976583679911
0.249901542185003
0.246381014630588
0.24455916956738
0.240658722145388
0.237108667171988
0.233330797611634
0.230990413995534
0.230018683548299
0.227456113043338
0.221750233966547
0.215724440606745
0.210726899765382
0.203787036128213
0.201716156006763
0.193571917406747
0.188542970812716
0.182211095086778
0.177495103961575
0.170388709610058
0.16278123845207
0.153173030661917
0.150554205968868
0.141038216296401
0.137773459995807
0.12905052752121
0.122268771193536
0.115687057577908
0.111997438329153
0.105657191899843
0.100766482770992
0.095997369243714
0.0943840262909544
0.0931067571609519
0.0862687921475063
0.084360137116824
0.0851111930767753
0.082785623090043
0.0813422265642473
0.0789684951112068
0.0802105777203949
0.0755063948379208
0.0805395897395941
0.0783905395666336
0.0729822841234544
0.0777552640478883
0.0798736577594504
0.0796625469440112
0.0782407657877115
0.0799438447252537
0.0797824550822982
0.076676381367478
0.078567811873442
0.0796720644602511
0.0812901738788295
0.082298274097415
0.0804053715406705
0.0781455192659131
0.0800024749610226
0.0807573560307739
0.0785062154196614
0.0761371759161268
0.0813373155465315
0.0776751527607053
0.0779013338620337
0.0745095815657836
0.0731574539727541
0.0751909257003234
0.0759756131359654
0.0717214605505568
0.0758801350918807
0.0780190412974028
0.0744247283013929
0.0749665926753379
0.0776479131282506
0.0764572797010404
0.0769466891532035
0.0802940831118073
0.0788657479128856
0.0816459560328939
0.0827368700091763
0.082952402718008
0.0853745163270874
0.0827356422388478
0.0866683170335817
0.0862138558159146
0.0880835261017232
0.0873439581484412
0.0871356783155515
0.0885145566666575
0.0871839057118016
0.0865512442166802
0.0899854924799096
0.0894472542785751
0.0877905823368395
0.0892938846170786
0.0936649063931668
0.0933784883046014
0.095203839093181
0.0967823755855858
0.0982074113122471
0.100654968025847
0.102469099928891
0.103575840679516
0.11085408101945
0.11473256049224
0.109851886894327
0.116904081382631
0.119597309073731
0.119629986529142
0.125610619313906
0.126037445127498
0.126785898573318
0.126697684246286
0.128724621778347
0.123862070974168
0.125271450205297
0.119742640375532
0.115991051802011
0.11165065430975
0.114013424422264
0.116378799811797
0.116575845296004
0.112323536667024
0.107333594373403
0.112208931802582
0.110864100096457
0.112558262244501
0.108163078582252
0.108641496976309
0.113363349555715
0.113479648719346
0.108874686951782
0.10790866219457
0.117149753956964
0.110245073808137
0.110479513861522
0.101340024138477
0.108876992778866
0.103817353296074
0.10025282457272
0.0946153537432522
0.0984356347235087
0.095288464938686
0.090753052944471
0.091090231507721
0.0985051108745237
0.0988678391147085
0.0953784502273598
0.0928130600965715
0.096841388151569
0.0980965495148022
0.094991202364844
0.0941566551502153
0.0919330748033897
0.0898883452209626
0.0955758593053445
0.0950378794877718
0.0935005779506751
0.0871387104584926
0.0944928767253413
0.0908963707457505
0.0936808794623237
0.0883921313015086
0.0975652249009327
0.0859825542015548
0.0889049586032455
0.0837454411779228
0.0842838695935208
0.0787791254494752
0.0839284790659677
0.0819347772924579
0.0818433243092476
0.0809238991623249
0.0872281421414533
0.0846606521697525
0.0784694149915007
0.0813169362017815
0.0818892623509751
0.0878325986479264
0.0829894609056541
0.0847624108173821
0.0870447758180821
0.0871384989310781
0.0896593895913211
0.0918958869934186
0.0842779818656079
0.0888962825412006
0.0879031952517139
0.0888285879908085
0.0890923442886531
0.0866350001029785
0.0940168342121431
0.0921276195703227
0.0860531451734975
0.0955026457785454
0.0931025061068603
0.0837332004369987
0.0933406404447736
0.0978090045766988
0.107673797192014
0.100227686432954
0.0875015975016369
0.0970689135926829
0.0925685619540802
0.0916310673340843
0.09593241837089
0.106150041730846
0.115126122859922
0.107202421555357
0.107798946547117
0.112227939328897
0.107608750074432
0.113256289796731
0.122409886947023
0.119881450467215
0.132191639395442
0.12386395210139
0.129061492619645
0.135366713884698
0.138969990706949
0.135807342499068
0.146027408170385
0.146575007115539
0.152892191198106
0.152303410784211
0.162767326695856
0.164257238646039
0.154328072241865
0.170858823913091
0.162140536868516
0.164231118400551
0.163866620496358
0.165390026575987
0.170389224010924
0.157489012868257
0.156335561666328
0.160639133995999
0.147629286764285
0.147285206674462
0.162475774452308
0.163854118666297
0.152262885673616
0.159767568988582
0.158848439553437
0.144804138314544
0.154223994913522
0.145458962006487
0.146750844663208
0.144780569927869
0.145497794817656
0.143335703166126
0.150748142406557
0.136713082366037
0.143923303117562
0.142218502740835
0.147816849238323
0.129906078056369
0.112537318230534
0.129000523028118
0.149062566526592
0.15236577377322
0.146823012689293
0.13792760474539
0.12279497835547
0.123777994195936
0.133273182786063
0.146296635358105
0.143835138348273
0.138432441217941
0.152661896787026
0.131060270468193
0.142585127606347
0.153034289386148
0.146078838709627
0.132269690824407
0.133491369572313
0.139785990375312
0.142718557053491
0.142731191983501
0.132321116665599
0.150496235163273
0.162257203426907
0.156346906983309
0.13542510446855
0.142965852697703
0.146390339424659
0.150068581261876
0.141924118873315
0.128479055005279
0.133909440099665
0.144128705682253
0.173847392233692
0.156105023818041
0.13410642316964
0.158821519501891
0.153419830139296
0.141803734948875
0.201883949156701
0.15460818077206
0.171141028517908
0.173727390544827
0.172921751725327
0.156069838025425
0.167924139815967
0.17688500853997
0.190687941210251
0.172456156179903
0.18366967638792
0.170281185387616
0.207194183378944
0.180187208532804
0.184818464812477
0.202236498861571
0.184262382571111
0.181378409934866
0.18104270977544
0.196995367213287
0.191424534972244
0.161497222842443
0.199250797041879
0.210739909959016
0.22391503918888
0.19987007613217
0.201434256399232
0.217104393741145
0.147974139236309
0.166173463435728
0.198869705732522
0.169287695009662
0.191852293799508
0.166329885644173
0.143930680648154
0.139577597357973
0.216458171248631
0.219754993399396
0.198739308974825
0.171406770830053
0.191858705533632
0.26483759292664
0.19732059972497
0.175876847444453
0.14423874698994
0.136524767533633
0.216362943638949
0.190864345975274
0.139670876577577
0.17450788186624
0.230878941110458
0.113082132451376
0.188641699772879
0.206446441761877
0.123088380640999
0.225112172612248
0.0566798996471889
0.204520036276062
0.214532721827376
0.211084854326301
0.236406361499246
0.154244232504095
0.18569333737087
0.124618322055339
0.17086939993763
0.129374520633747
0.278510198014956
0.155171014791166
0.146588907965251
0.295041756532845
0.178320125769669
0.239211489604905
0.358991542476406
0.251017683753992
0.139172756641512
0.201972925121555
