3596
4000.36533379555
650.420452594757
1
2
2
0.0720324350017219
0.0699562045983656
0.0808260116262555
0.0608635006380106
0.0765880664121708
0.0570230486152577
0.0828820807663154
0.0654925452173022
0.0677009550688718
0.0527165048632153
0.0781726139012851
0.0547678053460253
0.0643474841105842
0.0584253303523922
0.0704345395252273
0.0554740325250388
0.0685748784979907
0.0527958746812943
0.0715197997657472
0.0570119687132243
0.0739507711032488
0.055529474506383
0.0656629056510299
0.0477994343500786
0.0635015519457743
0.0557641954018289
0.0651188538218164
0.0521055457923971
0.0740859222660163
0.0571699384682762
0.0697658882790978
0.0586847788610088
0.0711459818175834
0.0513943458852485
0.0710668865680082
0.0576126527067313
0.0738731707444467
0.0607273903892729
0.073642426591264
0.0460621389711941
0.0737228271381788
0.0632078636959921
0.0776935983326423
0.052650564594862
0.0754700798602537
0.0534693159520955
0.0758976044811577
0.0578797552019684
0.0725919583252633
0.0601912062430056
0.0740691782976012
0.0572673104933097
0.0804549341034361
0.0599525903710974
0.062991707481551
0.0638248327124044
0.0801877179256795
0.0523928316960919
0.0663567961423762
0.0483822625812037
0.0826382127331206
0.065902904838522
0.0777114269234843
0.0457783236720207
0.0691973218867204
0.051358154097977
0.0710573459822929
0.0500340018051579
0.0710733649059106
0.0548210808367291
0.0605913906029705
0.0583103414373038
0.0734507640876434
0.0589626892047407
0.0726265118049044
0.060436600086412
0.0661038468296459
0.0497437924231703
0.0578107153406558
0.057853180114691
0.0792624865153269
0.0583433277179148
0.0653185515846463
0.0454833286730276
0.0743098414455555
0.0702245176814711
0.0618915968821735
0.0524956651860967
0.0772916007450853
0.0593428855851967
0.0617385627693729
0.0487284249573923
0.0633453669178761
0.0549476773594936
0.0573629564623724
0.0556568406895617
0.0708869837224959
0.0510192641462973
0.0593971154028489
0.0674579015761551
0.054122075221982
0.0602567719494105
0.0823504366304799
0.0499627456421949
0.102958837271064
0.052082782155045
0.061875280563616
0.0679838540967306
0.0810093797132169
0.0586394495752021
0.0664835351132629
0.0428959499794242
0.0664686565142967
0.0582982901494588
0.0449175826463279
0.057463513858383
0.0898485680106623
0.0594205497100654
0.0655708604248272
0.0567958493621592
0.0392197222404268
0.0634629971709403
0.0916201544217876
0.0500782074390398
0.0736581419214981
0.0456681456218469
0.0487461756720844
0.0668731551129428
0.0781063492043877
0.0614130322326795
0.0585703889546959
0.0571102098464702
0.0494279753767157
0.0383818729831398
0.0806299476444784
0.059820272150986
0.0557260527373145
0.0306730822360096
0.0713164319322397
0.0902330590763709
0.0801731750637311
0.0567383947223636
0.0451030165729294
0.0402585572782524
0.0955437302490696
0.0606427434752019
0.0569969341359697
0.0577765774140211
0.0630254374298835
0.0577115096271225
0.054089113121291
0.0442822390515025
0.0749384992182978
0.0536998592567318
0.0198848183580645
0.0803562640777289
0.0832856249458083
0.07718100597992
0.0980697754484407
0.0606754909355448
0.0613311648064482
0.0612552009345266
0.0616296864080673
0.0440955325827694
0.05769722237596
0.0370397380603854
0.0684115635532493
0.0606499497255577
0.0637569939965124
0.0437488708168268
0.0781398628697485
0.0424660259501266
0.0462701388706251
0.093190432081424
0.07193491859377
0.0448067592061829
0.0725061031360636
0.0625614374334353
0.041312494383746
0.05111300502177
0.0831967795120978
0.0566203058228026
0.0630419941009037
0.0498159955486913
0.054388467459991
0.0646147097383176
0.0574505857159187
0.0571371755581448
0.0615157052331336
0.0377501548867255
0.0566087410845146
0.0810016956611084
0.0815604050420441
0.0607080148582986
0.064106788165785
0.0314224282255732
0.0863859493184096
0.0827245354042304
0.0695223276823607
0.0486310533025117
0.058401897938309
0.0478886152021039
0.0494115393381296
0.0520589763795129
0.0503406575142457
0.0266874899538951
0.0844123010841144
0.0759948008237408
0.0692645177378362
0.0477372904025315
0.0476306413211832
0.0242240302899967
0.102244930560167
0.0728197607901176
0.0720380606484033
0.0474508258435118
0.061879934101827
0.0472043439565667
0.076902504361436
0.056462180305722
0.0587519252382975
0.0538321183964602
0.0615040125928889
0.0480300815512323
0.0619989481162888
0.0458141553738693
0.0651724893398557
0.0575532637851039
0.0618126959205597
0.0517826844604412
0.0692700000059086
0.0552196101480062
0.0605979400101492
0.0518588153429909
0.0432411083576286
0.0570762069086077
0.0775017391698225
0.0622967841919131
0.064684542477476
0.0504444115737806
0.0544110626945662
0.0548063376161926
0.0595420331940787
0.0613362687673345
0.0495830344843554
0.0415606274276561
0.0825374938454333
0.0589188860620863
0.0633109397067155
0.0297401278789706
0.0776535655345074
0.0560810203569277
0.0692447678485525
0.045386044780814
0.070882062694105
0.0388832718179959
0.0617561720150568
0.0652839530950019
0.0726053602318173
0.042267858490427
0.0817716026682049
0.0543824387807593
0.0696437050834799
0.034277737900556
0.0431314977781423
0.105512903706694
0.0692414465522407
0.0426062922590779
0.109489692564586
0.0594744721421488
0.0753247412103786
0.0337778198167596
0.0399811123113489
0.123166884601167
0.11709096953483
0.0555717590782985
0.064183072802012
0.0616231101856813
0.0654534937943371
0.0620220458353262
0.051819163237257
0.0653910735574375
0.0576679391336635
0.0824653354612373
0.101954284851274
0.035615685311863
0.0817897053819233
0.0782699301999883
0.0799993668520614
0.0561599983506197
0.059253000646837
0.0377472206089419
0.0693884288602192
0.0586420183018849
0.0853874549101654
0.0538928875305639
0.064896472905845
0.0785277390039996
0.0774193715358656
0.0503125876233358
0.0710323984342375
0.0659222684940632
0.0743383178974436
0.057473660963556
0.0657928095049733
0.0670250639381451
0.058737710525691
0.041506298009211
0.101815194111961
0.0678462015354989
0.0630063404483054
0.0762051407801051
0.079750385201619
0.0563264594024767
0.0642152586615782
0.0569224047103364
0.0762125944245105
0.0488262598141722
0.057953718675317
0.0731041308295392
0.0802235607734408
0.0612214757975793
0.0701011838916836
0.0603552962371338
0.0765033513418294
0.0641761093713294
0.0685480925604569
0.0604720493713511
0.0712041879935986
0.0408774550872518
0.0885278620159384
0.0814597497271645
0.0482340518463507
0.0940845939390575
0.100578291549527
0.0727796220920119
0.077276787734333
0.0696795650673314
0.083660438281358
0.070847195328833
0.0828770414403928
0.0634192856105914
0.0774084204496373
0.0847105712128107
0.0873739425059451
0.0697298898146955
0.0683710218690609
0.100121363437236
0.13683745902569
0.0911420780744864
0.0898005509746617
0.0574199282554117
0.117983432221473
0.0840138445060074
0.124751727030775
0.0934089666821372
0.100935920237931
0.0877284396462194
0.0972068660560002
0.0849698358925806
0.0929136970406678
0.0910662668009881
0.099094152616287
0.0954235615891353
0.103412219695818
0.1024181368965
0.100087408645752
0.0879826591511376
0.13814312279997
0.113843000658878
0.117789062797857
0.104232475633539
0.104423556159174
0.128788295687003
0.11531359739227
0.149877368312986
0.122019835431529
0.130754116646285
0.152239267064561
0.119247445772671
0.134187644924332
0.117472679733934
0.142253178417707
0.13268908071567
0.136325026628935
0.131386051601975
0.137840212790773
0.131394550028403
0.147621869285714
0.134382251211871
0.142393190366514
0.133803984836666
0.17622403711683
0.142905900607613
0.163279895810651
0.129250974815594
0.164790489316845
0.183109203809571
0.209186524822901
0.155821506822814
0.188904129927432
0.148332513701676
0.184295496600386
0.167691776153585
0.182915052905915
0.169570739237043
0.184207094594772
0.189761324839222
0.197474853368026
0.197280147182322
0.215578413455828
0.178399177319781
0.22105948377727
0.188830273752365
0.217726431933
0.207489962682658
0.221413457130204
0.193902474766968
0.250553350695443
0.21557692722956
0.248019699091732
0.234585900246908
0.230282128257864
0.217034562446361
0.236621876821147
0.221699217509313
0.245929920674857
0.235530702217662
0.257815237824088
0.232899731079055
0.246292074354895
0.239655559695452
0.265581010944156
0.266028635888513
0.270091514128147
0.246529115562243
0.278760086733463
0.261193339312061
0.294268402143959
0.248249013787487
0.317782951530776
0.281064841783383
0.325362954090183
0.296382496851737
0.302173080382477
0.275917273944913
0.318998998686783
0.297032668274684
0.313222478937165
0.306821105029914
0.327078705713831
0.312018873196049
0.336444780717948
0.32266564643447
0.342129706963011
0.328954251615744
0.345589089374929
0.327205785310175
0.348343548709844
0.323947764439465
0.364141148851206
0.322303853696742
0.396128906172003
0.362275030780324
0.399988887941584
0.35849664297671
0.394358130054
0.37309970174279
0.401296616806203
0.358630762581436
0.390898210517603
0.389769692046611
0.417058175394337
0.396280092426826
0.418806416340249
0.404200315280505
0.420302893871289
0.409623885421856
0.431648001375966
0.430879029594177
0.437601883038061
0.425837979910592
0.448443676482855
0.420022750896635
0.462836298301239
0.428580398325117
0.463284979439038
0.438476994778849
0.506112129482299
0.44079788197457
0.494961558644385
0.459494885908815
0.507570275358151
0.48090248366066
0.525880194353204
0.484482611482566
0.498955128275667
0.480177698300266
0.522769229296105
0.515942173684452
0.541365260393475
0.49406394340307
0.583715193414147
0.503515281584078
0.553104735495151
0.54094055028523
0.575476854560732
0.543708077752753
0.563193094094635
0.519399056542841
0.613497574781791
0.562354875443858
0.610802414700205
0.572591669135014
0.592511390667461
0.567360083349945
0.601683935519921
0.589836757461455
0.626426711082946
0.598147740857806
0.613091723752567
0.594423327364618
0.629202733863678
0.606277293402214
0.670830905937717
0.621607856393644
0.662796580241826
0.639934378655109
0.675677458237613
0.654039876289047
0.689136435728155
0.655274188839107
0.694099147548079
0.63698127752628
0.688761339745998
0.643025619225606
0.710466651582443
0.65381733720588
0.696847122963688
0.694835563404289
0.728878140172714
0.663118247819177
0.773132477450762
0.7181970547308
0.753771091372686
0.696533627713172
0.762458896311184
0.708920394673881
0.794359674543588
0.721159418861677
0.801481662990052
0.69602939941624
0.791668114206179
0.756486411173409
0.783089643328783
0.811255128058836
0.803750869985172
0.76119309580171
0.830885516744528
0.748908022576356
0.869171950757792
0.779129644774976
0.864952254925585
0.803377680649092
0.873529042099348
0.776234244214457
0.872267758415153
0.802575212942329
0.851762310988522
0.798547112376965
0.859795632307675
0.813312082660812
0.865386157976582
0.83747930146412
0.944117010451141
0.828363992151069
0.910471217836377
0.875741347834777
0.94852881018957
0.854242148196266
0.959329498279763
0.871233443857801
0.996211519086136
0.908333309477323
1.00866937341083
0.908187361725379
0.917682556436686
0.877503453526378
1.0027251070556
0.929638747121957
0.971477051868787
0.900679114547506
0.997804124927061
0.920198535503531
1.03741644465299
0.921140881915317
1.04953210977297
0.92355958662128
0.978321321642923
0.961962556730416
0.96720859393702
0.938532974321259
1.02597814747289
0.995516846380529
1.0529464120868
0.990298493846224
1.11378299927832
0.926673715479587
1.14954016847068
0.978006917414199
1.10806169426912
0.980893914959065
1.18381001642055
1.00299711945927
1.07438305515869
0.982984273708418
1.08499176319205
1.03714773348944
1.12367259618768
1.02668463728346
1.21245410235591
1.07143436554674
1.13721592569808
1.07525457579047
1.1437425739176
1.09409775945823
1.15364572138405
1.03147887984781
1.12145665454532
1.09402039866404
1.13325753844946
1.07256500525292
1.33427891340445
1.11463828985609
1.17481417135106
1.09001762556811
1.1589079149985
1.08987642783811
1.20863939121673
1.12302656249419
1.18183262374294
1.08629156539265
1.10367660698994
1.16215446011639
1.23061550750585
1.18811359600755
1.26594380778957
1.17375622816076
1.15703799329839
1.16478293504514
1.22172901515904
1.14826035183018
1.21564535929278
1.15982860555992
1.26046724363363
1.20704955632489
1.32649840047871
1.14431645147148
1.26308310607585
1.19216382466965
1.33870209320775
1.19309409339275
1.32234552389562
1.08256727210882
1.30397857413765
1.14480260291797
1.40322863902464
1.22205770879937
1.28193085503821
1.22879521279517
1.32550518476364
1.19690028418912
1.32027883505175
1.14281469238234
1.32070095359224
1.2173633461152
1.31312941616861
1.20599607156974
1.28811332952651
1.26059020406711
1.41853187069873
1.15552135054816
1.36255171527843
1.23713726106936
1.37721758891374
1.29316493442357
1.3637497396806
1.22042867582135
1.30474483432305
1.21452062055144
1.30926845399254
1.27019254285128
1.37084712319557
1.25364363901883
1.34691206520334
1.17138586773914
1.36070042922109
1.29128635166541
1.56947054017806
1.26930650544096
1.38368364442381
1.31141192905619
1.31839977556835
1.26119394715062
1.38507432444789
1.33574073725973
1.48526863669466
1.23554180653571
1.43302757118718
1.34244678694221
1.32855532187432
1.3278109444231
1.51767111903981
1.39838753402278
1.3836342147378
1.29643718705445
1.36912718201355
1.23541558664833
1.33437466475593
1.3695436191455
1.34159064377196
1.32870591536911
1.36269471775138
1.23384801905048
1.35075478399774
1.33613103174923
1.43705603684966
1.30469581428714
1.37946576070166
1.28229880434811
1.32598477536229
1.2691200436464
1.38656166816285
1.27108571228466
1.32788360634612
1.28760104221089
1.4334851033637
1.33406038341949
1.50885714791969
1.35591751465581
1.45810847200948
1.3871466579306
1.47255010606323
1.27496306964794
1.37160287568682
1.25877572365635
1.33065022827686
1.28118667304877
1.46089587175029
1.26180266589082
1.43668359107169
1.2560661327004
1.37877123508832
1.28528647298063
1.42006655480264
1.35829684491039
1.42805797257052
1.41002669659088
1.37441908480048
1.40592207031185
1.41069046481982
1.39009586510559
1.40289358515068
1.36190121943306
1.3994759816188
1.34289194243116
1.34811744285008
1.24733867348212
1.42940881064889
1.38050014957727
1.31309136195795
1.33512239331974
1.4249222481893
1.39006914277408
1.48647971584479
1.2734118225366
1.37755923583739
1.26983368785221
1.31060256246947
1.31131390950535
1.41025706759046
1.29378454998567
1.35250950026579
1.30779230133558
1.43420464140333
1.407951792776
1.41752367396749
1.39679160930487
1.43153960626373
1.27305056946801
1.36454103084215
1.31981673900462
1.44701604532672
1.37382842248261
1.34389162664575
1.29284131144932
1.40718548915511
1.24103248795213
1.4122813801491
1.34972263302735
1.37348710773538
1.33320348607273
1.30612650893877
1.30817402301017
1.37038588487141
1.30831290171911
1.35528055152603
1.309807766409
1.31339393710997
1.29696859396951
1.37208773396449
1.23614985733629
1.31324796368257
1.31329576764597
1.29601529695714
1.27238286371028
1.32263438970423
1.24176000124511
1.4136712603187
1.33994632825508
1.30189921295014
1.23782094014252
1.27785775034391
1.20214357102148
1.27689456842292
1.22996293408759
1.35017859584513
1.2209609018025
1.25362433396701
1.23063239557511
1.30517533400773
1.20099195747114
1.31186544498734
1.26221432204487
1.20621461828382
1.17526632818535
1.31039921592396
1.22752107179285
1.27286730682808
1.28352113882051
1.28747673564381
1.21885295130509
1.24995680867756
1.2201191616229
1.23167116573551
1.13873149736423
1.22105206090427
1.24691420803469
1.24113227813575
1.16694540269414
1.2173099512369
1.16431956148572
1.19952137386291
1.15824941470078
1.16035727214612
1.16035201853471
1.14906426251497
1.1542472212607
1.19733506839145
1.14046389244435
1.17824610195661
1.1186697643891
1.15766574349541
1.14414123424381
1.11157839526163
1.07144059162255
1.14073081496564
1.1132505577775
1.16910748732238
1.1276018471572
1.09596193787599
1.06995694283388
1.1472848385489
1.02006939324815
1.06004226521122
1.06012432098428
1.10099348711428
1.05486538520991
1.06095737572389
1.07108335934906
1.08204516005289
1.05096800708111
1.08496244916485
1.01629455125446
1.04362246115909
0.981395573699203
1.02775763810103
0.991907535773606
1.03043500774607
1.01394326958821
1.05522891445502
0.987527408391216
1.01040774520413
1.01079008814796
1.02594138502521
1.00303192619941
0.986940388470048
0.970206178507789
0.975919482906925
0.978757581233964
1.00032279852261
0.950497514412288
0.964543390483906
0.970839381894434
0.954334489663712
0.943456613049221
0.977004062231154
0.909537181114332
0.949951170380315
0.929222902799983
0.942589270685329
0.924545277246694
0.922246957168975
0.889395734847707
0.906230846294372
0.904401687702114
0.938141393056625
0.88710988185816
0.900086332823443
0.882355887319139
0.90568484799869
0.867170956016232
0.875626713788563
0.877888348256629
0.884630594655055
0.853067804612999
0.882480292390434
0.838123636949886
0.859379417210828
0.863924431551107
0.854965452707307
0.832737283372785
0.843494456678335
0.820679512735236
0.842094450149912
0.816642027629267
0.836000142057712
0.815931335072186
0.819088389510924
0.797064928816385
0.802672211554225
0.797069020509683
0.798592929815945
0.778030798088085
0.807350338104718
0.775546364243548
0.785474203835003
0.753433715029802
0.789580029035942
0.781494823052014
0.779872671487919
0.770529428932895
0.758542594472408
0.743065953896966
0.751589770858881
0.73498252887964
0.750704250005348
0.739533083883549
0.754808408610795
0.744927871036195
0.743317663428595
0.727951263318972
0.740821978921982
0.718169532178694
0.723157203907288
0.718459036244684
0.719280927301085
0.690798221631594
0.71595436768173
0.706937322241726
0.709471691720455
0.697125798349078
0.703706731303899
0.67963982764452
0.688880269416327
0.663078043257502
0.682791534307285
0.677108505684753
0.677028503172481
0.681136291745122
0.675882871449325
0.641891968871317
0.659629758961971
0.64585793308715
0.661040204245956
0.652589656966395
0.649313858197897
0.642101540833278
0.652643116173493
0.629066185077072
0.649217255223764
0.635731718447676
0.633462208743243
0.628727284482842
0.628889623013492
0.624201451909813
0.625507214872495
0.616717144491517
0.625115817358521
0.61420785023382
0.628460274923173
0.596919298424328
0.606482726921931
0.593888949000842
0.611214570659281
0.595071118775653
0.594311162611271
0.595432590727098
0.588863608183224
0.591036625394818
0.589335583928896
0.581186596898892
0.584563219446462
0.578227079645703
0.582798018413947
0.56624976624076
0.573444232101857
0.554802477492312
0.555395470860739
0.544815702182608
0.547710747685446
0.549921290412405
0.557717716510866
0.546785220873357
0.550077835239933
0.535162325655447
0.543246392839671
0.537502648880481
0.537853899510515
0.529545929729378
0.535094054106837
0.521427199657749
0.520274298700828
0.512366385755048
0.521167994256474
0.509682692682975
0.519176909760996
0.504363242087126
0.510600994019088
0.508148709995465
0.509036077853614
0.499302123402344
0.505675163821075
0.49099036603683
0.48966324767631
0.494871790678049
0.489500674162756
0.484108688874746
0.484029663168318
0.476639656799417
0.481525919514136
0.482827127551262
0.481772325445992
0.473754275252014
0.483855031632969
0.467343609692396
0.473997847608431
0.469493922272435
0.463955453434633
0.457208071657992
0.464863027048438
0.4580309396063
0.4591114910917
0.453690231831448
0.459907619009863
0.456679965161221
0.461251414239745
0.446190937765932
0.445721214955868
0.445761028088201
0.448590154012325
0.447267973139273
0.451350240595064
0.443828366293353
0.450174804407467
0.44509378421024
0.454890307633177
0.443954913940941
0.453659757723004
0.442416836595131
0.444883393484558
0.435157270815436
0.445240023833429
0.442938886946805
0.44555154615819
0.450279895874544
0.450175987179745
0.434809730504976
0.44159961368073
0.447138391570759
0.452687413958011
0.446501401958535
0.455299477622345
0.448379277717419
0.456143159052778
0.4512130937092
0.448824676691563
0.454958181364591
0.469863674979001
0.456427039592619
0.465097034443645
0.46750143195542
0.474061967261306
0.47032153296794
0.480322036873775
0.474238583403562
0.478348019601314
0.476348137850515
0.480745628795121
0.487228733511903
0.485661558344463
0.481880013045705
0.495237647260543
0.481027882265552
0.493751630875044
0.491959291642481
0.502125839078328
0.500106537964046
0.50340981494144
0.501053357031364
0.512401675389402
0.504634272376945
0.502389320263952
0.50940111857494
0.511600875112365
0.513067388576227
0.520997358122607
0.512407413371232
0.522711549410289
0.531576199452112
0.529167734152338
0.529201483255518
0.544904676013791
0.532280592510358
0.551457223765141
0.548552997000059
0.555287363282457
0.554136565550192
0.56050881726247
0.55889905389063
0.565516588669943
0.558598187501522
0.569615776553988
0.577544135719858
0.58569394353978
0.57121494364329
0.575443193192173
0.57699978394171
0.581333086232478
0.574304776626488
0.572469046867051
0.574140391261695
0.584882721227467
0.585719664981366
0.579151819682361
0.580723178789004
0.583965062753085
0.577871288029025
0.583649502529252
0.574957104675653
0.58277770730194
0.582498050666872
0.582629790562115
0.570594963203778
0.574095472353092
0.559697719183007
0.563720776316244
0.564864492544597
0.569730669680923
0.568247424697268
0.576086538964234
0.564790304869871
0.573449484197141
0.577737723658201
0.569397170285659
0.575923580940531
0.574977986214673
0.564345283546654
0.56872804898358
0.564733563222095
0.575297478576591
0.568119594766804
0.575654563103859
0.578368541616563
0.569161950224783
0.567324034567809
0.577290224985108
0.572956144640932
0.57460041788406
0.567493259196052
0.574781827999492
0.57471655266415
0.576250571350869
0.561355125687901
0.569651692428469
0.577712607798061
0.575144060850867
0.568576996029156
0.566556347980002
0.565356284543241
0.571561367920564
0.559285538655635
0.55885320262031
0.565087342288316
0.571965836294181
0.569065875642467
0.562923070428954
0.546778600496442
0.5602507288387
0.556875443010075
0.555235990171184
0.548670710759387
0.547896891170472
0.533660773263535
0.531828341844168
0.536725485675896
0.542118502842032
0.531363192336087
0.52110102943873
0.51664126929829
0.534594466306956
0.525156323406505
0.521947647497059
0.517753311055036
0.519259766538219
0.514861758131774
0.504320852610473
0.494734263266001
0.497852730743735
0.499201879032217
0.489012091263193
0.479525167978051
0.483663566295216
0.477780899618373
0.476114470440009
0.466231827075795
0.467712561382365
0.459496920363027
0.455393522365355
0.456382192794704
0.460252890750996
0.456094807707402
0.449793665473536
0.444877474118515
0.446668474101261
0.438696080470402
0.445534374181645
0.443210766524062
0.435438550475454
0.429130812331467
0.420091280811243
0.425498703324273
0.427094429411855
0.41933241209522
0.423120068576058
0.412677838171966
0.417392298689581
0.414392428454976
0.41590859819988
0.415266620795816
0.413532329447713
0.411100421088378
0.412427406271027
0.407312670379949
0.411278146307149
0.401850146032232
0.397476012501427
0.401097344345529
0.396626306263607
0.388928595706916
0.392264990016001
0.389363848320373
0.391567468257911
0.385732405284103
0.384343091709083
0.390074704090246
0.381759796262351
0.376638856447173
0.379361010280122
0.377158797146918
0.380531028236597
0.376083312740194
0.378521632764355
0.37871160352889
0.377366846417642
0.366668845690635
0.367452489451803
0.370442093034788
0.36661547593583
0.363247838144251
0.368089547362443
0.369078858005949
0.367216902500911
0.361281674003166
0.360768661203906
0.360530045644059
0.360783254704987
0.355212448248155
0.355048871048431
0.352606431248566
0.355598770819617
0.353620445640763
0.353531727771425
0.351359700558122
0.352281275142037
0.347247428368772
0.351207536338979
0.352118933067974
0.350181806204659
0.351733468740225
0.348242547751464
0.344590732988075
0.350109908556351
0.343976904011742
0.344633603421961
0.342683422209424
0.336167906579199
0.342358489233346
0.341550340269611
0.339867272856685
0.337651138775693
0.333472433409995
0.339700834999929
0.339257632146324
0.335863581026739
0.330325336487353
0.333008438005799
0.33381731562479
0.333746077024445
0.332273285551249
0.331478212233627
0.327924924287829
0.327190991939094
0.328485009195975
0.327063306639668
0.324289777567425
0.324790381704321
0.322793750911589
0.324392035262958
0.322669256466827
0.327706250148137
0.325328243975643
0.3237686475284
0.325221739444152
0.322928576035443
0.319078151402103
0.319781807328424
0.318430208816561
0.319530761723705
0.32356539502781
0.319244920175513
0.317178412803816
0.321689907235647
0.318500531883024
0.314516917305364
0.319558792494463
0.319396854254759
0.314914409392606
0.315337099883722
0.316310748043004
0.313386941615531
0.309027717979037
0.315167166402941
0.314305681223958
0.314096152443158
0.311630752828786
0.315797485979873
0.316570244044907
0.308604430017547
0.307853692205504
0.309960636113352
0.315372761555162
0.312189717656002
0.313143872953866
0.313339712203325
0.307002654466986
0.305677699965436
0.305306727907072
0.309908544606508
0.309515396681716
0.30687584405356
0.306223945990568
0.305495877872791
0.303531169167544
0.302419020971098
0.305417641143781
0.301120060282218
0.301783115034939
0.300861840652506
0.295230136254861
0.301601965861622
0.30287778989151
0.297070543597163
0.290657846483426
0.294235641425683
0.297173102320693
0.295614898188774
0.296201582102922
0.293996349759854
0.291981658429719
0.294786450624021
0.293556652079126
0.286494583402015
0.289985933248688
0.290474995613078
0.288631801810322
0.289610575965676
0.288283339526542
0.285026747557939
0.285910865557377
0.285415502651556
0.285871430341767
0.283333794045107
0.280474356705639
0.285544521084938
0.285668821622782
0.281661166207425
0.280917344300824
0.28190196908464
0.28058290783038
0.280515253678653
0.279281669682174
0.278441327996272
0.275559158795507
0.275717602596852
0.276858843556262
0.274763630966759
0.274136846068414
0.274681514515928
0.275117852393674
0.272627601172671
0.274065262827301
0.271466208078436
0.270966615846296
0.270581520825473
0.269167517234396
0.266433179150947
0.265906821951332
0.266929590893744
0.267524372404755
0.264794003392157
0.267784123427391
0.263823547420651
0.262456438394366
0.265325471305393
0.260271884896212
0.261017454630302
0.259781352683736
0.257735577923499
0.258993704769768
0.254613417531509
0.255309785362738
0.251755759400591
0.251071036364735
0.249666320201861
0.246858504101587
0.247422472095731
0.247327689901494
0.2490996998687
0.251189503900105
0.245988661199341
0.247904933024839
0.245448452628826
0.243335541074078
0.244250541608185
0.242760132468219
0.241886514990566
0.243662070986464
0.240758963938871
0.237571433795037
0.234372757220578
0.240983645158371
0.239330574453276
0.234226826332236
0.235603327860064
0.23524936009033
0.235752898451594
0.236469984760338
0.232686078426767
0.233984080575561
0.23546093794311
0.232019397876946
0.227790833866993
0.23219837592029
0.228552990864593
0.225797936461872
0.228355247229212
0.227162054051255
0.223194262243391
0.223946828948409
0.227994286587984
0.225715348661744
0.222440474581138
0.227442831369295
0.224583816210568
0.220510586629808
0.220844366245347
0.218254797858614
0.219636865768717
0.222113761724513
0.219674314611292
0.218545863846109
0.214287835911821
0.218642632258228
0.216484573030944
0.214891008957316
0.214968531586342
0.212794849749518
0.208704506834552
0.213045630889795
0.213629897029758
0.209430825200325
0.210871648364761
0.214400930661397
0.20945515421551
0.209653628233144
0.210116191000416
0.210546906858451
0.206258400407633
0.205637140263504
0.204019348600765
0.205142014834317
0.204302863887533
0.205324675041624
0.205659503518182
0.201013453718148
0.203142581516555
0.208489201461498
0.204540722236688
0.203931210380085
0.202832925552958
0.202177995767587
0.201480718087915
0.201612082174449
0.198371351865769
0.199362546626193
0.199312875073724
0.20140926736926
0.200712839715855
0.203874596495947
0.200277446780238
0.200738687343012
0.200872636207755
0.199764183848433
0.197209800470346
0.199629563059514
0.195091118721948
0.197118592901564
0.199309261286256
0.197915273048852
0.194237089562214
0.197317891310122
0.195559686364584
0.193186314159206
0.193552961311668
0.190155891385315
0.190639117519238
0.197047024380003
0.193167324883549
0.197019992346028
0.193902951334896
0.189002976894635
0.191243441058157
0.193579556334553
0.190625768367577
0.190616346449925
0.190013283707493
0.187060763711693
0.189970175850244
0.188674383589109
0.18632959301422
0.188835744537456
0.188099187236714
0.189650186077005
0.186380945677823
0.186167809268017
0.184289320037275
0.184665353098458
0.181186113507156
0.184148542515694
0.184161910013412
0.184229610866072
0.184782062861442
0.183240291582786
0.181710497683506
0.186289163633095
0.184079707270628
0.181118087455775
0.180651677354201
0.184890326476719
0.179434847394963
0.179501601152828
0.178742825230295
0.180453542682872
0.179687746492607
0.181782377697331
0.176105405713227
0.175532742884135
0.176105985583485
0.177832887015349
0.173049123189555
0.175750379044563
0.174206656540915
0.176039895007592
0.174190556622849
0.174505105261598
0.175920390775706
0.173503755928827
0.172729664121519
0.173035765433013
0.170229267140903
0.175141799340222
0.171598102064797
0.17327953178353
0.169724676597952
0.169847950065189
0.170030509473754
0.169943424486324
0.170450738531116
0.172856534811037
0.169523368077117
0.170750344481813
0.167847808163585
0.170970564816048
0.167699501578965
0.168255638878744
0.167612473123945
0.165128777856568
0.164374892968487
0.16590532144
0.16298407371713
0.163452208815033
0.163340900350953
0.163904379011381
0.160598543932942
0.1594187963534
0.161092728002918
0.162803479107085
0.160536083447065
0.160981852301246
0.156855872483965
0.160065582002685
0.156036917748841
0.157290438498007
0.156193706802438
0.154913652714255
0.154614487669947
0.154811829552344
0.153203331628036
0.154887793610395
0.153761784976709
0.153329217829147
0.149699293948419
0.153770401992109
0.15366307888097
0.150919733914308
0.149562174523002
0.152500487195838
0.152363948128272
0.15266711969304
0.146452133875248
0.147093050729861
0.145421310463875
0.1484663891674
0.146586807076912
0.146735623491768
0.143859715837316
0.142930899856132
0.143700119261744
0.143716995410423
0.146140599630849
0.147517359007273
0.142484182017513
0.145617562659231
0.142183340174097
0.14175979586834
0.141761895721016
0.139709625193305
0.138130527082485
0.138678828799945
0.137139057971631
0.138742321002176
0.13718247865851
0.138446190109758
0.13569121790891
0.139074458150296
0.136038786707377
0.139686545325325
0.135320007956918
0.137215429041379
0.13331808140541
0.134336126295104
0.134601679060246
0.13273158986872
0.130821211428723
0.131810295306303
0.13011670087102
0.132157448013912
0.128444104165348
0.130852546225815
0.131517513295335
0.131203080248314
0.127837859273483
0.129180041525105
0.129079250950927
0.129776611697044
0.126483860339169
0.126523300288938
0.127175801062879
0.127876630671287
0.124658870677203
0.126847767841882
0.12499483420464
0.127157272318675
0.122789077953748
0.122397062546414
0.125687433888159
0.125282020086722
0.122827224787031
0.123604255726209
0.122089990861668
0.124215570190988
0.122784217673718
0.123153870041611
0.11929227735258
0.122320369753984
0.12126110665316
0.121254770776116
0.120456828407204
0.120130762450102
0.117711394260813
0.117785465426615
0.11953222163723
0.120071544759114
0.11829823268441
0.120034840011335
0.1182795619504
0.119935196536858
0.119101612819417
0.120534775602352
0.1179804797518
0.118401702873224
0.113698920682403
0.112338107692521
0.112744949272326
0.114483364537858
0.108390270065076
0.111243136429891
0.115287231723984
0.117674029181449
0.115482073625831
0.114889006663768
0.103795107238504
0.104902628466965
0.11296882624748
0.118378564164794
0.108322919192154
0.11017951664509
0.1089886334821
0.104605571580563
0.105510043245578
0.109937471495783
0.10388455320337
0.111262127312426
0.105842321600948
0.115280889199509
0.106401981414278
0.107051036073541
0.112361143103259
0.108605667742584
0.112220559646051
0.112891862646735
0.103273908925497
0.102318550215426
0.102705022555865
0.107557805862607
0.101281572285087
0.104807912648939
0.106928693294749
0.109516447769835
0.0986569663148367
0.104490666458233
0.0993870875973079
0.105758146801677
0.0947897988721834
0.110456748381881
0.100507136974994
0.117348422288675
0.101349142434779
0.11483882475069
0.0931768439686749
0.108117903729712
0.0928442103865959
0.124353118588568
0.0990688010886647
0.117251140387667
0.0852789868483086
0.122475566591793
0.0931012154511593
0.130576087841038
0.083135066917692
0.123293721984611
0.0949044598626726
0.123616225215747
0.0873779220531966
0.116841557477647
0.0976124513871957
0.112738202890701
0.0973561088467114
0.110170233233257
0.104504361706568
0.104676344480002
0.109062688659716
0.0995427530678025
0.105687452539022
0.102799200721916
0.108140082748566
0.104474490601805
0.103511944076797
0.108289791934062
0.10199388402843
0.107882982145474
0.0990020008638402
0.104407191977671
0.1018079155811
0.104513856526491
0.101107473737669
0.103018157244359
0.101397198483368
0.101254758730217
0.101823555055262
0.106267138537542
0.100936348712227
0.102311295869193
0.100331322412539
0.103113228300818
0.100809142551142
0.100867190867464
0.100676877037475
0.103136787006423
0.100861846858402
0.100749631052814
0.100643643478976
0.103835758719511
0.0994427745075835
0.102471713569495
0.100875589166395
0.103203961507677
0.102410766379741
0.106086789711713
0.101501790168493
0.105934858912714
0.10051168493626
0.10262557695816
0.101041448035763
0.105505097944715
0.101447249634011
0.105261432917281
0.102071596588393
0.103626399321072
0.100009815023342
0.102681085190411
0.102741927292552
0.104560867392214
0.102022937043527
0.10248515005031
0.100037606027337
0.101908856230396
0.101142292218882
0.105026639312039
0.102163593881393
0.10279080772682
0.102471766490064
0.103676273054313
0.101341041279774
0.101216087515371
0.0977081494962505
0.104724417956332
0.0996653104625673
0.102405251723114
0.101114644327884
0.103997305631931
0.0989519658279872
0.100567314646832
0.0986411629675692
0.0986589298861579
0.0997112733261018
0.103537615666259
0.0990537578667764
0.102495296472215
0.10287769344758
0.101749693089932
0.0976820791824656
0.102241386830014
0.101433904907122
0.102390894406481
0.0992544974854232
0.103397602655986
0.101196339464835
0.103687283378956
0.101516920686088
0.102158122161431
0.0997705397632658
0.102449736107115
0.100636727018955
0.102270392261779
0.0991839038254721
0.103176537145227
0.102068041801513
0.104861181924655
0.103555874364535
0.104618542227871
0.102056311692345
0.102370049629248
0.102251271169267
0.103195399440117
0.100486113732075
0.106771603346333
0.10210259353447
0.105884771608161
0.104412383047118
0.104196277944732
0.103033409141978
0.105601026988279
0.100773710804151
0.104759277217579
0.101304412100272
0.103566865088158
0.103395844916179
0.10638673606971
0.104743764206422
0.105062561742366
0.103003093600939
0.104107495626585
0.102609801063262
0.105884533323986
0.102402883366153
0.105267748315405
0.103410057662823
0.107940721482181
0.103662619562935
0.101447685881651
0.103924907967743
0.105371939177222
0.103797204250913
0.108680409162548
0.104150139704658
0.106328863591029
0.103547529934299
0.105164604727267
0.105860916865898
0.107627970058792
0.106651339634465
0.108469198597835
0.104763651652028
0.105310811771471
0.104012577041298
0.106243798839488
0.104590763216574
0.107221189208173
0.104098799822129
0.108096507668246
0.106047049200708
0.105581787031589
0.104396500560176
0.110505463284783
0.105017897459633
0.107094368667999
0.107564636515105
0.110070412643283
0.106513549597053
0.106113947599988
0.105805201475021
0.111140604421799
0.107374921308752
0.109469340566928
0.106570210149303
0.110587390543682
0.108675417700969
0.107924315378434
0.1071404098316
0.11128626057465
0.106998761558021
0.110959244139903
0.107148394805202
0.109910901439961
0.105807822111187
0.109672017598729
0.107071863233811
0.107397765651346
0.109383890455818
0.110713973518289
0.106245534100252
0.110101255120774
0.105871845516104
0.110814198118136
0.106911301992292
0.108290692809838
0.107399124086258
0.108368040513506
0.104607202368877
0.108221678117479
0.104490527121614
0.106371379129032
0.103150392937143
0.106865843060049
0.105967004639657
0.106106473356136
0.103748953126734
0.106233975495058
0.106615681833263
0.104944970805749
0.103025378857944
0.105817393089635
0.103588874776213
0.104167360508
0.103698114612074
0.106229415566273
0.100857405375492
0.104188329307267
0.102709505327836
0.10369286102723
0.104656981744909
0.106955285982689
0.103572998993698
0.104615695303147
0.10094531794848
0.104047275740807
0.102529604570698
0.105701373227842
0.100521171607008
0.105668463444591
0.102005290774221
0.1045406912763
0.100090316230706
0.10376334569767
0.0994310456391303
0.101544417677156
0.100403361860019
0.102262785063753
0.0994763996363393
0.101790634825359
0.0988484193919868
0.101632494771782
0.0986036239408061
0.10250742632853
0.0984938467500519
0.102736004934231
0.0980852642635724
0.102917501709931
0.100212400139459
0.101284986571842
0.0978778483624605
0.100942808326881
0.0982739462935686
0.101200009492278
0.0991932616514027
0.100509264073509
0.097344264926297
0.0992769880148613
0.0959351107905907
0.101247566668375
0.0957692422115124
0.0989210711939046
0.0961651299899241
0.0989462257358956
0.0989682909017107
0.100365625308655
0.095215216071547
0.0993775829674399
0.0983049739893231
0.0953971707907841
0.0973261370373728
0.100486986238803
0.0982837063568923
0.0965192037673423
0.0978459655280121
0.0994901753604522
0.094869030366886
0.0989973989386125
0.0944591664183761
0.0980345479658453
0.0952930942256091
0.100188816314558
0.0966734582725243
0.0987927681916463
0.0948502706513104
0.0966873210588737
0.0931343166501006
0.095109952725749
0.0951936466654993
0.0969694439742882
0.0943491948412242
0.0966618355738624
0.093265625027963
0.0993541684052534
0.0935895222517556
0.0961007626836
0.0935191568613685
0.0964263183706609
0.093703425595149
0.095487164774193
0.091558381526394
0.0963305633750798
0.0926863180663323
0.0957239433736098
0.0901360635558561
0.0946236838871945
0.0898361542907446
0.0945355368907652
0.0927534789010282
0.0938774538915998
0.0917839402267038
0.0921574435713892
0.0899486419783898
0.0914287363205273
0.0892647514154391
0.0926445171104377
0.0879411574748024
0.0927157827246885
0.0878845358997715
0.0914311545857631
0.0875860241345124
0.0909127474078881
0.0877897578970437
0.0895851237598673
0.0874981041548724
0.0891915672819518
0.0938722828245579
0.0888980976387254
0.0858015305992029
0.0864255769362528
0.0846612000393771
0.0859482457077253
0.0849800587363157
0.0881404876607487
0.0864957458688021
0.0872249866120605
0.0849465043851719
0.0840745901260643
0.0826228936611411
0.0857763836317334
0.0846787449776391
0.0848817719767583
0.0836409922472497
0.0842227901342703
0.0840795263398805
0.0813281498463658
0.0815746959827108
0.0815421176125916
0.0834609604592433
0.0827795560692629
0.0826202130042946
0.0808525635993377
0.079267969174077
0.0863303701981255
0.0831065852387431
0.0847634700945573
0.0797344642257868
0.0818128478444765
0.0787240721454625
0.0843573577692796
0.0801257835610604
0.083336936437806
0.0794389686839614
0.0820425120698447
0.0789545001926943
0.0831553645077918
0.0785531995952354
0.0811305017295061
0.0796885821047125
0.0806868411361538
0.0791303877035105
0.0804668880461036
0.078290351016606
0.0802622739296585
0.0775288589231529
0.079732772359359
0.0753505520475192
0.0797560090298873
0.0755552337729787
0.0851060237406396
0.0787116032518178
0.0788475580377375
0.076618796141274
0.0818408423867023
0.0759530278359587
0.0779331073017734
0.0753748241982526
0.0777409996077967
0.0755047048289911
0.0766577474397526
0.0766318177444337
0.0783258427935565
0.0773645793665647
0.0777625330779457
0.072040042186703
0.0745292867567625
0.0727241408725876
0.0775983613382887
0.0718188921291583
0.0772396529311006
0.0724482401702723
0.0797793641889809
0.0728026059710019
0.0801122508983378
0.0730753782178074
0.0743957400877791
0.0854390332151637
0.0744803507915394
0.0760845736251305
0.0720557896997287
0.0749842979776972
0.0735077336975016
0.0725940184990502
0.0724343207597845
0.0731064226240814
0.0733805500216094
0.0724020682376637
0.0721987705388222
0.0739004689700961
0.0725197997570411
0.0723211885044762
0.0736710179659671
0.0741680500411266
0.0740341447520763
0.0745561910944099
0.0713700279096851
0.0723123409292648
0.0801716868600067
0.0750564259041938
0.0739765906151408
0.0756118499604527
0.06426474931341
0.08714509621945
0.0729538230349861
0.0743898150402265
0.0718726222663064
0.0731480996768389
0.0726101327613389
0.0730508220847409
0.0710050334499355
0.0692677217695261
0.0791899671739317
0.0697854724061219
0.074929118268917
0.0714969024882701
0.0746796529611458
0.0714179752627006
0.0721399526727395
0.0698533482361439
0.0734012078100453
0.0704531753337835
0.0713208659414532
0.0703907817015563
0.0718434539209769
0.0725392664960979
0.0684647977051736
0.0700092057844631
0.0749728880388107
0.0691083357106376
0.0724830843347876
0.0717328323482494
0.068531901812925
0.0646553035735414
0.0874707452619005
0.0666497143948011
0.0760155717103894
0.0638287698408554
0.0739612325934911
0.068274606819221
0.0756427407796893
0.0664614793853605
0.0730045825453255
0.0653712009381459
0.0715916432853754
0.0674433409390754
0.0752157434933417
0.0681664604419714
0.0725849618851284
0.069691992970289
0.0694706430306229
0.0681013470583766
0.0674915878668709
0.0743304080715131
0.0642090590183166
0.0701990774757215
0.0828308057542742
0.0738131306809107
0.0791252078509623
0.071737410588997
0.0745353914359116
0.0711115297241205
0.0731590148609227
0.0658568100056191
0.0756352087277734
0.0669156089298873
0.0723947010345879
0.0660890404319215
0.0739174456779366
0.0663698449605184
0.0726663304368783
0.0637331840046578
0.0749663812696024
0.063491484247222
0.0777409517608049
0.0622076242731707
0.0779208360968943
0.0613499187967307
0.0814534836981377
0.0627430200921667
0.0859774689981619
0.0511495495052823
0.0953541006683213
0.0845533964931744
0.0704024137179489
0.0773147513654081
0.0669784352266111
0.0724361936294558
0.0695805051422367
0.0674646030837149
0.0739559788327496
0.0698102786203145
0.0719177229057493
0.0698629546365259
0.0717546685924813
0.0745173527133876
0.0689486696869267
0.0611722049231379
0.0934088658135069
0.0709604857743534
0.081908919219462
0.0685903693147585
0.0697679536870991
0.0914055280112367
0.0697122675721466
0.0767337603827408
0.074631388255056
0.0717866661359304
0.0727873230724921
0.0741558030113184
0.072180391776224
0.0728491412541062
0.0756196291172621
0.0718016572157886
0.0776400377335437
0.0681573810463254
0.0822473097123956
0.0693529377477947
0.0826374513480023
0.0820071907991298
0.0704413920925937
0.0774745316053278
0.0782525646544282
0.0749147950660171
0.0765776391800325
0.0737581896653992
0.0728273835704884
0.0770101907719109
0.0890919151331551
0.0727873490019314
0.0896358986465207
0.0819347930375929
0.075804594601991
0.0788600374849961
0.0782403859268294
0.087560039227666
0.070150117401393
0.0748720847961854
0.10567591397045
0.0734729681424899
0.106074877911537
0.0671516672379622
0.0899206147748719
0.0694666309869457
0.0898546701615846
0.0618169480667919
0.105157656497827
0.0664195984969183
0.0936084483620961
0.0679192255292271
0.0952395227907788
0.0885050588740852
0.0883596663940278
0.0825701269686358
0.0850422385978801
0.0773507985996967
0.0957341772455371
0.0858278844185255
0.067544898612872
0.10071364508392
0.0992030102880204
0.100251868846374
0.0956485075522647
0.0656555584510727
0.124222943314387
0.081654008368597
0.0987889650768886
0.0797069669250586
0.0973615456945165
0.0841011582164982
0.0804665586043521
0.108302239329091
0.0926539512713305
0.085762654830228
0.10303648865942
0.0733736285290578
0.107271720722659
0.0952375855360036
0.100410632174169
0.0867174150394229
0.107480745643566
0.0731925488470007
0.14088082239451
0.0965524442845157
0.10591568814381
0.116180706842532
0.105283246173291
0.109682981449268
0.102424983695091
0.105303951045428
0.105257471564325
0.118098895307567
0.112356358254477
0.0983138457406183
0.110990434338661
0.137553038455703
0.103074632646482
0.12297534342897
0.111525099975808
0.103187026744421
0.124164547975089
0.150846615359152
0.137177930985824
0.124308050862382
0.113039306439744
0.143128900274115
0.125571045395909
0.124652725378685
0.128688691282604
0.125900946210125
0.131514343171158
0.123403141423599
0.143432081972421
0.129331747246266
0.138547669201865
0.138191678615187
0.130092713069805
0.134702204943019
0.155360975791618
0.184230009115665
0.125665548842007
0.186685220166566
0.159335367808537
0.157165982127054
0.1527528973194
0.148643211510764
0.164280389955998
0.158383401512903
0.162458730544212
0.148070574572572
0.18596611718495
0.172259739426694
0.159257159782567
0.192475591687408
0.164211254825385
0.191127304766291
0.114238042285363
0.37528067841659
0.188449459728473
0.217223980128306
0.196369652598438
0.186575941714996
0.292787658564405
0.231156187336322
0.238066103431378
0.241880783220607
0.246747654126612
0.252099754056769
0.269308811440198
0.270771289362091
0.285080801704852
0.293120533427411
0.277076011631151
0.29585927101314
0.35330156034223
0.353648177721111
0.349137399997158
0.32107576189028
0.3485322457294
0.366319845178486
0.354363349427224
0.375755933354691
0.372856287081396
0.346775836432057
0.464540526819428
0.394484845240315
0.426875970496755
0.400428225130231
0.483087682346867
0.396141851125281
0.512704132381655
0.474855222860529
0.473723961950452
0.480651507077766
0.486486242722503
0.512965945662311
0.491385047816788
0.541232773212291
0.537096347361719
0.53165770428441
0.546513062021198
0.548484262466146
0.566332762231973
0.563572610632545
0.592392008643535
0.55888184647019
0.628705876678627
0.561025001136714
0.787322130219842
0.615022497579564
0.598009263100191
0.599687796561528
0.590973286243807
0.644375863797386
0.616236007912641
0.649497552876074
0.649258257670326
0.593694336637104
0.638971900172702
0.612495119290765
0.631817280365832
0.614858976924579
0.640015651034158
0.597872240600774
0.672664590044172
0.614307922612594
0.628578552817039
0.717302249363022
0.641760300494487
0.622732929131465
0.617859503297046
0.627194538975865
0.617574106703079
0.619158259384561
0.612446424994412
0.660701189126997
0.605251465443799
0.622878883624531
0.578513475825343
0.597255216397741
0.613376505284788
0.568800464560292
0.569162157576459
0.536705410349725
0.550506810391024
0.52477508929491
0.508729247618821
0.606936607530279
0.522256249929538
0.521941458144614
0.501691099936179
0.502731574898475
0.497935483108599
0.48666477198489
0.479154464425326
0.490012533553477
0.479535033457462
0.48125778624335
0.471293633039512
0.472917840245676
0.467525139365332
0.478344067713201
0.46079891098366
0.462374946366104
0.463596521000294
0.451377436977244
0.465351423936486
0.455863323992957
0.459616142258585
0.460607045876428
0.456826903274433
0.457505851435623
0.456612468283474
0.462227417316861
0.452472019503889
0.453035086682429
0.464071087916828
0.456945293049362
0.460278727749549
0.455418014277674
0.457748621370394
0.454203152735669
0.455469958912981
0.452062124735198
0.462809379591699
0.45295188338366
0.461876454269097
0.444790501783339
0.469147963804606
0.424064132486406
0.509630272578222
0.489990492221586
0.450574011306548
0.463575871297838
0.446858714242468
0.464109070291471
0.418837696425193
0.488674561305265
0.472482564139272
0.448102222299277
0.453163196313017
0.443585815473498
0.442060160866998
0.465441079597772
0.438311406003696
0.461696977803766
0.415475781362154
0.462799894191389
0.48739237417886
0.446847555296565
0.548534317691563
0.462590494349257
0.448325026295753
0.426179079642375
0.503271079534532
0.432192645785082
0.463373798599211
0.427253645358753
0.492495484209223
0.460206100002873
0.438415345161184
0.453089759942912
0.433215227786869
0.460714699266718
0.476386061410952
0.439879493550955
0.442791776988415
0.481943735071964
0.427520258540082
0.47869402295644
0.498224078791105
0.463178741288978
0.423790550311325
0.424337711044448
0.418662357431846
0.39740605497315
0.483999014711292
0.41404985907844
0.422075542647972
0.407940697999968
0.395639759470795
0.395704086775597
0.396047203612611
0.41233131450679
0.353449299207357
0.444381288223189
0.358173195412864
0.393729470148349
0.382078621284941
0.39243060821654
0.407424920526246
0.388886554812622
0.358121768691786
0.365796045502718
0.401798881145735
0.351197720236067
0.375615579974195
0.351743376589227
0.331696664296511
0.371777354436262
0.331527049240767
0.341236762422531
0.345823473743399
0.315873185462174
0.371987402433773
0.345201562860378
0.366353596390177
0.329280186755825
0.306242315006556
0.312459616265324
0.30264367227003
0.318322393320503
0.285695677397195
0.322024519283981
0.32522885792957
0.265848162513012
0.361228238994643
0.303924788854847
0.301026786707181
0.304923255911186
0.299736327243837
0.296576303554483
0.310882226271585
0.329844905134269
0.32001083829214
0.29940269796006
0.342623922099076
0.303259439684268
0.329139798788483
0.309000492394074
0.328514817994518
0.316939761285434
0.343840306445324
0.332139006527061
0.344681251770651
0.343988947265034
0.355077034688571
0.337903694085137
0.412469505215564
0.3377015995045
0.419899970299193
0.368370884776793
0.444930087467075
0.412000073612487
0.404036760712516
0.416168996736404
0.420152241660591
0.429541256813752
0.435406968633392
0.414727074809619
0.489758560336182
0.429289386142802
0.465288985330882
0.437015749027122
0.472731083675988
0.441927996342429
0.495213378681864
0.460437980570395
0.49405266988863
0.5370392907793
0.487636122106317
0.503350440351324
0.474166924605002
0.499993796466488
0.496677678733178
0.488369861259146
0.506948814569697
0.481606639297436
0.528150247214204
0.498180876011683
0.508856256814016
0.510669975351436
0.510619552667793
0.514640664825541
0.509397174729972
0.518068562864543
0.525153252656941
0.519203030493151
0.533759291353555
0.486557633607875
0.63103525131957
0.544034444734195
0.536455765064122
0.538520445475498
0.547714216927782
0.552294585323116
0.550812751809866
0.563826604663251
0.566978127904826
0.557449074338585
0.570018995186947
0.556349942563983
0.579602222675684
0.566181360155474
0.619484375228792
0.568619023961803
0.594805078933134
0.570250286044689
0.582964996832739
0.651170251700381
0.58574724493263
0.623207051156979
0.595244829416574
0.614344219122421
0.600927601831989
0.610082475421916
0.605955617486216
0.617582151743174
0.610538924562702
0.618319796215795
0.615985693553779
0.615135378211746
0.623402805674587
0.60326961574285
0.639690845560317
0.618521204619853
0.618660580113929
0.613118835948924
0.620213886088018
0.609805436536823
0.625671841488294
0.640902852214707
0.619228345856244
0.619673395182151
0.607371611516609
0.626777683806204
0.630742236457026
0.60217171282888
0.617345271195621
0.611701021009258
0.612821960592757
0.623115934801366
0.611020600041008
0.656230929757081
0.624121908673218
0.630331234664255
0.622009687200507
0.631173494811824
0.62472039656886
0.637093462180325
0.632427796828382
0.639283360345964
0.632034851858427
0.648682717348879
0.646390870438669
0.641352722270627
0.645211479331567
0.646745577257524
0.65019017865611
0.639744539559937
0.632992776229902
0.643435767821326
0.628077827380866
0.640389197427423
0.620843934027005
0.617532646003834
0.616563246416418
0.61984400388511
0.587919156733681
0.632651160323679
0.597502462276943
0.607207085568794
0.600816268103186
0.5807947682795
0.587856707192787
0.581165771852896
0.587254306494835
0.576227689928576
0.578863945349638
0.57137097531603
0.565080442071693
0.562739703846083
0.566968574544013
0.563656807077968
0.566024089971892
0.559143263416539
0.563394504284214
0.559394036046958
0.551933055130127
0.561609545727145
0.55091404015276
0.559169510227507
0.546765916772377
0.562568256292679
0.57123389582223
0.561018083554029
0.556668629204397
0.554156284796299
0.569134747656349
0.553590337525884
0.563135175704973
0.550588658757479
0.555891258772685
0.543947193285234
0.555527446978763
0.547413101526047
0.551867938397442
0.550641620769287
0.551136748125923
0.550472221093304
0.55549662392171
0.543488353314682
0.554524573696429
0.545333520788431
0.547600014336153
0.548039213238431
0.553630723111276
0.55343657059713
0.545190527547679
0.554735004671722
0.551740543377239
0.556277582526917
0.548934364801186
0.556531845143964
0.557960003391115
0.550994392670928
0.550159232870797
0.558383424769724
0.549145131651495
0.548990206946078
0.548222111592245
0.54855950731387
0.551099733151899
0.546110603084776
0.538123375543445
0.531070268679044
0.534838370072574
0.528962590461088
0.521549872469575
0.525439238270631
0.518498682065187
0.51472611366045
0.509323473883651
0.501790854800921
0.501375635131907
0.496874931285312
0.495625139565203
0.494000988094004
0.489013005170568
0.488188750201943
0.491507108864899
0.484553029038998
0.477305206325143
0.480946184071986
0.479368555494332
0.483778693991266
0.481548692464812
0.479386452265197
0.476728156712991
0.483568874109856
0.478717063646191
0.477818476672905
0.475550372360436
0.483203379420448
0.480445262908147
0.484821055248251
0.48309579950538
0.490391724944259
0.49043150087601
0.489075700580608
0.48976190076057
0.49408431280672
0.494837760920393
0.49734341510103
0.502284002663477
0.504068448202736
0.501272487684486
0.50278229945461
0.503213939300198
0.505106400717321
0.509472683524292
0.509946129399488
0.509314874844998
0.512586379916714
0.506163056748395
0.508486559169218
0.513798069103067
0.507655369008222
0.509626726338025
0.502473832108043
0.500972341426941
0.502716841713478
0.499430765375508
0.500869935984102
0.49871121448855
0.49798982727029
0.497722384352771
0.498611345788127
0.492532337514731
0.490675529564803
0.494480880073043
0.48915101245601
0.487659034617504
0.483014141333379
0.483651351774674
0.484045652833739
0.483724735375938
0.482115256627537
0.478192516491947
0.479321351041099
0.47673433207367
0.469647712294188
0.471297173373888
0.470944980913201
0.469267257942558
0.470303579036476
0.466486614632821
0.466785457470539
0.465605486288052
0.459864488889186
0.462567167693901
0.459420398704399
0.456022281056142
0.454258431321584
0.452184308751089
0.446900855121567
0.44656580790751
0.444971808111135
0.437357359616035
0.434903608213842
0.429540294655367
0.427841978687888
0.425608459820662
0.423540153480852
0.416306117658866
0.41566342276977
0.411085795164304
0.407529265172024
0.40834355904587
0.409924745002886
0.406465634254596
0.403109934932446
0.403877768850403
0.403943351778523
0.40052490819864
0.398974785421611
0.395192697811348
0.396056899509591
0.391587922709126
0.390868899869941
0.38876113325788
0.381136775307612
0.376077735482813
0.371412239708298
0.369714223775485
0.363724344259571
0.358343265295983
0.358706626858892
0.357839751672326
0.354994639119789
0.354552717756036
0.357175016215794
0.363973533083532
0.36969396078459
0.374086302929063
0.381265218372831
0.393964810807771
0.40496221194601
0.413878281942426
0.428369837540504
0.442081539493007
0.458181242175238
0.475955446878855
0.491193341264678
0.508409360879156
0.527837807740448
0.543261741269141
0.55848864179594
0.573685045718418
0.589151861181136
0.606055456334419
0.61884829778902
0.637023831060943
0.649205488205128
0.662030903316584
0.678617440904607
0.691282852419767
0.704944025268046
0.714757321721263
0.71831556982806
0.727996228859192
0.740944070465372
0.749313272850943
0.751924895733456
0.762753452900716
0.764809095823351
0.768724908821102
0.779071301976737
0.777053137393086
0.771236029295364
0.772007103123992
0.775518257978496
0.779705737222485
0.786819144621244
0.784283123354217
0.783674731688916
0.786818861070217
0.7886890165717
0.794561638673497
0.79567887959796
0.795039227832317
0.797215304370188
0.800301859437353
0.807082885450771
0.811903193791201
0.820085485293811
0.830828401470191
0.832352936711197
0.841240179942776
0.846456120157297
0.856038849178541
0.869441548826511
0.87251354243398
0.883168992472846
0.900330470596329
0.908526033334307
0.920355723839882
0.935394734749659
0.951189350792256
0.965842109708003
0.972534961355947
0.98531940119458
0.994183328894897
0.993947556599858
0.991498750035813
0.990495411535159
0.983485513832842
0.995591513743846
1.00392922524996
0.988747685658382
0.984837852976659
0.977507112543585
0.97055211014053
0.983673004308323
0.982691107464565
0.990164926985877
0.985243423504829
0.991414877331947
1.00373396747497
1.01136369322026
1.02566633008455
1.04319879700033
1.04966816787187
1.07369779392192
1.09287056336159
1.10362818450851
1.11184650646111
1.12756874452037
1.13137971368162
1.17585572502591
1.18122347895942
1.17911738321501
1.21248482967481
1.22456121636307
1.23599670696379
1.26927207908088
1.27618264817949
1.28303072611361
1.3068456212167
1.3606009426185
1.36614347865167
1.38060655623467
1.38984987625261
1.43048169442906
1.48881278854387
1.50240548416178
1.48264365730135
1.50047916570351
1.50997646345534
1.55643555300281
1.5849317404465
1.56707646667552
1.62517953614166
1.5929548027556
1.61438375973008
1.67122858344279
1.61487358789035
1.62895641980611
1.6743339515873
1.66451715866176
1.62449608286968
1.62862481602536
1.58419439575436
1.63799713698347
1.62337582255741
1.59745054469116
1.59468331153413
1.60369531738011
1.56694203178043
1.63406015573558
1.63231418111612
1.63114611982403
1.64091255290889
1.60398428239735
1.65539838808053
1.68758794512531
1.68488616352027
1.79391487859357
1.67239662282095
1.74398956264021
1.78023817140313
1.74946126025285
1.81718933748132
1.82272006434833
1.80867536657412
1.84008448932402
1.96041862588326
1.91651759533559
1.84406951585847
1.82217759721289
1.77752827467227
1.80298154683009
1.88397081102186
2.06036826191057
1.90486451531517
1.80608544099198
1.91056143437577
1.91581820371874
1.96580263925036
1.93821097454979
1.93491289578161
2.02579997706505
1.86889742126289
1.84767647260376
1.92557593564316
1.88519086293825
1.85751776328504
1.9028904100322
1.89269714847523
1.90179220447138
1.86222115560167
1.8766103420506
1.83744330411574
1.82019959853894
1.75348752437219
1.66570362744974
1.71235011833419
1.79317809277283
1.63826930705413
1.61339727702692
1.53946383110395
1.4953382571812
1.45563120938951
1.40606144144812
1.40194494118723
1.34628130274371
1.32819509069899
1.33070790555983
1.29157872118269
1.27368798275157
1.26439501753106
1.25045900269989
1.244363047709
1.25575986074522
1.24120261392141
1.2222702738917
1.20476917936151
1.22068389112415
1.19253828118546
1.16028471358517
1.16258391884578
1.15472164043456
1.11794903795932
1.10415847334712
1.08133368339686
1.06473668633546
1.04471490356483
1.01652531935534
0.990542255415244
0.97211735471363
0.932348706845736
0.90580532791775
0.881279078243053
0.856562641751861
0.822526364594256
0.774147292289668
0.745322515585559
0.724928430970843
0.694875401247935
0.667287935390715
0.632848359381276
0.616144299314252
0.595816801439646
0.579669808989291
0.556998066933091
0.538738067314427
0.526926101481683
0.509828667683852
0.503289313981533
0.489399448660878
0.480025665878843
0.485122646682102
0.474750099992384
0.470946349235181
0.461443506410817
0.460163002934346
0.459103705715631
0.4567756000087
0.455773358823494
0.459038720735866
0.458530279087295
0.455769525062004
0.463462535361049
0.464040392803368
0.462022051520837
0.466728761341253
0.466426535373801
0.461825904486169
0.46464589052711
0.462952129306508
0.456843366526979
0.454462877929406
0.448708069033861
0.448037132820071
0.441362237127205
0.443179858438485
0.434800539552258
0.432565183682948
0.4290731334147
0.423310463815383
0.427548083632098
0.430109525060206
0.425821897651432
0.424838313904716
0.430147478418777
0.434258667684011
0.434923003008173
0.441957134204752
0.443094764258335
0.443669743691801
0.449397812643134
0.451147878738084
0.445112542284964
0.450545520396974
0.455567753840448
0.459008532660883
0.461019040591434
0.459923529981592
0.459272484822065
0.464889525612187
0.46917805206367
0.468885037771336
0.460029715519118
0.461007652885183
0.467555974926566
0.47105638390216
0.472017514787519
0.474143820772853
0.471130957728775
0.474618699805635
0.479736676538942
0.48942530655389
0.497827753012442
0.499292647460671
0.515180923449722
0.536629842126917
0.540212167339414
0.5475096667826
0.565375909384779
0.580223474621911
0.588771177618233
0.605595495618109
0.611782596143833
0.618625626180149
0.611465916697314
0.6102849214183
0.615928672285857
0.601845327419342
0.585091768387963
0.597891067868577
0.590996896566235
0.567713259652452
0.561509231951133
0.560989899284722
0.55877692923288
0.550441072793073
0.553581738887986
0.550727700017425
0.555099521562073
0.564932619110247
0.569778192954293
0.55870674099326
0.560926252445839
0.553254043874912
0.547214163991486
0.567290117760168
0.557502689106646
0.548953604121798
0.532331266748356
0.527489775719288
0.523517396651389
0.522001189661665
0.507383907166367
0.516742508771938
0.511090862177992
0.509939492020037
0.505835255158441
0.504491030594373
0.505371522338258
0.500062552494502
0.502350070958216
0.512744774089142
0.501944199728005
0.486485736168887
0.4836359498727
0.485696200944035
0.480905570729914
0.484992072401904
0.484674325395587
0.467119255552082
0.468268751992697
0.478990633352791
0.468992554605414
0.476111699672195
0.473897615237028
0.473352958827128
0.460580354364962
0.468692867201577
0.464428251799132
0.463836529636858
0.45388721104902
0.4525415600803
0.451922695307363
0.452722103329723
0.453256965174801
0.451081703988145
0.453927435251349
0.440655622545964
0.441274885687238
0.451705876757534
0.447860914199564
0.439031175150467
0.450756370685673
0.448030124013021
0.443969468324682
0.463252495832708
0.456640299913572
0.437377526429897
0.463198726960605
0.458502511464172
0.455777355159868
0.466704308431378
0.453994278091356
0.456986704797625
0.457521628707624
0.463263375803372
0.46833123112382
0.467633444647943
0.469882964677883
0.474626346636393
0.479127866350302
0.482601796854488
0.478765653174065
0.473563737055894
0.492191261340778
0.498895266129059
0.489920185783783
0.484514950660566
0.513140824515082
0.52301778870156
0.522326427169398
0.543981646973688
0.552843473434729
0.532639921089892
0.547898350990606
0.574740280194462
0.56821342488005
0.574438755125075
0.59882442076189
0.611819954871776
0.611334985025463
0.647671948736457
0.669436235348402
0.666764990793063
0.703323210587656
0.702874109878869
0.722771920254008
0.734954534158076
0.72297671869587
0.729730233997731
0.743917117405863
0.758345642694571
0.758029056467158
0.768091022825917
0.767394285509835
0.72053093926905
0.718096180522554
0.707650947683874
0.745185198117382
0.781262892410243
0.71398177968036
0.728916510105924
0.745436608884689
0.761869796123914
0.737814476747358
0.746872662049618
0.709961178144443
0.696300655855735
0.725408129907182
0.734508021390606
0.694535680444172
0.717004706178901
0.693682078140572
0.687908641365029
0.733711900525068
0.715465194885775
0.713426992551571
0.694840344399715
0.66608193675341
0.676784059481598
0.652879350766156
0.655237558406267
0.684952688024696
0.669435224164692
0.673627224117141
0.669065100346652
0.672256972155754
0.665069227380334
0.693783221133896
0.671173379567834
0.649156917831499
0.638215791472356
0.676562451097477
0.698577233111543
0.705488225413224
0.698329612316621
0.695714228639522
0.682913965948101
0.6822941697858
0.690730531682416
0.718867434788474
0.65910928415936
0.711613807418581
0.743347758270363
0.743434327545072
0.718945870328352
0.702899324641262
0.722536533716247
0.731297128659583
0.708315650968074
0.725624301624774
0.734260881941651
0.673878835863536
0.730336859191788
0.712042920758524
0.743283605809829
0.747631246173654
0.766908145077882
0.747083223189248
0.735943766881925
0.815588262393098
0.777963564620353
0.873876882068834
0.783514629181681
0.855007463507052
0.867455503314212
0.739573959412237
0.804843928306891
0.863911088795003
0.830111014555325
0.831146699597583
0.874020282249433
0.91212965471676
0.915325657803488
0.929042897932951
0.951300196129166
0.909048287297322
0.849306878373759
0.948214688285419
1.03016519439
0.993076455888724
0.935930971743638
1.25129954677174
0.98423676940396
0.796263152741531
0.893184128689236
1.27359632785187
0.84915350634405
0.790954893827365
0.851450826763394
0.918370173352287
0.738345886527433
0.891125844018759
0.905608102356354
0.775059735318214
0.79359540309456
0.830415426347366
0.795312896477137
1.01454493837762
0.988627861843286
0.847911929451402
0.876622877338856
0.789292983742927
0.827838619256043
1.04387440203479
0.931321515872351
1.08769518805405
0.70607145513183
1.12258756358196
1.08443914451726
0.740638515621844
1.06969642665676
0.893126595502641
0.846233775409185
0.89563757910935
0.401007663650379
1.00714855725719
0.798224651431352
1.44729292539563
0.883699961854197
0.644606433732516
0.918115741786432
0.992338767841995
1.31306423421923
1.37888384159127
0.98443444128208
1.05125722777694
0.681095947551777
0.858880699682487
0.933767580078501
0.876696445903652
1.17004835173205
5
0.840905135867864
1.25045750103442
