3596
4000.36533379555
650.420452594757
1
2
2
0.0467931098243105
0.047383755121581
0.0567969769489658
0.0444080698865108
0.056484670112564
0.041503139457375
0.0613138394139371
0.0406050879966048
0.0520262118384616
0.0416919470370941
0.0522776011632871
0.036381581934999
0.0497026512219706
0.0368789708302309
0.0572700430885978
0.0390451003451541
0.0477693349947789
0.0366172103490844
0.0510684247434577
0.0419491430971599
0.0557678502051649
0.0400750240799851
0.0617276530571344
0.0371134892486046
0.0495462033820903
0.0470313213333065
0.0543018715932028
0.0361902932444812
0.0494213423763677
0.0337814157336633
0.0545896183319547
0.0414533740449601
0.0529689514573452
0.0446642164333238
0.0496037029050822
0.0389560365373732
0.0510593020199014
0.0370915886091996
0.0534297809824001
0.0365060731507142
0.0573317119270276
0.0425978140789303
0.0536774465673486
0.039130652170604
0.0572774503853219
0.0384459555608424
0.0578452784080207
0.0440452768564499
0.0548156749977742
0.0463354674720403
0.0546879092240613
0.026564903181827
0.0585626618810499
0.0454146503480997
0.0463961916289035
0.0457354985306671
0.0632173542374301
0.044261130949584
0.0501631889166589
0.0362178508938627
0.0557525197533746
0.0502842821278345
0.0610878680454293
0.037238747749312
0.0509509817463556
0.0388023457467055
0.0598328450222853
0.0369800626810841
0.0556834713629973
0.0288842579362623
0.0475251045491257
0.0461042648243596
0.0635216709322986
0.0501111259115811
0.0608070095915043
0.0391400881254957
0.0518777504390314
0.0337948516357604
0.0402377072601984
0.0382335415104185
0.0654257610604688
0.0467733245473117
0.0541855334345859
0.0306194334072822
0.0525170936922784
0.0519305725750767
0.0472990995655977
0.0326277104458476
0.0652082898569327
0.0465948391897903
0.0500773941804384
0.0425166991584779
0.0495717772981158
0.0404565447867157
0.0456593128991877
0.0313277862522442
0.0515620027939235
0.041019877984552
0.0453610937402405
0.0464136131333168
0.0364102451376491
0.0405611606928889
0.0654725976549537
0.0354208312282068
0.0855173546822275
0.0444092019520422
0.0398290235022659
0.0629910645487824
0.0726065925790883
0.0420799725113799
0.0484721614919109
0.0364453806905504
0.0540063678922122
0.0368812298277674
0.0359795690651373
0.0444566741572731
0.0779586528915821
0.0412820521131416
0.0508878903845517
0.0380996756927744
0.0237626160256096
0.0419157082551836
0.0774964401576485
0.0397787721554147
0.0537698708411547
0.0389584626323552
0.0345197662006662
0.0471567534773726
0.0693979952709735
0.0424066461785463
0.0372516854068049
0.0395412978550286
0.0309208479155139
0.0292347684647393
0.0644255258924102
0.0506313189569871
0.0366752141849472
0.0136070464313752
0.0566619129706444
0.0753025901810083
0.069031972164746
0.0419245226470103
0.0291314394791268
0.0260314647056321
0.0825499359164801
0.0476459029305215
0.0367591571100401
0.0518275725055111
0.0544166344368919
0.0421679787776662
0.041242504786985
0.0273823459782419
0.0623835657747189
0.0433399096300674
0.00307483744711047
0.0482950122262767
0.0593454743250451
0.062786636540805
0.083546391568601
0.0559929572711216
0.0458826152417284
0.0424045883452771
0.0361877326999248
0.0312848416670859
0.0415989100611755
0.0234416134115365
0.046365526947617
0.0533121009178416
0.0473798710394273
0.0309564388649245
0.0705030675045681
0.0294021192516533
0.0338368249739466
0.0710105739209172
0.0581534564255491
0.0257841466279107
0.0650614021972229
0.0526863874278589
0.028889386761344
0.0377453424031127
0.066354456918885
0.0433262368009917
0.0415503645682545
0.0345408967450768
0.0359687194382723
0.053246819464487
0.0471703550424281
0.0360191418092628
0.0454634825396073
0.0207333052377681
0.0320747568648868
0.0822230383171745
0.0739062358871878
0.0463618708837739
0.0405614813690158
0.00719496849627681
0.0710099468921936
0.0760425838614515
0.0520548638093655
0.0370691819627872
0.0409686412492961
0.0319871492901266
0.0366377428280149
0.0353892586556953
0.034803021491684
0.0135249564618649
0.0686044626677381
0.0662958408255606
0.0515933047190171
0.0343514049544769
0.0258935495895682
0.0159674321740543
0.0863944772463145
0.0647177521215257
0.0448927442387859
0.0363166155571006
0.0404816710090558
0.0375831551265062
0.0619526694076496
0.0426031218928727
0.0474600011919878
0.0314687466213842
0.0403855367990923
0.0395201848365431
0.0466594556283307
0.0342803151937162
0.0472895828880193
0.0408557131966164
0.0438523170843458
0.0350443035311881
0.0515129586416939
0.0399237454609628
0.0489626777990348
0.0326445867965619
0.0308151777560501
0.0374914963265259
0.0627400092241622
0.0478801247417077
0.0501223926798368
0.0374710460923658
0.0414434320636643
0.0403464489388216
0.0501386608582295
0.0391026725141259
0.0285750732199983
0.0312257908669839
0.0623579384300414
0.0531319731858302
0.0431883721389476
0.0208656658143411
0.0553098016950143
0.039873503645264
0.0555153659004979
0.0310948179073697
0.050801095462956
0.0252699751959286
0.0382187094783932
0.0592653750196963
0.0583103436291441
0.0269596832339138
0.0569750815250691
0.0404580574317091
0.0534525283075676
0.0193729124276031
0.0169568039993612
0.0786270970645892
0.0558841537033119
0.0201392939466585
0.104398322960831
0.0545476026016506
0.0638842606681668
0.0228228553393454
0.0120458731723271
0.0871264620266603
0.112576189182322
0.0416719799726261
0.0432482467327683
0.0480015401233077
0.0476139121119014
0.0422093214342054
0.0346559981476925
0.053583559945224
0.0354390630224571
0.0700468820228003
0.0781305091145959
0.0243322924467152
0.0585444700013106
0.0633622365002886
0.0651379340072814
0.0352552568423878
0.0401362578252968
0.0283317447255243
0.0556961849539078
0.0435913324326922
0.072321270365398
0.0382666308217702
0.0536470640440209
0.0652199324246374
0.0664119008368608
0.0323903466057301
0.0549271893009434
0.0471240632270038
0.0585426322337371
0.0391705369038804
0.0508003770911647
0.0503771045677625
0.0355671268851979
0.0175345365883513
0.0906555445957921
0.048956145796637
0.0473124665353954
0.0605125033794541
0.0657774448731236
0.0310359922656715
0.0462324031055619
0.0389471438784348
0.0568823561350209
0.0286112251942561
0.0357575714296934
0.0501072332800371
0.0604251915065306
0.046331454719889
0.0512950305237726
0.0406063544864251
0.0530705073366993
0.0483501196955937
0.0517648166559732
0.0436939425980725
0.0529715400835882
0.0229636884135113
0.0645762706227664
0.066097867787009
0.0318782929422396
0.0544798307490305
0.0811599724799241
0.0561496247493348
0.0575880876855563
0.0510238255745474
0.0549354583553974
0.0497551009901987
0.0590822791241504
0.0434132628011388
0.0529650234386155
0.0597517484693637
0.0639577743200652
0.0400577438589378
0.0429944280681021
0.074462745468499
0.101965644483011
0.0759590405449058
0.0598687562524082
0.0279522532726325
0.0856564008738633
0.0670120068191518
0.0934913846741623
0.0766962234980316
0.0791945117717588
0.0593046184913705
0.0716538552797792
0.0597790664138656
0.0720356671529778
0.0677884752736466
0.069181249696311
0.0651173791583769
0.0758075264794263
0.0714167279106019
0.0642739607311318
0.0595053289636619
0.101966441184049
0.0802291782729014
0.088467450133693
0.0739200887700794
0.0660967442321145
0.0891425404385738
0.089188525946634
0.109328883823379
0.0925391656164946
0.102083310449804
0.125520748240434
0.0955771984011776
0.0964948242232039
0.0831804033741873
0.0992455195245998
0.0912000100697964
0.0990978795286367
0.0876541210652903
0.0947397926973037
0.0953914512623353
0.108205287456815
0.0944329081846642
0.0976497048137653
0.103293780354279
0.12855637206059
0.0990756125567238
0.116775358798395
0.0870893288469858
0.118308593959734
0.138717936647222
0.171571782154527
0.118381342647133
0.137658620565085
0.108801272359838
0.134630415437129
0.116806448239963
0.127411118941218
0.115544950987855
0.129848216780581
0.136752925670351
0.150017651106858
0.146497294497117
0.153690670147223
0.125827311421539
0.16782024523332
0.132159822285286
0.160513898868301
0.155935294609142
0.162109235239297
0.130345714846767
0.190676725227377
0.149164307706066
0.179782218765697
0.16375542660057
0.177193260295751
0.150880160478888
0.168708138892939
0.160811993186765
0.176173801197102
0.169690316371623
0.175761231258441
0.168727419385305
0.185604587490698
0.165909804013124
0.192263052387723
0.179736756390945
0.186646949930045
0.185431424361936
0.196572502187495
0.181642504515773
0.20326896024325
0.169344150484746
0.232003107459572
0.187574924198053
0.247203734016103
0.208229024696404
0.225215477001462
0.18707957850792
0.212040413798096
0.200497021248479
0.227842339968262
0.207685563020354
0.233909171682329
0.224753649483291
0.230855062393792
0.224474161985362
0.240907724803437
0.221194115390787
0.252629520149497
0.233863037834628
0.241403067636457
0.234212469437312
0.260427379885825
0.221358912907037
0.283244948184737
0.244196378291624
0.28533127198955
0.245888005841805
0.283170512189202
0.257155894080015
0.291834157236889
0.255267134533056
0.275215526717222
0.284165699006902
0.293711583724559
0.276411337357649
0.294216150099558
0.281412034645759
0.298383734087794
0.283027287304942
0.308776223284201
0.289228467990665
0.315593859785878
0.296363585870076
0.331000146574431
0.303307627553299
0.317174269888807
0.303418279327971
0.332881350264785
0.317101443884184
0.341995869928544
0.316351186330734
0.339483308135112
0.321253992808646
0.356007784000075
0.333654783808337
0.35577269785387
0.333167726924205
0.347828804899163
0.333898582043812
0.377815698367962
0.351049570579896
0.393463558301687
0.347049636501795
0.382493405797732
0.378941883424422
0.399222601066796
0.349063943342422
0.389541912814604
0.3888000862076
0.407199919623005
0.36089735006949
0.402883252373397
0.403695345355863
0.415628594565429
0.401504253154199
0.414424676079375
0.399145546828912
0.412179389731543
0.397445342237198
0.437985061026809
0.399758793039193
0.444482328141423
0.41908567556524
0.466301427286737
0.448240443628821
0.47307824186241
0.449890049046817
0.468265573753686
0.440568901738979
0.454393482391757
0.449531661227654
0.491839107058486
0.443293610029249
0.493819899342744
0.468328800865589
0.487370067570612
0.468496727795453
0.511891148990794
0.464094385072268
0.521410050403582
0.50417192777881
0.51518005819449
0.484930072924536
0.516340054613013
0.493877237091977
0.519383936669482
0.519944171082004
0.531368852955954
0.498586626122943
0.554263487059107
0.487590594867311
0.556941466276868
0.514654731737778
0.563509557291052
0.550165538511996
0.55984894398688
0.539624998336143
0.574419788919024
0.517635051144802
0.592827940684759
0.576364560123019
0.58136465155223
0.563230242193394
0.582011956168832
0.564659379135786
0.600863917475245
0.540068403006692
0.618414469840185
0.554632451864438
0.602930031102784
0.563107441808969
0.607257320692742
0.611468791529661
0.613792922735553
0.588641133792667
0.628624404231156
0.635661724491074
0.647500698353871
0.605400369174035
0.672039707378673
0.624663418941885
0.677972084125087
0.631337398689086
0.637414980489771
0.625968623967005
0.697421145519167
0.63380660060359
0.696331293925131
0.665742025426403
0.699614783596647
0.6564827745863
0.716301783530928
0.657345502083114
0.73794075852571
0.653517628663413
0.69063643285091
0.688278184034083
0.707102467541291
0.654923144536699
0.714714280635065
0.658210489979317
0.726362446367751
0.679448067190154
0.741890793776654
0.687110892097493
0.744980751263923
0.699065114120448
0.765047701609385
0.692879394055527
0.785973497150493
0.726430803333006
0.725709152820168
0.693651579122689
0.748312762025695
0.723742613327778
0.765816545004775
0.738488293451616
0.78225692092872
0.738218870527846
0.80398388192896
0.727228937932971
0.801990429336245
0.743003524877188
0.812053110106205
0.779152013723257
0.814415419129142
0.759176047585972
0.791187934252125
0.746682286284137
0.7642152554171
0.768883828447405
0.862335094491913
0.799382854177991
0.813121331347056
0.801624862285907
0.842309341851042
0.782680162214446
0.811355937963116
0.761509558060011
0.881640647704574
0.810371839007392
0.853331209813954
0.794000656034897
0.862247297593401
0.80986688773139
0.867741196308891
0.843929817217988
0.89117306074097
0.831089120220409
0.864382252551277
0.808400592034602
0.87601800170172
0.793460947538619
0.867799697196337
0.858206727944966
0.880645199041013
0.824652179932404
0.867434583874975
0.848006471933692
0.905133583310969
0.868676806487017
0.911684778494236
0.874281834074825
0.881044103979547
0.850465381705116
0.892460576439444
0.896348505394372
0.911686259288389
0.847952361140395
0.928353306940433
0.869373060045259
0.931711711500318
0.868857663230736
0.950244852216543
0.849511587808235
0.919497593630364
0.84765855141392
0.925486782987005
0.874729788856005
0.953773615042932
0.889020639718213
0.95803342651673
0.914707975275075
0.943763486613291
0.896086883312559
0.939801176322683
0.857204397551983
0.902057780365809
0.896414859186943
0.94377035742909
0.893692460132415
0.960804382560545
0.916827252463512
0.953638571205424
0.916993633591242
0.953485239586114
0.916088791679992
0.997885494480925
0.901685388413617
1.01341429472229
0.908466410509461
0.991978922510523
0.928850405490093
0.963464480474953
0.953985467069314
0.979195559502764
0.917187802618333
1.00806721832266
0.909687935097548
0.992648555385374
0.902950356992901
0.970106978722787
0.909744183813397
0.968646959639389
0.96673537838504
0.986131478177369
0.945255894246619
0.958764141045936
0.936216614013367
0.992761334544464
0.926331409413079
0.978320910282366
0.93368709333357
0.958509551220148
0.902428017946596
1.00888296144224
0.94794531317756
1.01377090695868
0.984633979258071
1.02352333672364
0.941194871431597
1.02371000820166
0.944955768561539
0.947413697066768
0.967011306779942
0.965529042271557
0.955516159312129
1.00019958573555
0.965396714790675
0.979912926958526
0.918369601913484
1.00773214989896
0.971007393476192
0.997878000776687
0.924003841962337
0.991904925776981
0.948004776792947
0.979079479740609
0.955065194236665
1.00193144465879
0.948487426396447
1.00448188060517
0.952088613780599
0.980837617674422
0.896029632456837
1.00073695490372
0.966433246606851
0.980812933235382
0.904224764165869
0.975444503701686
0.920302127933047
1.01903579184047
0.967962176293077
0.993896565776547
0.982270188114132
0.976955668766682
0.955464733435293
1.00426259462978
0.903266866085358
0.957116328912576
0.937365251720546
0.973966267874414
0.942485478032474
0.994845565812473
0.93604248579771
0.983350423213938
0.949751939725834
1.01479447822886
0.949850863923405
1.0104666898769
0.941027163807372
0.962036422901368
0.916484012084975
0.967644181560957
0.954642803303982
0.979957346561472
0.923251896124308
1.00511868618657
0.93663648912132
0.96477389736478
0.932563181398265
1.01832048559708
0.933403563789948
0.97726584044355
0.921220680080506
0.97232723778072
0.947907223302523
0.956570722119233
0.911233078427869
0.967991495041128
0.906202435710577
0.948777208113169
0.902185383413683
0.97049995108815
0.917232758547901
0.944063037906375
0.930700906672862
1.00845264793766
0.910730696978089
0.944628491856054
0.914437857700946
0.921171780003135
0.901939482295296
0.946852994016991
0.876133505150328
0.95226934173864
0.903131255427391
0.908638585931072
0.889804353119696
0.962670003175597
0.897933858111865
0.926518498046159
0.886444815072949
0.911969693405409
0.896482530817321
0.927902954266866
0.865988252408877
0.923105141743541
0.911924052903385
0.914232073419239
0.879264749896205
0.892591671553647
0.863826823438487
0.916880912346849
0.865590367923429
0.896627882921991
0.890170508086866
0.865703025870306
0.860798690498914
0.882440641019463
0.867604791109156
0.870987275343905
0.840224435569477
0.859390666267382
0.839042370048701
0.88837677182715
0.843024807193292
0.862451202214509
0.856429047613831
0.843591969196402
0.818583695160781
0.85825789269624
0.830387221260507
0.851662414328395
0.827714159244214
0.837714623990237
0.823352550025454
0.853603607617373
0.793888982719909
0.810925400385935
0.824763141417299
0.847133973111742
0.788546066949753
0.830233129721494
0.804530501772233
0.820903445517058
0.764498470978026
0.806168567562238
0.775054046017603
0.807620895439315
0.788723773746464
0.778760341140205
0.784992989201114
0.796841117663003
0.76937369183251
0.779402260370297
0.759630452749374
0.78331978532991
0.771999016672476
0.776338653044145
0.76318963243966
0.768646637662733
0.734937871666581
0.763886569631292
0.73982988272539
0.761079429513658
0.755212959910043
0.734445203608583
0.710102770914512
0.742871595368344
0.712171003185974
0.726890930619837
0.699398751710853
0.729164072022404
0.695906713443981
0.723577319218634
0.693507584873447
0.709378546188131
0.704752949987058
0.728950149619522
0.695186833213551
0.696795720743965
0.68056836801754
0.717808641949613
0.669387560847719
0.695135275474185
0.669053132765393
0.680499360494517
0.671093840632733
0.678180658876383
0.651846406474605
0.693488932154238
0.664192204459399
0.663958244792025
0.660209074868714
0.661189277815136
0.641567820526488
0.662282284586123
0.646542504862219
0.644586162120232
0.630293537816033
0.647698242574246
0.629458058170941
0.620105910579635
0.627063163422905
0.633377276091427
0.619806219632434
0.626820035172194
0.601367243901271
0.615707152749776
0.595909793533812
0.610066510681957
0.599836328840289
0.605493391695805
0.592290437381641
0.591906565341285
0.589762106987618
0.589290440996073
0.57553234677274
0.587117049296107
0.575057784482461
0.590086689941746
0.568739477492613
0.582542284021488
0.563340155946131
0.566703199311683
0.558480897130976
0.554672927346754
0.545968005668241
0.568151935052669
0.531984527490622
0.557129179544322
0.552652886873265
0.557582195776996
0.532279391269175
0.552504256489505
0.5372270630144
0.525315965744578
0.532725132430829
0.54653301794183
0.531085065877019
0.531939036897873
0.513726734822696
0.522894428190415
0.519195681376248
0.528229785121757
0.505628776950677
0.525139645956128
0.501757067480365
0.507178649285708
0.498703855786895
0.504373055565998
0.485885134058269
0.503258709343649
0.493893093290668
0.508143280285856
0.476621023805465
0.495076654519147
0.466459025883693
0.484172888175223
0.476224934331514
0.477083936181762
0.466738228736735
0.478107062330869
0.468937267468498
0.474472943155168
0.468571884494865
0.469445621340514
0.463070112782077
0.465139613809586
0.463563598792579
0.46163540519742
0.450368427866197
0.455226818900435
0.443665599621412
0.45607887334087
0.440755689147238
0.454568479057057
0.430704213943068
0.444900280151411
0.435752856985309
0.442630103703274
0.43075870158006
0.434572825976604
0.43100402254784
0.445197572365258
0.419758597855702
0.423207225293057
0.420348330634872
0.425110612770031
0.413568885648309
0.420407701881461
0.408493250285655
0.41817983210185
0.409322356191857
0.413228402128162
0.398431134708034
0.407663362726659
0.402207155130825
0.408593790133902
0.393716545324125
0.398740150240503
0.391089495812652
0.394038023089709
0.393698307691737
0.392649715381868
0.382170078117201
0.387904485118197
0.375569128764924
0.38852775372472
0.382219651626003
0.380075421374139
0.373041309477732
0.374687125977274
0.367037242933499
0.371010923967062
0.371354558692285
0.36723036299367
0.359789772633757
0.363758962005472
0.352528109566356
0.36489080264974
0.360777428898904
0.361990804669098
0.348528842032663
0.349120547050488
0.348826379223091
0.355081308664726
0.346400948086616
0.348183680880941
0.33876638271901
0.347887773026817
0.343432417878777
0.342780935905984
0.328830806718535
0.337446398017264
0.330151927936132
0.33276823144968
0.329727752980107
0.329411953326723
0.326278801219126
0.330086403471648
0.316617508706384
0.329836077410617
0.3236687189079
0.325972950087048
0.317230471470658
0.321112372289137
0.324124429814252
0.325116567797211
0.316916376287655
0.312884715239433
0.310833976834557
0.320160366644102
0.306698494541328
0.31375605603644
0.304685602617377
0.314605007334166
0.312581055443471
0.309179559107132
0.307167647148191
0.311462830459633
0.307072711854796
0.30931976032278
0.308169165384038
0.308265742967922
0.304377276510897
0.31036869154773
0.310714193726399
0.314133438630939
0.30822075877373
0.309439386797015
0.30608920587482
0.317696241485391
0.312823012683141
0.31917084813769
0.310707142417079
0.311975012770806
0.317932299517769
0.324137887310876
0.315176829559618
0.315581830747965
0.320783887236336
0.330583543739924
0.322332956394588
0.332176205857083
0.330694925619026
0.341556394394033
0.335530892530228
0.335809217318194
0.327329789788723
0.338501097957505
0.338625636268994
0.34030925628641
0.338048600679977
0.338894844071146
0.341654372886503
0.347978966899477
0.337734234640019
0.349792558671368
0.346669814789296
0.351969126507948
0.343809855974327
0.355850689903707
0.359209355530713
0.371204807768247
0.361334635285745
0.365596879204179
0.366713475203104
0.36815399020682
0.368106687913812
0.375833901591397
0.373037914986606
0.378009409020457
0.372607202236828
0.383254251286308
0.384698551767532
0.392844498089146
0.39262200714147
0.400249965125202
0.385307067380564
0.395211424850411
0.400414698772106
0.408198481941088
0.410572138993343
0.40721540485426
0.399605295158559
0.407993221115525
0.397925283657796
0.414815809926489
0.41461919317703
0.410290824972471
0.408658578879526
0.41420911201118
0.409884694938582
0.413424734466463
0.414271362294063
0.411525663023491
0.406902920707987
0.418354767565169
0.411596634662323
0.408980356829202
0.406347424596136
0.410814511832837
0.40317793862205
0.414355450298604
0.411546412855889
0.419716031315712
0.408835838102195
0.412186560675567
0.4071243726601
0.413056823499425
0.407605006237713
0.41672456495946
0.414264070918557
0.409222583982056
0.400197823039677
0.419502620356525
0.408556595350944
0.408174651691298
0.408651059403827
0.410221637202424
0.403430170713132
0.417525492708449
0.405988246416895
0.417049082928016
0.417479617108244
0.414024987562408
0.406947088201663
0.416761325769441
0.413211962589641
0.413435638768194
0.413535683322014
0.412834536608872
0.40851422984402
0.412517706808217
0.413893292479455
0.414918286756997
0.411455974039156
0.418709448908364
0.411283205069485
0.415375033636399
0.40778459494412
0.405948478350396
0.405764502365968
0.412271116104102
0.40564340467316
0.409826729262974
0.406531698279654
0.402529900537015
0.39398141274571
0.396228983773215
0.394628010741066
0.398989700760073
0.389443022561443
0.392555604847456
0.385549616101588
0.397671898787764
0.388402111563109
0.384801603272652
0.382552311238943
0.378911418183159
0.374971288651613
0.371413403318917
0.370653653642126
0.377762997825768
0.362623144592834
0.363498660265022
0.36011869636194
0.357338987995112
0.346711200971992
0.349362954565829
0.349300097095942
0.345440028746212
0.341285655470894
0.347282298695603
0.338539584082487
0.338729046135711
0.334100266573471
0.332140898348282
0.329168427933263
0.330189413526114
0.320013543676508
0.321864847513604
0.320288339972225
0.320099914899451
0.312878682626992
0.311644104187596
0.315044679343835
0.315813954176849
0.303045651448754
0.307001959350047
0.307940307022721
0.305142476990731
0.305071452262718
0.306622648551947
0.296862737396798
0.296892399015722
0.298750791353904
0.296383305522008
0.287293658627471
0.294598037260238
0.289634469949125
0.289597191622159
0.285374083323618
0.283489032763409
0.282309366718606
0.281973605257645
0.28198252216224
0.280197613747501
0.27107878549407
0.277471208699897
0.273690218720381
0.273883064387398
0.273596494420645
0.271888864576434
0.273679643379353
0.273272498731689
0.260207017859234
0.267873261684825
0.269732762622254
0.266581057611647
0.26221871143724
0.264185717896063
0.258375423102494
0.26280782416227
0.255800732701876
0.261672815905666
0.256853326459375
0.25372683969378
0.248080801066191
0.252625204266312
0.253701690459378
0.252756843832053
0.250759915670011
0.250651970619363
0.248231031972036
0.251864247322512
0.248197116226052
0.24493933521034
0.244376921509162
0.24507293420501
0.24110480298887
0.244086489345232
0.243047019059543
0.24482887136778
0.240900908011747
0.243374781402813
0.239060340223118
0.235305613361025
0.239777739748754
0.239300406914324
0.233361182763751
0.235752429633176
0.232347802797136
0.233627151325626
0.232228383098171
0.230746885551396
0.228366667159637
0.230447427860095
0.227668709368338
0.229434253708266
0.230798481198638
0.233300446658317
0.226976025757958
0.229535651358489
0.226226285281589
0.223931428003197
0.225109396296957
0.223547819290962
0.222974936070395
0.22348801877723
0.220759424698066
0.217962403853613
0.217987056070768
0.219807863294289
0.216357427157479
0.218407784008709
0.215563179643865
0.216951120205951
0.218042563085781
0.226165039703081
0.216527930902171
0.21382299455938
0.213731492018434
0.211481330291281
0.209491553577514
0.214004233706445
0.213671992343228
0.212661402537875
0.211507481143871
0.21128441792029
0.212453582539684
0.21454805848265
0.210963595515804
0.211642654667275
0.209746287191984
0.211281017263671
0.210962655837827
0.210669994662438
0.207148771331262
0.208608785717348
0.205887316488789
0.208442858523094
0.207774093222709
0.204546023668942
0.20508550335946
0.206477903574777
0.203540425665098
0.202312470913883
0.200839361026102
0.207216062059339
0.205812066940939
0.205693898931011
0.206704099208376
0.205173099696945
0.203151819336828
0.205467337423299
0.199987499511252
0.200182483657709
0.19933909035723
0.198206057215707
0.198916527111717
0.200525917132594
0.201953620005185
0.201322724063589
0.199561867854749
0.200541146712275
0.198128124929969
0.197725830912653
0.196484110483741
0.199302369618445
0.196242964154342
0.192618399731381
0.191059200294076
0.195165839655469
0.190130040375938
0.190052101775137
0.190904528550231
0.191635314292846
0.18931437478105
0.191365195999488
0.192582898449719
0.187874448676669
0.186447703662578
0.187019109072003
0.185005673881303
0.184921892173573
0.179958081357744
0.18492019023381
0.185314059334711
0.185177672873779
0.180635298864238
0.184172617237241
0.18414499051051
0.18394036215855
0.178576476457833
0.17650377742548
0.181121711316624
0.178745597967036
0.176180242569585
0.178179354602177
0.177389711829048
0.179552045462817
0.177378502208235
0.179889228342365
0.178105525908082
0.17189092318349
0.168974941995098
0.171241529089649
0.17264113932809
0.171898369243651
0.171012458079073
0.171761374263633
0.173170074451911
0.171994922224407
0.170804878992247
0.168035765191211
0.165084263666252
0.167357095560056
0.163623358550718
0.165611050115624
0.168269186476204
0.16329328210995
0.160541434366256
0.162502538624544
0.163978427332845
0.163802757276624
0.158949925259171
0.158832662774768
0.160553666243077
0.158018811969842
0.158113715225421
0.157569774925895
0.155684639325205
0.157988881574406
0.153972273688738
0.151321174329147
0.152030551193761
0.151446076683998
0.150742642480686
0.148671295963289
0.147871226663245
0.148307969716869
0.147147097987701
0.147496923437845
0.147127022397973
0.14628394468016
0.145436046275647
0.14400401503462
0.144408069740159
0.144461382921695
0.143796406556022
0.141810471764715
0.139703342594993
0.140440680448298
0.14160599272295
0.142347477311296
0.140558482210994
0.140509952859476
0.139024531556613
0.139174037609465
0.13905106733268
0.13986061462008
0.138510072090349
0.136465534015855
0.135305487124987
0.133095337992417
0.129904959091008
0.131694395840633
0.132133523216032
0.133347828127993
0.132005766822371
0.131441724434771
0.129499055955565
0.130152744095805
0.129797324876046
0.128698324256822
0.12950563907503
0.128760530390733
0.129777653434496
0.126792137740209
0.12595740241609
0.128164759141897
0.129214576453472
0.128341612073534
0.125404110453172
0.12395855756113
0.126052315449277
0.121842145367157
0.120192637183101
0.122338171324565
0.122130787651437
0.122961510647927
0.123911485344209
0.121674043046077
0.120099724505558
0.121083144468923
0.118223825368454
0.118391524482661
0.117352105508773
0.115451224676705
0.118100889254642
0.116971430801391
0.117074414630551
0.118694713247683
0.11647958213982
0.116006645044338
0.119643376394927
0.117690429001539
0.116395935799682
0.116246929140006
0.112684683492818
0.112764409094822
0.114063505953393
0.111684411453881
0.116043027731109
0.114989504298267
0.113738234647568
0.115912905068908
0.115312768351871
0.117508005212065
0.115055640116226
0.110191359017624
0.111343367367741
0.113436337633751
0.112779174427545
0.110671640758964
0.112014168556532
0.113391941325573
0.113886062084963
0.109920991909546
0.11119106848394
0.109684745363786
0.109644426547514
0.109715396861971
0.107420378345518
0.107680015346219
0.108789430236501
0.110164359499099
0.111844842838863
0.109300738352061
0.107631213029203
0.108963230294375
0.109584508479362
0.104888827488875
0.105826351522992
0.106579774924906
0.106066485966137
0.10399825629306
0.103167969143796
0.1050053541385
0.10690558649067
0.10592095044862
0.107121661161691
0.104275140675711
0.100180954243952
0.102648824137173
0.105075896859393
0.102377014088761
0.100901433661318
0.10158258165718
0.100623308116931
0.0992400308450352
0.102056063689175
0.101216659811066
0.102447690481693
0.103959543598186
0.0993358896156199
0.0991474036069485
0.102759392888812
0.0994329627212097
0.0988488234572034
0.0983121826172133
0.0977471906088789
0.0976917328724686
0.102542511907737
0.098930647599435
0.0959256046017346
0.0959142950329017
0.0972870700856771
0.0969013424534134
0.0990862012582325
0.096513208802129
0.0956524493238296
0.0936158830794176
0.0972572458980605
0.0975731145733782
0.0933557809418593
0.0936597943460679
0.0948587558137578
0.0930455969368892
0.0958034156423648
0.0954530308287039
0.0947817772982574
0.0934897976122747
0.0919325849332806
0.0926778275652695
0.0929108971640906
0.0943090445792898
0.0945399629602999
0.0927850624571823
0.092330242191708
0.0929801253672414
0.0944642040872348
0.0900041407563947
0.0901387467477809
0.0910815969146603
0.0928455417489778
0.0910000111616815
0.0900157864487313
0.0888331342713338
0.0874860094638127
0.0898074770171376
0.0885052206119912
0.0846672851116834
0.088042499757194
0.0888100506828918
0.0888003643729558
0.085856668190953
0.0847501089621255
0.0846640794032505
0.0853897263975774
0.0852098071244003
0.0865075287356028
0.0826537506057631
0.0856845953724301
0.0858720838229811
0.0814031504133997
0.0792787070552127
0.079944690006712
0.0819592368879258
0.0841602249152796
0.0805577884748187
0.0830351464452253
0.083847148519177
0.0813082421800863
0.0797303707325566
0.0809564448889334
0.0776169766552369
0.0810708014453823
0.077352012928991
0.0761786038665065
0.0752873967628791
0.0767891126536485
0.0782152209085103
0.0783332355236767
0.0775312538932403
0.0773926818140244
0.0740243499701807
0.0748720766158428
0.0773483449379256
0.0767382684209498
0.0741316466460532
0.0768349635122542
0.0739812869154833
0.0734434948946601
0.0743250935159702
0.0735675652154326
0.0741210567916247
0.073383483106435
0.0726191637652465
0.0757851361461949
0.073359315841389
0.073765356811063
0.0700445666755185
0.0709608270137286
0.0709387596654311
0.0736004637604546
0.071731909848467
0.073327572118537
0.0702402482517763
0.0696550135298822
0.0697631954692636
0.0675164486204538
0.0681440952561685
0.0685270689630487
0.0661748504419955
0.0684362915737962
0.0668706010106132
0.0686302977482383
0.0691585872977523
0.0678136860902267
0.0678860379225989
0.0663527712274854
0.0646807391982972
0.0688901195286075
0.064827302716117
0.0652468965621315
0.0659597745653862
0.0662703726269474
0.0635926750704789
0.0635265300610209
0.0650602387769181
0.0667436810775084
0.0647649449947127
0.0617282356859488
0.0621402295977063
0.0652248685574463
0.0622543345833896
0.0627130718352152
0.0632682351898866
0.0646926611160692
0.0627857135914616
0.0619178439561082
0.0606896315134145
0.063111417615416
0.0629233011354563
0.0612094161781297
0.062708394266805
0.0629206944754243
0.0607864455299975
0.0639855287424443
0.0610124954448037
0.0611386107207094
0.0616429275279867
0.0623833438014082
0.0630809548246911
0.0607529715950491
0.0628419494377506
0.0621800951076229
0.0587186281188112
0.0597625053636167
0.0574589297398238
0.0583158487496633
0.0584604593986101
0.0597877196188303
0.0540008175209147
0.0553123934362704
0.0552767525832035
0.0617462506730967
0.0632825899963849
0.0620830951505643
0.051886153059251
0.0486833951874326
0.0542921282676824
0.060345587443726
0.0525829463102721
0.050305325534362
0.0527094007981064
0.0492067415560136
0.0509680595883593
0.0604468015766989
0.0519239270251287
0.0572930162213387
0.0540947043667649
0.0600455814689528
0.0521967376525652
0.0526724731149473
0.0595714361482416
0.0595227028819949
0.0621416628411467
0.0584670138624501
0.0528099140942466
0.0466787677469166
0.0492494653296006
0.0553209859116502
0.0486883235428113
0.0562576756539133
0.0545495999265557
0.052461789801388
0.0518677344397305
0.0523341857940464
0.0467870612806441
0.0524725805443489
0.0471256806307669
0.0570902900036506
0.0515503843210713
0.0623219019893027
0.0530427157941959
0.0616784999711797
0.0445004728375396
0.0549720844536176
0.0408308417740095
0.0680971016819102
0.0562403353118118
0.0663348020431557
0.0360340246847716
0.0676077025345969
0.0465819084057681
0.0709952162646517
0.0374697829200931
0.0663435462364149
0.0476970341102035
0.0697487353560749
0.0406720097911475
0.0650666652663719
0.0521253113921798
0.0608691827578256
0.0486552539703206
0.0551652996301421
0.0528149848080468
0.0564957659516555
0.0573076268431053
0.0523631449242196
0.0553957848490298
0.05465605639171
0.0544492353926758
0.0555489602482512
0.0514381834336236
0.0569284806952987
0.0526993849422319
0.0558959424326282
0.050476067275487
0.0518951621238445
0.0524595194514733
0.0541050627113298
0.0519805365222134
0.0515886891445287
0.0502984518925674
0.0529041942809725
0.0524238202047483
0.0551519835592294
0.0518435503412973
0.0541036472838295
0.0503294424310835
0.0536828877762905
0.0522819389123694
0.05099330356388
0.050233126530085
0.0538404711592818
0.0512420222215937
0.0526606977730228
0.0521825532307296
0.0541167934109691
0.0509549158357553
0.0543618521871442
0.0520846421419177
0.052495110490724
0.0526208120616881
0.0573576030913047
0.0525699034346322
0.0541586367482687
0.0530277946183217
0.0541344668047721
0.0516371424827149
0.0547584084382202
0.052434280549109
0.0553872391005635
0.0529533792428621
0.0539873942271466
0.0502560967953472
0.0528959560876763
0.0540775138877455
0.0560767550474946
0.051751247628678
0.0518305382218667
0.0513215929067343
0.0530611412838476
0.0503139452278579
0.0536086258943686
0.0526866972526676
0.0542679618274901
0.0538519539904031
0.0544819210685526
0.050914067078843
0.0514631072002381
0.0512263851219659
0.0548591173249246
0.0510672280863262
0.0540315851300127
0.0534014336045735
0.0538964185605911
0.0519929710140281
0.0548535742217435
0.0511528396642911
0.0506263424320226
0.0499645768561166
0.0513288806938927
0.0518492803714131
0.054712827852155
0.0508159418544799
0.0521747402967493
0.0500782434077745
0.0525645875715182
0.0517176926907174
0.0531605825376617
0.0504413827728249
0.0549922765530359
0.0525053987884248
0.0530835298282832
0.0511036962870727
0.0542160298760492
0.053504762403258
0.0551830054667518
0.0533268372700813
0.0518274733392689
0.0507617005723392
0.0552805899156923
0.0507624184565961
0.053186295540354
0.0536364811258981
0.0562363580653053
0.0532351964271401
0.0535531894427315
0.0516587414652875
0.0529520401795797
0.0542131443343628
0.0562611581274859
0.0539995398528889
0.0560513649612156
0.0547697991382482
0.0561231703375195
0.0558020419234112
0.0561135196366815
0.0521008309080003
0.0555794535791233
0.0532295739239535
0.0551750855642541
0.0536741475642961
0.0562032278119736
0.0564343478642041
0.0573258133992817
0.0530054109305072
0.0569109609580361
0.0538608543375681
0.0560672709641374
0.0551951756224452
0.055666164865159
0.0547133790788826
0.0583282007901359
0.0550925081438824
0.0544004589117018
0.0558283500134928
0.0554707613192105
0.0548028600096054
0.057822146459062
0.0522423294509631
0.0542529444353933
0.0564409436320183
0.0573634879692904
0.0549552879429438
0.0583589031168725
0.0561879045019081
0.0598579236115347
0.0529757249407307
0.0562918146965088
0.0544932663531464
0.0566452353400296
0.053799343758207
0.0566256936701689
0.0562818378571123
0.0582515203767059
0.0560368136623285
0.0569474560863698
0.0537383853380421
0.0590727114535812
0.0562786869347
0.0585567959073944
0.057121606755693
0.0602469393845733
0.0558974609063953
0.0577424143499124
0.0578312245784744
0.0616395813892092
0.0588960477711908
0.0589458199715174
0.0568355555040734
0.0606532649171473
0.059190296614235
0.0595665913852207
0.0573650691975571
0.058173771034586
0.0572294994182757
0.0596664073933166
0.0572584820288191
0.0592274372872083
0.0548916565540711
0.05910357938803
0.0562239589338135
0.0574777257491253
0.0583162712091728
0.0603559879298695
0.0575125402427105
0.0605410403944268
0.0576946146984946
0.0596813517465565
0.0590536056352437
0.0572152139428532
0.0556341947065723
0.0589147663559633
0.0563852033834848
0.0566159206052728
0.0543715258752782
0.0556839579379168
0.0544134835788873
0.0582725227582176
0.0578991196797836
0.0584030387427068
0.0545612465844815
0.0566943246808675
0.0566257368471521
0.0564027657009399
0.0554140118970931
0.0566568026252044
0.0539870278948402
0.054998892308088
0.0546584425577389
0.0567940480917673
0.0535853825332779
0.0569065677229613
0.0538532638872777
0.0544617266712396
0.0561915926398589
0.0575321451462389
0.0545682361404052
0.0567734524184045
0.0540647733317447
0.0535019152882828
0.0540420354433512
0.0574474152789607
0.0554153990688648
0.055835774180515
0.0525455032405694
0.0557586767210668
0.053690869419448
0.0572522658205075
0.0516209646226857
0.0519542839759841
0.0539011468278095
0.0545260171770839
0.0522747091902738
0.0549217007518252
0.0513907412468678
0.0550464870479148
0.0543369960368696
0.053912253279597
0.0538181436409949
0.0542669136228797
0.0513721386477393
0.0550524577317936
0.0533069800016862
0.0548134034832509
0.0520830185144742
0.055115761540399
0.0509704595118257
0.0526174097441445
0.0526144174256065
0.0531688329192848
0.0511448906639417
0.0520510724103854
0.0519265601476369
0.0557630126428433
0.0519424473378483
0.0516254393277094
0.0506584012053259
0.0546365695848307
0.0532100747092338
0.0542289057961082
0.0506603997509461
0.054595452301611
0.0504952180873494
0.050419992209764
0.0506794292557775
0.0540355303434058
0.0518061788221069
0.0498306200483793
0.0548446803506057
0.0543083008540952
0.0513089677529002
0.0522253321822064
0.0488133497665656
0.051803168154238
0.0501589168512809
0.0529044752183716
0.0500174087170845
0.0537616686127764
0.0509586844561762
0.0536992480240231
0.0522141795241619
0.0524324225585531
0.0508414095068222
0.0551665029052665
0.0500320683400763
0.0528139518537001
0.0494711346398598
0.0521336168028521
0.0487797272925726
0.0518530230498103
0.0508497864787796
0.0533474583442287
0.0502415733639459
0.0503309529673465
0.0516604720140464
0.0545783398566707
0.0513488821720492
0.0508326122589469
0.0485898358223379
0.0518610410163457
0.0472638710990436
0.0503484379988457
0.049540134690063
0.0496317840641565
0.049103309702029
0.0500680999898879
0.0483958199891063
0.0506626039866709
0.0489823449277387
0.0493175031428643
0.0458756202970767
0.0490836101175311
0.045797937482488
0.0484407007009143
0.0478076783228094
0.0494274251230269
0.046237352138014
0.0486355280958627
0.0472041076753444
0.0468660398406651
0.0501533432484521
0.0499318010642399
0.0460772591247689
0.0456280476481944
0.0454237804894991
0.0432962341903058
0.0454274743532475
0.0469366109887255
0.0454997026055767
0.0477842821891057
0.0462003225765948
0.045283140381128
0.0440031147693773
0.0449633612780947
0.0448425756339022
0.0460852142824077
0.0445491142564289
0.0447288273461111
0.043111828775438
0.045915595768501
0.0427333281278028
0.0434678805060442
0.0442611106611969
0.0455288673456887
0.0435829517922694
0.0439524892356028
0.0429723601988944
0.047324870227281
0.0454548666510277
0.0447528467330669
0.0435405218651869
0.0453162296273594
0.0419413353291744
0.0438959871041755
0.043062711238174
0.046127617937397
0.0409670303569619
0.0450123240216834
0.0421466529693212
0.0430554861141401
0.0401135725340829
0.044382874353468
0.0418624198152148
0.0438165244453952
0.0416248746647453
0.0454075405686643
0.0426128452406055
0.0452030177646602
0.0409228106379474
0.0422875831441035
0.0403193701784204
0.0448106872853452
0.0404855480848307
0.0478265026919557
0.0406401305249942
0.0442534641400015
0.0391519360997964
0.0439994926231478
0.0410891505033811
0.0426073749736562
0.0397164895622216
0.0424553970338419
0.0404085128535443
0.0406310122382196
0.0417498768703106
0.0434201700802134
0.0403795472961501
0.0424870752579844
0.0388429448499862
0.0430033773652823
0.0381316057678696
0.043978508660532
0.0379908884518041
0.0410895636192733
0.0360088589881702
0.0453843276186722
0.0397837812936675
0.0463784645089134
0.0375209514871316
0.0393903081322643
0.0494479741930181
0.0424667175054206
0.0421818269158889
0.038548048058993
0.0385886295946429
0.0409446863366711
0.0390204516118258
0.0394134149211532
0.0395923504144219
0.039364344868488
0.0376563244265146
0.0386985485473546
0.0401396723349028
0.0394632464045502
0.0384929704203123
0.0409580585064355
0.0421485259403021
0.03971285815815
0.0407076104854604
0.0387240198984515
0.039582349279252
0.0486707799868723
0.0407273016199294
0.0407276315215212
0.0415811559450992
0.0291291860323264
0.0514268589911727
0.0410234143885187
0.0432070710584336
0.0394544887019893
0.0392273197757947
0.0387981355216038
0.040593768654227
0.0385177957431239
0.0397121068444513
0.0442784460057478
0.0392403495165298
0.0446953530978893
0.0383884480537085
0.0421937728786271
0.0384683462579504
0.0414647719677284
0.0371549659550721
0.040538972044827
0.040152934649756
0.0390659644961352
0.0386297859814796
0.0351912465462485
0.0388357997861055
0.0363849209649043
0.0384899393139784
0.0422731639732768
0.0390362381667358
0.0390395399686535
0.0415118687452402
0.0376632256673849
0.0332887627731985
0.0532929029490787
0.0354919072389834
0.0452469476436949
0.0337175879359966
0.0430283736186407
0.0373629714611664
0.0439349980466097
0.0365195284035318
0.0412273947863736
0.0344840650142289
0.0414779679477475
0.0366205150929573
0.041178551183046
0.0359637025717337
0.0389425066812393
0.0374321587505998
0.0399737756297346
0.0388573650402414
0.0369942495377077
0.0428923279262501
0.033416723146074
0.0415186222567905
0.0516460106484349
0.0466780112151283
0.0461721042881883
0.0418344680675536
0.0428494424652543
0.0384023763079954
0.0405929056516221
0.0353523544555177
0.0458359329154623
0.0368409982772141
0.0400037935310125
0.0375575953349951
0.0438212377894829
0.035163498268428
0.0436513927051574
0.0339994527257709
0.0448147258216951
0.0340389502169357
0.0445282945791824
0.032082784751157
0.0459881594143521
0.0299566567406358
0.0496589493747194
0.0350392377717687
0.0527498447211501
0.0207599735018308
0.0641319931452845
0.0525509157719113
0.0412265721212138
0.0443439662676044
0.0355953345345239
0.0407919533708454
0.0385155681736641
0.0368537784059936
0.042540337327894
0.0421839444266367
0.042548557852702
0.0387460538972883
0.0397640684312706
0.0436593535456801
0.0370119987624435
0.0331472339082831
0.06205332982601
0.0416499920573407
0.0496901883017505
0.0375744155288296
0.0396258890145465
0.0579881431108693
0.0409251008033578
0.0464105152752081
0.0417647608774575
0.0427191172712197
0.0420252217472507
0.040480768633549
0.0411517075022284
0.0427737303977082
0.0439088300236026
0.0373391249160703
0.0460830024224143
0.0368001350159737
0.0489855399094995
0.0377707810273051
0.0504671254119147
0.0511264452980566
0.0412599652487376
0.0460257488169092
0.0480107365835223
0.042083887624073
0.0454090044645878
0.0421432298858226
0.040101552041528
0.0451344950437908
0.0562939678167387
0.0403080656532482
0.0548804308248753
0.0529283451049405
0.0405261214073176
0.0456341480786559
0.0431155619594878
0.0557867328098714
0.035463846612562
0.0416397210094592
0.0682300380104317
0.041072937738119
0.0719389962362715
0.0376865919921471
0.055123044171738
0.0344474614867754
0.0549995566588361
0.0274874646373975
0.070914091516213
0.0340210526652331
0.0603664411070509
0.0358632710803545
0.0629714777394061
0.052450357161932
0.0526550153374394
0.0468860684179847
0.0491474555536242
0.0420235518470296
0.0627779438352898
0.0505913613465059
0.0329510618807592
0.0590919514636486
0.0648880388416876
0.0697415602323488
0.0561464373688926
0.0304963308597039
0.0860303754611603
0.0479869801998541
0.0594679932203947
0.0449592742501673
0.0610072110873527
0.0457722693874659
0.0424007230096553
0.0729524863177322
0.0586821942141739
0.0489826303352453
0.0622773404980144
0.0352488504907151
0.0698796653139169
0.0569718436906406
0.0604721484903814
0.0459310829766169
0.0688926084928747
0.028173102633843
0.106258391459674
0.0573806218212908
0.0627907890888562
0.072128187396543
0.0616077927926666
0.0669211010288472
0.0634766122713729
0.0621839588784005
0.0630379438496639
0.074547824626702
0.0679402335953324
0.0501660536045611
0.066731958306506
0.0913741160337423
0.0575448436991809
0.0774820505092027
0.0624714488080942
0.0516724675632263
0.0748560007222123
0.105196777227235
0.0887079483210017
0.0780553950798993
0.062901896415975
0.0930605934164615
0.0744725363739246
0.0746412474411948
0.0749522456080808
0.0726219297905955
0.0792529343520919
0.068168276184166
0.0886044064591263
0.0736509204190311
0.0811442124838937
0.0823402162725995
0.0719204394686124
0.0782304099945293
0.101898700511952
0.124397590406033
0.0696082226499843
0.126863908981924
0.100451274786067
0.100565811893783
0.0896794904872494
0.0858024280477829
0.101019756658115
0.0934827139808513
0.102845295138636
0.0818043407541717
0.11667294108821
0.107824424124972
0.0936903373018182
0.124570245707807
0.0971859364740136
0.119341703135281
0.0370233168763112
0.278955533753282
0.113323969344973
0.143301725858729
0.112904822096085
0.101065739986797
0.197188984679821
0.137194658157265
0.140889562397831
0.148413564364464
0.142622505109233
0.151296984864168
0.163068043525634
0.16250267828014
0.177808269744103
0.179999736910319
0.157059160168829
0.174529286956935
0.227571900676618
0.223650976225184
0.218140920883692
0.192217519023821
0.21237193684772
0.218514717970504
0.215104748932382
0.229237811278136
0.220922496332016
0.199686348516494
0.300813496886984
0.234871602873322
0.262453031093137
0.235565190696971
0.309957512485243
0.223962164455285
0.323691368752893
0.291230052924812
0.295767995798136
0.288751558787018
0.295411209767098
0.310364862032464
0.291554933521781
0.342889776406694
0.332624515320409
0.327297556970357
0.335031308957651
0.33169705286798
0.347522040627052
0.33714047915115
0.354845975840038
0.324665489300166
0.379229663622872
0.309833891232851
0.4791791175871
0.380776308711581
0.357686965435459
0.364862908525155
0.347458908917141
0.391979434282973
0.365024269405417
0.387794710945832
0.396699009713207
0.359274753561128
0.381201676372622
0.358937237289628
0.383292362799542
0.359543087830226
0.392783015214263
0.339909614501191
0.411550420027845
0.353358444074275
0.382667199457442
0.429256795547563
0.372627489553719
0.378063417245013
0.371025873200551
0.368881642279849
0.368294111043408
0.365250854431446
0.3632247245211
0.391406321494078
0.354021655510201
0.370446899991184
0.339077967794739
0.37964417628264
0.381751779070529
0.338370434298947
0.358921910281691
0.326706948762516
0.350000411044007
0.313897628169799
0.31210881670038
0.368256216808401
0.323331883419627
0.331854888644378
0.312880126902687
0.313966174523443
0.3141572534985
0.304593913275981
0.307011927348685
0.309843974072743
0.299104176535453
0.308478191543645
0.294926073378676
0.297326958515877
0.293741320170506
0.299719794264138
0.293151449981625
0.292958885375274
0.290146156645634
0.290422817300937
0.29112974576147
0.286413342548159
0.288690648025241
0.289223081981518
0.28681556739757
0.293424630408729
0.289455321043555
0.294548460849711
0.285911136429447
0.283704020168659
0.287659082948662
0.285458985089627
0.285133482758378
0.281248598794592
0.279681358581597
0.282714531186608
0.286770736491278
0.284384897177443
0.281832621938674
0.273913939363026
0.287125267363882
0.271259140364696
0.290949253139269
0.239562365360469
0.323338199024837
0.295491337099044
0.272198940103646
0.282986146155676
0.263728451511104
0.281064925198418
0.246436164794369
0.304748399841905
0.283288746853636
0.269309120057677
0.268060806915129
0.254254381994454
0.265421975644931
0.272913479772132
0.247718732411536
0.275377391075058
0.226795867639958
0.274924274312041
0.291749233137861
0.257254588841299
0.330445194012644
0.265928586660805
0.254658106752914
0.228020865447951
0.301005503475318
0.236874554820928
0.272807461943611
0.229135528718884
0.284917437374648
0.260621763212402
0.246524855117842
0.251818605274629
0.23852162505976
0.24880391479593
0.26959829055244
0.243906199311304
0.236523826035848
0.277306405892849
0.230183957206245
0.26071526599873
0.280696884658146
0.265233528959238
0.231407940270447
0.234966440994155
0.230716249972564
0.203109034091939
0.286393164908331
0.216883808075347
0.238134602342876
0.22232510293096
0.214660772409762
0.219832029257806
0.215665165557359
0.227681029745357
0.191552694958319
0.265141791625504
0.188939216360103
0.2269814733377
0.200759977302891
0.218361812436954
0.242971385053758
0.219074562747081
0.190088165515645
0.204933085913088
0.237570494391924
0.184920118537882
0.215993460497753
0.19134145833181
0.186307822773819
0.217366168053428
0.183595054716951
0.194577526090407
0.197560671061125
0.176565566444298
0.222397860722501
0.203647806615812
0.225760769814597
0.193590809398698
0.176529682453736
0.182029440694837
0.171106731440764
0.190890318529589
0.155250427672923
0.196091116270299
0.192854776601026
0.142420880122747
0.233285424793125
0.180277755838854
0.180259841909694
0.182046801581422
0.177913916090964
0.173950994622978
0.184624277482848
0.209184234015498
0.198488938980801
0.184216659716391
0.219605074828223
0.182264941209132
0.20815911794541
0.187297638639823
0.205912408107498
0.19393077103086
0.220581927029716
0.208188201038632
0.217953744636561
0.215520663804517
0.221830424587732
0.20935096143654
0.274142918486147
0.202816279445061
0.279939166530946
0.224860385281423
0.301352188670309
0.264721101982348
0.258986906159179
0.270490589764248
0.267256557805117
0.272737718771966
0.273156330203268
0.265852403599146
0.326796933307129
0.273867085957875
0.301889788830646
0.274188572273725
0.307120239391732
0.277865531744787
0.332457117038669
0.290387369345899
0.340967641514027
0.361155125379517
0.317357496863919
0.332755922722905
0.301160355021441
0.330433080717664
0.322148112356811
0.318352889162448
0.325186083015282
0.302737274877817
0.355514398740719
0.324523191740857
0.331938334507208
0.327001416559693
0.333614529062816
0.330218133078431
0.342150573895516
0.340754635939312
0.343040128939886
0.338069085151432
0.35327280871137
0.310697557727043
0.41299856610267
0.357292211088002
0.359328139812842
0.359412315985951
0.36072110271291
0.367024473289857
0.355796193253155
0.378280187500732
0.38269789160649
0.369660933549357
0.383192892619041
0.370624068597323
0.390335977665702
0.368377480594868
0.413208769624945
0.373145185798203
0.405406618651997
0.374199602535198
0.38935725142567
0.449921183399409
0.393284866081841
0.421693585243201
0.398040595516164
0.409053476166238
0.398482650028753
0.407410953473065
0.400955607465966
0.414187187637037
0.407713339728245
0.413542516015649
0.40864705919951
0.411373007806436
0.412622542207664
0.397046459929351
0.429650085591886
0.412358198381187
0.408543927747317
0.400782331509292
0.412853008671473
0.398974178100035
0.42749915181441
0.424516760377775
0.403346120849049
0.417799616353856
0.405096449140532
0.420019414436093
0.41842242941527
0.402908448574052
0.413504363381293
0.40574922922399
0.412202609140299
0.409531727242942
0.400104969502216
0.444514343284669
0.41645242013878
0.423788271996323
0.415025108953963
0.418017412196179
0.417479018987141
0.428704947103802
0.42076364794784
0.432386611440407
0.424098128087043
0.434222061413651
0.42920562948215
0.432523435223561
0.44037922311828
0.438460119464519
0.443612028768824
0.431086406562536
0.427145752838761
0.428790154640067
0.417649554432156
0.434068384512829
0.420225077320163
0.417299160992945
0.412337903457185
0.4180801183435
0.389500856517731
0.42814744348311
0.396669309656252
0.408770671775909
0.402730106396116
0.386728222481123
0.390474790038837
0.385858867489833
0.386977970537221
0.380303440300597
0.381039651163854
0.377957722788697
0.377201011047272
0.373923692189856
0.375782972518557
0.371028735813844
0.368721844798006
0.366038433163832
0.368040908616977
0.368322194076388
0.367589216019689
0.36617982581273
0.363832189912924
0.369328606744932
0.362112259496481
0.373465987913211
0.375825832135175
0.373689892290232
0.372119706473155
0.361528487746861
0.372860810025119
0.358940127936766
0.371554406734804
0.362642157641743
0.364686485395188
0.357466022426378
0.363242500754163
0.359742589911767
0.364778011215602
0.35893556711109
0.363337757684747
0.361230735512248
0.364234557310546
0.357939443919418
0.362889753542338
0.360927515644359
0.360970319103971
0.358362094157999
0.363515708502996
0.36437266400591
0.35902186011571
0.36742543136827
0.358785822793982
0.362424511903539
0.36080510777485
0.36171551007279
0.366215992883461
0.362863385624245
0.362516400800748
0.358030406828553
0.361973459589455
0.363998835788581
0.359821403953863
0.359346853185321
0.359158690358213
0.354014399104347
0.359609086390328
0.349877113315786
0.345258506780291
0.346248397584916
0.34089833482509
0.341225553972269
0.339867213460353
0.335436654361615
0.331203922207811
0.330095375981784
0.329099735389146
0.32245314139239
0.323055963175063
0.321804053870598
0.315871843176018
0.316374875220685
0.315921297494434
0.313181850278926
0.312689061924019
0.310860513308706
0.310198956500937
0.309817717025707
0.310605879091903
0.310508286956938
0.308782343835111
0.310981037003104
0.309443369426556
0.310439420582758
0.311365906843865
0.312615351892742
0.311578494898282
0.315025474492436
0.314865428998709
0.316829587765215
0.316663395070253
0.319184823556862
0.320467557990263
0.321265656856667
0.32047901902815
0.324467374264312
0.326701309376004
0.329213725353369
0.328621597673532
0.330234860300344
0.3303302560465
0.330002600496503
0.33564685441638
0.334637727644044
0.332068412985009
0.333543976947154
0.331096315726352
0.329769113869997
0.332486305841886
0.329530089505265
0.331039393650926
0.327922060309475
0.329412098618024
0.328163534980087
0.324663817344212
0.324188811763889
0.324037741451449
0.325765091337106
0.322688030710637
0.320190928824867
0.321240511781076
0.318214623508173
0.316450704506421
0.31723503403904
0.314766580741653
0.310339445210402
0.312865015781841
0.311862533372494
0.308903772723643
0.309841984275216
0.310292858516806
0.306905423819985
0.308408127102018
0.304907031624095
0.305804506800936
0.303918406573136
0.302209191490381
0.304615039929913
0.299346292053815
0.298299670472745
0.300459175308316
0.297632702882342
0.298381112263203
0.294760338725098
0.295820027183088
0.294449140216544
0.292320915900274
0.286597351443532
0.288555584611538
0.288776941215776
0.284655215162996
0.281339907297897
0.278344916377143
0.276328242550871
0.273794566762421
0.273663555103989
0.268844936238768
0.266211235530084
0.266029029287284
0.266026461906148
0.265290404647128
0.262888569193452
0.263628354981079
0.261950735649083
0.263163729259997
0.262527429753381
0.260057695719046
0.259065699508283
0.255755589601811
0.256987168210881
0.254608189454555
0.253964752313415
0.248703828882835
0.246189627550577
0.244577632264191
0.240080571774223
0.237736177092414
0.235523918040823
0.234014081461095
0.229083370803153
0.228640397946505
0.228256266513589
0.229615022718919
0.23196704090977
0.235900664304518
0.240814713338928
0.245958530974615
0.250888851849757
0.256564426725591
0.264054025823223
0.272151960439211
0.282899402787521
0.29295737340075
0.302491888890066
0.31778180269108
0.328712145083539
0.33703823593607
0.350349502912017
0.365388676642937
0.373911691145222
0.387052818105303
0.398831036498963
0.407236339347339
0.420513008078276
0.431084030106866
0.438945221993811
0.446124924977407
0.46133634678659
0.469424631178689
0.476725253709433
0.484192702897132
0.489569491372233
0.498443697877958
0.503828535188405
0.511734171836842
0.514183295212918
0.521821592903165
0.52388229046674
0.530164933527204
0.531292002206929
0.52882309965979
0.531023621082804
0.532255331451334
0.535130615878375
0.533016303759129
0.533456694947645
0.537759489264312
0.536274116739706
0.538194327354015
0.541584890803911
0.541457488675971
0.545548378116975
0.544552826079483
0.546963745369943
0.551159387220291
0.552270802432305
0.561062992968337
0.566622065231183
0.56692979818994
0.575796175171557
0.581828146879039
0.58384542258586
0.592089119863276
0.597435863846284
0.60450682694691
0.613472074378883
0.621482753964326
0.632809693172718
0.643751845629268
0.64047030355686
0.656145500395028
0.660950743771917
0.670635747121047
0.682296986360336
0.687911931718867
0.686594468115196
0.68813631038835
0.692959558460448
0.696256490286678
0.69579950055782
0.694303533558646
0.695048141858529
0.688132391271689
0.681646624413932
0.682803025013439
0.68251985392043
0.675289925342117
0.678411944586
0.679732121209219
0.687686767002283
0.697604432673419
0.706001603745094
0.713592803823407
0.723725142566768
0.736043426091878
0.749275878120305
0.759487296739926
0.769483155804238
0.77570454590425
0.787994592886108
0.806510853704263
0.824430434490628
0.831060225296807
0.836174596702897
0.854354143081106
0.870327989404151
0.873944491639804
0.886483848928289
0.897677516986754
0.902017903143227
0.931379364377732
0.960701099892497
0.957391158720755
0.983583595146058
1.01047634907247
1.01566762609061
1.02250262403016
1.03241414893598
1.06326298929936
1.08221150559761
1.09514366372579
1.12174434328004
1.11710827967653
1.12789547664973
1.16455161844921
1.18361700892729
1.17737271412665
1.17377818391397
1.19237361046504
1.18916623923391
1.17192070644661
1.18342908752034
1.18084005797555
1.168367526527
1.1827539023721
1.17366681753162
1.1573414946187
1.1606601762344
1.15102812382356
1.16128958170731
1.17690362387183
1.17208855377009
1.17531535402243
1.1866512531221
1.18980453696795
1.18615475201694
1.20711607689432
1.23538759256766
1.24028166481417
1.26483998461238
1.24457741099297
1.25795604671436
1.29804736861598
1.30257213683372
1.30285105953367
1.34325313060445
1.3330929932814
1.35399040318505
1.35502369765534
1.37687830068851
1.38531400014869
1.40517463517875
1.38363528822508
1.38750898965782
1.39382233416149
1.39491916874822
1.39519208977599
1.41558796255643
1.41751927971931
1.41768120752465
1.42624905425626
1.45234161229737
1.45940536414412
1.48222742435435
1.45542987082153
1.46759818610719
1.45125202424221
1.42347440980409
1.48017621325902
1.49559687590785
1.47637341573362
1.48815184519397
1.45421295152186
1.43232066975041
1.40986893320423
1.40906112933385
1.40586646065414
1.37989298553762
1.29403282840237
1.26569700708695
1.24029216312416
1.21376643263215
1.15511464238624
1.09493849626778
1.05992199021816
1.02743191781916
0.997152854064364
0.961105722705884
0.949132310363658
0.929268291526524
0.911374845967063
0.896428053782704
0.883845818243554
0.886741254205792
0.87415221225833
0.864876048168046
0.853747608884901
0.847200181975516
0.834016518442822
0.829170207496132
0.819467009254204
0.806402542896597
0.794926370470853
0.788743427419141
0.775141313297134
0.753491882227346
0.741041440329932
0.715741421902826
0.691337244331015
0.679091453745733
0.654303706638745
0.633038909244156
0.605586763781573
0.582312835003201
0.55452898330995
0.529606300056703
0.499917081988632
0.481382652845293
0.452350537944585
0.427215587549652
0.407687523413578
0.390093938874118
0.373828351062476
0.358578216537599
0.339584617692789
0.327882546145222
0.316978137775147
0.30536233406821
0.29779282347099
0.289668917631039
0.279865813514366
0.276164432167867
0.268464828414035
0.265998246276502
0.260691928301693
0.263259027496329
0.261255820900845
0.25359531555986
0.25657336801196
0.260505201170439
0.2595082972894
0.257558789631443
0.257588221430899
0.260449512031793
0.259667209035346
0.263261384206286
0.264407369663763
0.268764557156294
0.265759536732436
0.263567193321601
0.262938570989995
0.261721836486647
0.261403609475014
0.257341282131453
0.254864271152003
0.256415782034511
0.249147396564012
0.249176243882652
0.251831524599013
0.245796443054101
0.238467779194899
0.244750898492102
0.238973992999876
0.241976127490289
0.24289301472674
0.238905892784855
0.244816431376266
0.245916198877352
0.245603340584989
0.249799849619803
0.252819253694373
0.253541384094716
0.252424071913186
0.258213844303586
0.261320665845295
0.264273174967914
0.262441329892362
0.268741140220817
0.272107013853429
0.272152215586833
0.268495657998898
0.272815645968473
0.273788987127021
0.274632753647665
0.273554503684667
0.27220710867847
0.276538699191407
0.277043450922068
0.279300951378855
0.288232677800495
0.288591265942403
0.290250558783429
0.292346259019704
0.298939673903153
0.306687846692202
0.310970773503153
0.316323370933812
0.329193706342934
0.340302120335649
0.348911395520988
0.354781367111507
0.362171267702102
0.370545196422675
0.384331440656499
0.388788816613435
0.394520882754484
0.395489653390849
0.393053245780911
0.38976290932533
0.379820295761814
0.369191057694434
0.371892773484085
0.35892683204142
0.356569306912586
0.353762919208409
0.344101531941355
0.340896819761908
0.340977892882582
0.346761155970479
0.343844623688394
0.342972832159533
0.347117315854238
0.344769915362681
0.34497324497764
0.3377517600568
0.336840569365724
0.339513387359668
0.342055957305787
0.335168823720213
0.333973264850588
0.321748779741211
0.32519103682739
0.321244004092164
0.319060468121237
0.306510764590887
0.30843301791489
0.306657809180696
0.299638432428278
0.29070417377616
0.293857073660989
0.296150177216855
0.293821309346211
0.288679823796322
0.290448847520375
0.284922455561454
0.282298105721546
0.278547741917947
0.284827391871063
0.277188599855271
0.276444659358769
0.275586052001159
0.281157522247776
0.28007329797292
0.273023837805152
0.272901184724486
0.283465829538424
0.272310460733755
0.274652401206499
0.263399330373455
0.266448223028628
0.260491249107357
0.259466077631591
0.247993206824392
0.258048149810903
0.258076391163356
0.250977849538162
0.257877694910728
0.263280061532094
0.252932434039406
0.245927293063881
0.253692456682056
0.257102349941008
0.246616282543871
0.256808862856275
0.258738632067152
0.245001013510706
0.259638922758803
0.249609065089092
0.253929032268374
0.255156838310916
0.256332062591984
0.261669658525595
0.259849731787561
0.254421322433005
0.260888767409138
0.268835581151038
0.253525258320893
0.265162117411048
0.284720108075334
0.271594987141154
0.257993998641532
0.270949501311164
0.278057848671563
0.280273578657927
0.277954768285784
0.279935789310179
0.283945240296276
0.284124653353781
0.280735328829091
0.292728791339391
0.2997430890346
0.300437180488431
0.309693049359631
0.309080761051253
0.316288525214898
0.310028584749655
0.321172051110882
0.349707540867721
0.336593066683466
0.353126739638959
0.353169726363302
0.373933531950906
0.387925477722997
0.395166125040307
0.402958892148187
0.417094494280076
0.430628200433083
0.447380743937914
0.439002597800725
0.453897697573923
0.46696385668545
0.459874261418548
0.466698499611199
0.482711358169938
0.475005040632562
0.472916444108752
0.473659734356249
0.486208785932052
0.477181140559041
0.470398852915707
0.461657814855769
0.449880442062936
0.457158753173227
0.456718845897885
0.455593052210983
0.46300685354123
0.443426868016821
0.463084271139659
0.478700554612294
0.456460520770664
0.410337225188301
0.438100509519341
0.44593564852367
0.411831437365157
0.425378532702102
0.443409772451092
0.40501279638335
0.41317207391848
0.398797820067411
0.399622800784842
0.388120607739726
0.398558155330041
0.424956557167252
0.421678216375656
0.414348976564904
0.40868892584073
0.404633462952929
0.38959181138702
0.399209108664159
0.399177096485799
0.396036631472174
0.402035699887521
0.392615426243565
0.398087210258565
0.40554700150451
0.420312578567244
0.422697850459767
0.400819936403734
0.385902198090378
0.390538474050967
0.415573889933928
0.435517428995053
0.434796327072371
0.405966216600876
0.414588197362536
0.431286645180022
0.413844861158783
0.413120337053201
0.427398646953386
0.416963464793815
0.43118986689383
0.414440990253449
0.400479243174953
0.428390670271375
0.404040226918929
0.428627635310852
0.470391487286624
0.465940430820306
0.438160011424617
0.448147498388713
0.419107119780407
0.466257404283503
0.500956472556184
0.477849794263196
0.472275583135562
0.465140852444152
0.482739882039911
0.529488594804331
0.507951715054917
0.558009863420408
0.543424649034321
0.570206816218448
0.540057875626873
0.512656884802851
0.549674047477722
0.559372884642382
0.560452003465192
0.58009037961706
0.587205270287374
0.561518961369322
0.542020208926787
0.569464195141537
0.601859369318108
0.571762018217429
0.601110881261252
0.58116756840573
0.57121824440119
0.677225807673941
0.639626810485518
0.511330649336029
0.58313897307176
0.56241660877078
0.542215381538254
0.512569974003222
0.51779201108347
0.508019349149234
0.546741375977028
0.564400700832048
0.5826451095403
0.588442635047027
0.56632847953879
0.515422739003085
0.557219233687363
0.547937986043477
0.518826225872716
0.575957975540781
0.590144703915889
0.509966738050968
0.629475996939561
0.579672555121518
0.4868690795457
0.48567392012692
0.605696776871173
0.592311673057197
0.65240283939585
0.492152595604478
0.469152655704212
1.00755189315994
0.518664430816971
0.595701288955565
0.860289703506615
0.781522377646045
0.526160825050135
0.453868941763961
0.472725389186428
0.641327335176527
1.08681371437743
0.683395774462778
0.651340049276246
0.616757489952931
0.617019413288658
0.540439667691202
0.632030075423783
0.590702398366882
0.845088571421605
0.695234261806528
0.581402079335831
