3596
4000.36533379555
650.420452594757
1
2
2
0.0428468937392146
0.0420518414117226
0.0528095174799934
0.0406440510595373
0.0544174885868853
0.0441118330610254
0.0499833556932062
0.0358735676282361
0.048926943339083
0.0332415804687491
0.0548870312501503
0.0325742863450735
0.0348030109632044
0.03363413852797
0.0499033452041201
0.0388040484458254
0.0471081711514694
0.0343801713275761
0.0483869767892922
0.0328272897478265
0.0521290295431665
0.0344244075857544
0.0472555318635453
0.03307075842073
0.0512409445166414
0.0397455283807236
0.0521749914442168
0.0316536636453497
0.0461284060313363
0.0424622367043532
0.0518195101303939
0.0408557698374577
0.0509959223432757
0.0350459588939146
0.0468539696259066
0.0350060029042087
0.0470329497633036
0.0356643335238413
0.0501303323731963
0.0378845975049692
0.0441331140304681
0.0389965847469413
0.0463588637398652
0.0380569166742923
0.0464193061108457
0.0362568243733704
0.0523155348361448
0.0379863700392868
0.048860762334127
0.0428863041758156
0.0530453825770366
0.0328469082012141
0.055308429226565
0.0398573813718348
0.0472127982643053
0.0471436996245607
0.0595250643386676
0.0371966174526318
0.0411799561465416
0.0286050073962572
0.0507526959659306
0.0506810550874215
0.0570136598074684
0.0304565010124983
0.0392735477541893
0.0336432879127861
0.0597321053727413
0.0332725219097131
0.0467770498755105
0.0338829935138072
0.0474025319935574
0.0380604145709709
0.0581843898795524
0.0475738133335469
0.0557858367633157
0.0410825107387787
0.0479168323564581
0.0323698429632956
0.0354890956768059
0.0383985555666828
0.0623612105670978
0.0454895176231441
0.0451633915112113
0.0296758886955934
0.0509158937595591
0.0479742323001848
0.0428450513593519
0.0290064321900167
0.0646408852591847
0.0416518386348014
0.0476936781268813
0.0291282611321466
0.0426259213502873
0.0350633882262013
0.0392001463235669
0.0275285006823433
0.0458695512028798
0.0326000082139362
0.0395136943909362
0.0454503658606856
0.0364881214205204
0.0385979830470775
0.0642663903025002
0.0392415421738589
0.0721660850961926
0.0455474275379663
0.0408048645515245
0.0554498042822296
0.0670091462730264
0.0348925357023197
0.050940801920552
0.0313655688243994
0.0455292046389595
0.038870892951158
0.0331504533623797
0.0362381009557363
0.0702665568303544
0.0348961452832302
0.0482559813851107
0.0361012535632777
0.0195746150724555
0.0436150187325625
0.0854495138754473
0.0398887610293548
0.0523278515490104
0.0367614164814358
0.0353345808365586
0.0455366046136225
0.0606207067711282
0.0359058515114865
0.040853238174381
0.0389808956868555
0.0290300573892266
0.0199327187398331
0.06275758422718
0.0471012016774094
0.0377182589290335
0.00898530004505644
0.0454506914423736
0.072164533130181
0.070894938291274
0.0430709029291828
0.0308951022706796
0.0285368209998872
0.0879486468427889
0.0419740142333005
0.0357051172516081
0.0446445377243852
0.0569597087250918
0.0421094762498738
0.0421969700887807
0.0297512670964297
0.0583928270597534
0.0417781292959033
0.00319466833352075
0.0283828608558395
0.0767780087496579
0.0561713344679064
0.0661077613226548
0.0483666076203423
0.0398723446655974
0.039079843054072
0.0397527218933476
0.0295696215214632
0.0341310889308134
0.023469927785409
0.0432552887859075
0.0502179911319922
0.0413258276745974
0.0264352239765912
0.0639644021759382
0.0239195676180067
0.0315672665200425
0.0654127957946691
0.0583100150273952
0.0197409318239486
0.0603758810806515
0.0492705464103888
0.0299609018313472
0.0350069673735078
0.069292989354581
0.0420228834695183
0.042155005677333
0.0363301111013349
0.0350814881726528
0.045696887676575
0.050699015854035
0.0385824059109582
0.0412541797930472
0.0222586262271641
0.0364986565720798
0.0711431390152355
0.0708168221509159
0.046104055750824
0.0341904776508339
0.0134755510271805
0.0549166595662035
0.0686596338854437
0.047980539642163
0.0342008298157805
0.0345461920510085
0.0299273966382834
0.0328610688891914
0.0375060771382712
0.0285265437535732
0.00858941712809685
0.0638146898970598
0.0640177001881205
0.0464320443249879
0.0293744813914349
0.0250886972313303
0.0165065289945835
0.0696995643106049
0.0685589458137598
0.0527692672797363
0.0358627982882322
0.037686350837733
0.0395695646249022
0.0650992184558647
0.0397050687256614
0.0389947869464351
0.0311015565050781
0.039508197885701
0.0344656681703348
0.0421202813582528
0.031505264556543
0.0461263545441923
0.0378995300048834
0.0381615158567939
0.0267523995347856
0.0512634322222186
0.0372739683490948
0.0470911150540486
0.0341117003592573
0.0304444091698491
0.0398286548405464
0.0556546656238961
0.0475476648030761
0.0433883255735547
0.0351070331444922
0.0355836131868543
0.0373615792599315
0.0422368032829661
0.0427433310185397
0.0265010856133259
0.0254685781729198
0.0543701682621965
0.0554514802146749
0.0376853226711204
0.0179272391318968
0.0500337234969537
0.0463262484705668
0.0484859134590707
0.0266749995230483
0.0422128908016375
0.0201407557471319
0.0361790374011688
0.0534768636533597
0.0571393399069786
0.0281315108316855
0.0556796163895556
0.0392867065856535
0.0468306841316536
0.0135469660220506
0.0180730569387038
0.0774373790684184
0.055964427203281
0.0137558712641676
0.0933341722730484
0.0511251257252158
0.0556030309798143
0.0205662823731653
0.0106038517670504
0.08419477620948
0.10703324346692
0.0409574901643748
0.0415146591241086
0.0476426388163448
0.0450306198607884
0.0364158685965768
0.0335574572116895
0.0406267293923156
0.0402242332853794
0.0694065395479849
0.0750598915246615
0.0252513403752869
0.0526794639805316
0.0666445583692154
0.06111466148843
0.0372815419769038
0.0346971796272229
0.0256860144260054
0.0527358474735407
0.0423682400347004
0.0669609815407639
0.0368768456985435
0.04623865899797
0.0519077523463135
0.0573756044397139
0.0260458296234752
0.0495682955569522
0.0427030359835169
0.0539687440501265
0.0288126993339709
0.0409724402060473
0.0428990731731955
0.0296462493825291
0.0246382351602876
0.0879039064783206
0.045352187934476
0.0436358870257693
0.0564072342981994
0.0622837475575414
0.0302501013777178
0.046754627680327
0.0320122567373285
0.049745167184519
0.024384468433121
0.0307810933061274
0.0430316783461632
0.0562574988886731
0.03743572133801
0.0489620933292084
0.0389787249835971
0.0452118697451685
0.0407296286312194
0.0439443232292433
0.0347069204601069
0.043701812991387
0.0247788715587711
0.0591281723320109
0.0541088212108724
0.0275603012088837
0.0493448473966221
0.0818740884783392
0.0476800129453899
0.0529820997988977
0.0445614985449727
0.049877514488798
0.0417259952413714
0.051632168622555
0.0355569231302646
0.046148372494562
0.0523139948570872
0.0577532693502894
0.0349566890604144
0.0310045722326169
0.0743317689548412
0.107592088506904
0.0728611563864847
0.0513340795240848
0.0219033506752143
0.0720554639017486
0.0621221284238065
0.0855300210833619
0.0628644035406589
0.0672529845192885
0.0500997849663987
0.0607291178760097
0.0476274046809497
0.0653378717266286
0.048942401653865
0.0613967346048999
0.0495349475879162
0.0654192146562304
0.0584861466170055
0.0566483978209595
0.0475991920214246
0.0938225569384479
0.0730476369970571
0.0722803020180931
0.0626980063174226
0.0585694559898716
0.0699045259815612
0.0779416357420672
0.101254874351398
0.0840119451533391
0.0927140466410664
0.112718311812773
0.089004150864262
0.0822581484129138
0.0757323818668026
0.0837792062566936
0.0774127911594755
0.0851741167818518
0.0756943110684406
0.0816012913323628
0.0799584225925416
0.0901626415710234
0.0806674290239418
0.0811350447030514
0.0816594852920395
0.106225696795411
0.0843748001235685
0.0963957698441073
0.0786587141856713
0.0955930752226165
0.118986449333507
0.14754873248427
0.106440842468587
0.11160838332615
0.0904288998905426
0.116002090714333
0.0997443967630849
0.111280275962977
0.0960792157847437
0.114856382333687
0.114213010815518
0.129797636544612
0.122603701216137
0.137672019676591
0.115809486991544
0.141801904504769
0.111102330957046
0.143514949346895
0.142592680735243
0.138450186573952
0.113306206276726
0.159774386241861
0.126930910461799
0.153007862574719
0.14550700587487
0.153978889157561
0.135353263962532
0.151186163670552
0.136288162391813
0.147844593715313
0.150508398852755
0.157809323015316
0.148655045740421
0.166405723389021
0.146588720625519
0.161201625555675
0.162547184580563
0.159872105885127
0.157254874506212
0.173954296471621
0.150926386287416
0.176089342188893
0.147753099238011
0.20006675656094
0.166737339567972
0.218768562078624
0.193822051248667
0.198303000363534
0.162136662948879
0.189104206657992
0.18278727296675
0.204160555851754
0.190530661595137
0.204715613112273
0.190558809890803
0.208110705987536
0.196134383358386
0.208915526695881
0.21067375005685
0.205112557019225
0.187071232877885
0.215421324183966
0.190063599854603
0.226273729010426
0.20330994199136
0.250418948607426
0.231620420175856
0.279379682892614
0.222335469056905
0.243286748326192
0.216344921940612
0.247202658633874
0.225728202985782
0.249298893540257
0.23234667749887
0.249622907558695
0.24599591185005
0.254592357852047
0.249688920723202
0.262726304973758
0.241945457318525
0.279288847932784
0.246753402930239
0.275997275918391
0.264335596890304
0.284236038968629
0.276383142022384
0.291956818908986
0.272162582113885
0.281786138335852
0.278311459565205
0.30739714335749
0.278568672517103
0.317010414763198
0.28801998755469
0.300485000131534
0.284748684881531
0.317929064788386
0.281632734691038
0.317264765988018
0.303973462222045
0.3412381343054
0.318899907035192
0.317695693324822
0.30796858115842
0.340889587894678
0.320724890506112
0.356012489882384
0.346737278196331
0.380978830721276
0.328661981718511
0.351467403083085
0.328771609997765
0.3638463269733
0.360474168254039
0.368367689456683
0.350348476594407
0.353370816427484
0.341393124390542
0.391576812358093
0.341263698229059
0.394015202340367
0.367480632047922
0.386648145756301
0.360633735753643
0.403695194867208
0.380657871102473
0.399115062743246
0.391475123798188
0.4266000785626
0.380345624421235
0.407458125890796
0.398504110045994
0.436842083451051
0.402011455781655
0.448733942539081
0.42507558987245
0.436125926918914
0.416327156788441
0.454135959446788
0.403222238454308
0.456682439700432
0.421250646825079
0.485433502263393
0.427666690125686
0.468286422225744
0.456200349574078
0.451898428818536
0.447992776466833
0.483265431614457
0.465041475775218
0.495159068418047
0.442981033219207
0.475453472980609
0.46099827555314
0.500618683127622
0.487260539074955
0.514054957862441
0.486376509937681
0.520063052504083
0.502689007920081
0.532855987228812
0.500582022835864
0.525562723035913
0.482897042887115
0.527700630048694
0.521304366179216
0.552964961495987
0.504877777305832
0.545040813709379
0.513938984792085
0.539246263307166
0.530447247410282
0.531642901199196
0.531715639701528
0.554608918357628
0.540926534515354
0.546609925146158
0.548294262078697
0.577337024090477
0.567808369955031
0.585969878346302
0.557063527156987
0.586219139426086
0.566088046847765
0.602729260969831
0.552353806659822
0.606079642296311
0.581196265447412
0.616395561309424
0.556769822852485
0.633941017595184
0.584355469880987
0.62638291406621
0.582672570252209
0.64646521365045
0.585886078235955
0.597239677062376
0.635620544769255
0.62926359154133
0.616966144715236
0.644635292350967
0.604731202557661
0.635154222068511
0.604847501732084
0.622677588862979
0.619897443910086
0.645373276544228
0.626451828512409
0.669744645562397
0.654630493677744
0.677041516197795
0.65363606705306
0.678096925269894
0.649152177835817
0.652872972346382
0.634745599731991
0.682936136428288
0.662566118076664
0.671115606474127
0.677632793402256
0.710262092446073
0.643312351877048
0.710758429668813
0.675908475292907
0.697727847681691
0.68166653282908
0.716486589517516
0.66048451588494
0.716779395236623
0.676377959665551
0.748917504240336
0.663576295438779
0.761940048762017
0.686890565571202
0.697504428564098
0.680200016205171
0.760524766971326
0.688469897135031
0.751414150564875
0.680314638281509
0.719042337238583
0.723343731667942
0.70859720646568
0.706493408828095
0.760745964568123
0.691940305291203
0.76903963783283
0.710331605905154
0.748697677767085
0.717015174810084
0.732234476568044
0.721379169397649
0.774275138460998
0.727773151851277
0.791418975557238
0.755000807289715
0.810790602150859
0.720620739795015
0.798370114053931
0.749317566381306
0.83248145345535
0.754972119008043
0.816202898863689
0.759530029924678
0.843628469543337
0.769039211459592
0.764211137410568
0.75951027197226
0.801640195374831
0.788932482153391
0.81133180804563
0.783972988443882
0.805941067291198
0.772378932202908
0.808024359607653
0.7545031504728
0.809686077736273
0.762205860375157
0.826514931435351
0.761433440200304
0.793155676706814
0.76407179539981
0.861674797442866
0.775929203197688
0.817449192156798
0.785101507258232
0.847724122813777
0.785903100832991
0.823816660906169
0.747566153968493
0.84011052752951
0.769900524296527
0.817365540467665
0.804940042797962
0.836691812914129
0.807400463201346
0.842303122990223
0.800015875081352
0.834815553114911
0.816622243458913
0.863415681037249
0.788536835737337
0.828839482054668
0.837670956926241
0.8408761414097
0.751532224390804
0.83680345769378
0.790872221631288
0.855661613189155
0.791443177898381
0.859699020956334
0.793769958522069
0.866220688682825
0.805459569793899
0.834854454234341
0.814579933182495
0.837364988098276
0.829726387629871
0.824760492424871
0.831406734487196
0.845899468150491
0.796013608748277
0.858983973622253
0.772189644450755
0.83895130721931
0.817475455492529
0.885367242983479
0.785219268600896
0.820366030702772
0.841556987591934
0.873754187495264
0.793943154646581
0.849301363898931
0.821777820584326
0.880881557483166
0.819362690582054
0.819227545636719
0.783822394983021
0.819726326396943
0.807098528993038
0.831883367290545
0.791270980548906
0.824014593394897
0.826593879611954
0.84177868874392
0.818986275891533
0.813010259424874
0.818588032227116
0.862953690735586
0.8180703779469
0.882169310367539
0.813166598600672
0.810979300919336
0.789442556329668
0.842503216076002
0.801718016554823
0.855437239546549
0.796812396111571
0.833891395835191
0.824767392899547
0.806025792103355
0.81422093286966
0.828163910115398
0.816876828850968
0.817764761988886
0.82600334753756
0.835683397263621
0.814908113928663
0.810336607781744
0.787951575698285
0.832680855013465
0.833123745146156
0.815220447454926
0.809896966366981
0.849545081057875
0.812440935100749
0.863587850139012
0.792481027472234
0.832931149052723
0.781104546155331
0.837464882524601
0.808054036440868
0.868103656661251
0.780293713394439
0.821230273675692
0.805816303568127
0.826534614780928
0.799574406649035
0.803252508075043
0.798542756018378
0.828434914623219
0.778782310206814
0.819605497630587
0.764157969324156
0.799601246980711
0.760738146879061
0.804990096700111
0.780263683590853
0.799122586794576
0.788528406857889
0.801165421410284
0.809428295466734
0.784357734946353
0.771694215054458
0.791468152309792
0.765644020571373
0.776492441960583
0.767304013946863
0.802669324135534
0.740296139190158
0.781571554730517
0.752571128333844
0.801537462105609
0.730176339335518
0.767665553393091
0.757152750067186
0.770507268506308
0.742848069067274
0.790359544656369
0.743045165272944
0.767821618140153
0.723890279338505
0.770754449410473
0.71688266902557
0.767420619327782
0.732316777329584
0.742808593134166
0.747322058516461
0.762840825948716
0.734498435672177
0.744066795517184
0.72018429516315
0.752089057944704
0.72428131878825
0.743031031777129
0.70848429397762
0.740167913352466
0.709859727464456
0.735808027734028
0.695861219528183
0.7159149736391
0.721836038184575
0.735535696496636
0.693343020464404
0.729788691074005
0.686351794281968
0.728947099205715
0.70806485466122
0.714385477023556
0.703268330872001
0.707580084149156
0.669240351354244
0.704917220214538
0.684011945740435
0.690565640320678
0.660629454059719
0.690206540996791
0.665664731259859
0.696975961972464
0.658183023519774
0.665028164812473
0.655719293998482
0.681756435769088
0.642097686439453
0.687811077379643
0.658635522635619
0.671802311106204
0.642648356364878
0.668582026500502
0.634064737767153
0.664049041404023
0.62297113427387
0.654604571934914
0.631331905390078
0.6637480932579
0.628537041517182
0.64237400634068
0.610770604411136
0.636728681437557
0.629259115402788
0.635729159262835
0.616413348499938
0.633067518125392
0.599779797977224
0.644340636983311
0.61280139380445
0.62538400085984
0.592214147399844
0.604911579693941
0.605152996492445
0.597501429696015
0.587578615392761
0.608522939885534
0.598939897245437
0.606854697332118
0.586191147458535
0.590651754145501
0.571612541122398
0.591873596252952
0.576818966960316
0.581329583733181
0.576493696301104
0.582372096911834
0.563444401506524
0.564758679723831
0.562784068529193
0.577223403890617
0.544678200581803
0.550263904761215
0.554278867933635
0.560478726666355
0.545225787691868
0.560811052300405
0.54244953744749
0.557320442772763
0.52338215069527
0.541697725058502
0.522624050826755
0.539248709685341
0.543462665028226
0.539347046683973
0.512418544584654
0.531273267758127
0.517053151065956
0.51152403941223
0.50351929754549
0.525217840349402
0.499701825035477
0.518862555059554
0.492756143219268
0.510947432254197
0.492437134936879
0.513023338386825
0.485441331111242
0.50430103472775
0.468327406612983
0.492092084475107
0.482922465857236
0.48025384048828
0.47148470569165
0.486986406010856
0.477609162654119
0.486917818202965
0.460769348867938
0.469570252428385
0.455255093571353
0.472742140194853
0.448936294639267
0.464031221790221
0.450153931636336
0.469037206039246
0.461202114278266
0.453133999711336
0.446449496302971
0.460284689980338
0.441526262556726
0.44583424764
0.442810206303413
0.446249480439529
0.431672076780254
0.438863570632797
0.432647270321522
0.437715286484055
0.42760853693264
0.431522378678624
0.424758146906745
0.433834861366212
0.411852588464899
0.428695902612771
0.408398372295756
0.429387574714085
0.41162685212582
0.419850297095419
0.406283755283957
0.415617625134182
0.399575957828176
0.414960476608424
0.401573139965715
0.398059013475893
0.394554977056184
0.404566000498035
0.389920399594821
0.398319993885908
0.383160224808323
0.394326241766975
0.38653126081309
0.387983647912078
0.382053221267724
0.381837537845371
0.372351782544698
0.380407872566456
0.36590222164885
0.381747664055579
0.370904752957967
0.37539134125085
0.362243511797042
0.376160538905555
0.358511279793073
0.370605201460063
0.354510953280931
0.364654747770227
0.355767693808529
0.363880532114765
0.355740141701133
0.36014158239525
0.347538619873097
0.354223351873562
0.34689747165351
0.352569600713782
0.343084821388135
0.34156335738643
0.337816141078977
0.338126130359725
0.33384181571267
0.346262068236343
0.329592341513023
0.333805644038677
0.320963613777759
0.331437017159899
0.328430869079309
0.323200262326461
0.316012904758865
0.33290221407449
0.323158795217042
0.324390968708582
0.318957259366837
0.31979045405635
0.309376558028449
0.312491380655203
0.304824094452044
0.310848955053155
0.302498946349157
0.304031035437237
0.305023201404379
0.302672172453647
0.300593206499186
0.301750654202919
0.295767026598684
0.30947035969849
0.290216141778695
0.292676838848662
0.289876914868557
0.294305622162718
0.283355912482613
0.287161403867763
0.280616434959632
0.284814005086885
0.282930275538848
0.279138502653619
0.277964223429081
0.275930390364588
0.271061252426329
0.278025059833031
0.271621182897669
0.266063463056978
0.26277378163702
0.273626647073218
0.264708896184737
0.274960613618316
0.262297520194675
0.267944320823733
0.265339322462726
0.266405685504689
0.253446205483816
0.261807381100875
0.258560871207707
0.262044073327301
0.252984673250331
0.261621528233395
0.256286738624802
0.256946818631765
0.250261611578902
0.262798307905782
0.248511622195088
0.257833536446099
0.246029574870565
0.249577738206258
0.243606687756647
0.253483754903359
0.250654414113206
0.251464173421955
0.248447687879874
0.249576663408364
0.246745385540159
0.24866596277167
0.2456634536999
0.252472299985758
0.247206593614218
0.252975806300814
0.253312566150062
0.2544759640045
0.256027656703569
0.252355576276619
0.249028980748699
0.2538048718094
0.252651707989201
0.25491091957975
0.24930516866038
0.256203929517279
0.256336365522983
0.263870000364516
0.254038527254639
0.259906970804256
0.258983004315999
0.263292413016624
0.266408117043669
0.271330094247324
0.266441860692028
0.273074143760634
0.268644764878139
0.276640374049842
0.269457883981827
0.275314293031167
0.278577971727542
0.271875450028735
0.270528813236966
0.278880134569135
0.277328999108369
0.285271125003649
0.280145260970328
0.292109264118104
0.288131636857651
0.292509691593396
0.287683314066655
0.295188134031752
0.294863728899769
0.296964136272237
0.295707698299738
0.299449682056644
0.293611331551697
0.307479913880372
0.300258056800085
0.308278844449149
0.305308708294228
0.311065113846983
0.310618250351487
0.31706182122673
0.314544549440564
0.322360425667592
0.320215001972376
0.325070217383301
0.327099806928742
0.332886773977468
0.332468317900167
0.332214042659919
0.331469467909272
0.340408336123201
0.331596776882623
0.33576842180258
0.327601406287051
0.339457481319482
0.337994803154994
0.342933297505203
0.332627957749001
0.340818423873791
0.335169419960131
0.339450738898576
0.339206896844
0.344835790705178
0.339632416969609
0.342076169417466
0.337378357753457
0.340555469343459
0.334568368259095
0.340885987495959
0.32758560999777
0.341233104661849
0.32772370493064
0.338961501152122
0.338781960630687
0.344302494349655
0.339132874025516
0.339219027614527
0.334112370625343
0.338789828478243
0.335147953625847
0.3375268215205
0.335925840546879
0.343853757761916
0.338158090677031
0.336611839996951
0.333849605220855
0.338786332471614
0.335818153965274
0.350414432859156
0.340085824749246
0.343566001885685
0.337330008515766
0.341009343722846
0.334617092998076
0.344754756914866
0.340525186362315
0.343099017568974
0.33738973959671
0.339100894829387
0.334500904471897
0.342983749242248
0.337511289860636
0.341402516386135
0.328501310094113
0.342671187400681
0.338166732730767
0.338136381072788
0.336193116541812
0.345455580960655
0.33953738414264
0.339363017869802
0.327845065113065
0.336363131760528
0.327284612566279
0.334010511619294
0.329175411925166
0.324636557522927
0.319820268432258
0.33017927898707
0.323501854127872
0.313630136173373
0.315333856595502
0.324972910222586
0.313143638020395
0.312938674594469
0.303341451483928
0.313385254303358
0.297867160228522
0.300969973921623
0.29888157296664
0.301462478584545
0.295863281875524
0.29335032757837
0.288146347222243
0.285862761498264
0.28763758442468
0.288511846205704
0.277646439374952
0.279023545807847
0.274386249189948
0.277846672808655
0.266638065099741
0.271048088477628
0.269756943298399
0.267839063885183
0.263166074541872
0.262819526863128
0.259482196439938
0.26119419321532
0.252713196970927
0.254266978255802
0.252384699410064
0.253792523563656
0.249039693442275
0.246983834650372
0.24298262907948
0.246390128587723
0.236932430092686
0.239338688301892
0.240080487317234
0.246249027725616
0.234778261154354
0.23588536810658
0.233905613021093
0.234384638930033
0.227032264015693
0.232240345828975
0.231944884601212
0.231766445989279
0.225982062393942
0.229599247276152
0.220013201219926
0.221061259408095
0.220718539876525
0.217505710978565
0.217752246344177
0.219274376607612
0.212368674809014
0.217997074250803
0.216430685136822
0.2152264753205
0.211965420713943
0.211086875312481
0.21117230526968
0.212408231773292
0.208027577408446
0.21045805603502
0.204380629810899
0.2065635479453
0.20683473928124
0.211857258675888
0.201555676488468
0.206868852163508
0.200950438247802
0.195717294382017
0.19944908579991
0.200556354705307
0.196829196372803
0.197124295978168
0.192589063390638
0.198244362426178
0.196809857482572
0.191566951068821
0.189894655001962
0.196451702942993
0.189962731173135
0.189702402297664
0.190993915155354
0.193447133335523
0.187211833013676
0.191953480084959
0.186463575233397
0.189214865019683
0.186048708839302
0.186477446622187
0.186779542239061
0.183765843657192
0.184170399774813
0.185706413479742
0.181718623226559
0.184127732196538
0.18053778349759
0.180660989189608
0.181028726566571
0.181234970596633
0.17871046430036
0.182238981140391
0.17819058394473
0.180613642283313
0.173673646035543
0.175994200817893
0.171745255413349
0.173636477391006
0.174873313262734
0.176907192456223
0.173618939912645
0.172858473539466
0.172299912959316
0.169172270818779
0.165363217959398
0.172917929851916
0.170204348072841
0.169453753909201
0.16906154987862
0.170032288994751
0.165297125421246
0.167854782898072
0.165335769907765
0.166037965826612
0.166238589701913
0.165118904920834
0.162234436917478
0.165743786396653
0.160662357715022
0.160204357155118
0.162573934408445
0.162444795672942
0.163690976603045
0.164147946468059
0.161064505085221
0.161953027489227
0.162646927265523
0.164670393232428
0.158418226576453
0.158715871399222
0.160343944615398
0.161395164142115
0.156112478092626
0.159627388234949
0.158315310492804
0.158935976349144
0.158373651836494
0.15798859049481
0.160040906583276
0.160639819950267
0.15897083065643
0.158703808142611
0.158025195343067
0.158582103585215
0.157228739987907
0.158340060088675
0.157565509237291
0.158346573486622
0.15811432416568
0.156465932970105
0.152929711277308
0.155797630031234
0.153241812542883
0.156316785306085
0.154259949616951
0.154601604709732
0.154583446366993
0.151141927925378
0.14859957132011
0.149408794991463
0.15064962190437
0.153764576974639
0.149253200164097
0.149246852012338
0.147325278058125
0.148436547909113
0.144953699156303
0.143407120456452
0.144312582233893
0.148810341843144
0.146567017576026
0.146923493720938
0.144857467125804
0.145731825411482
0.144406395330866
0.142388164496515
0.142518792116693
0.143140849991904
0.140031511388088
0.139247697240555
0.140067747083325
0.141783101465874
0.141689019863615
0.142319765298695
0.138373895180582
0.141023168044815
0.138182691434491
0.139024904159921
0.136570908417078
0.13734750610374
0.134508482387523
0.135375121795096
0.13451577712448
0.13661270540145
0.137532551820339
0.135443741416747
0.133726919079252
0.134218910226049
0.130338002184826
0.133540605910211
0.132777912405994
0.129572755813557
0.130546373560075
0.131445292613035
0.12930947283423
0.130546703489725
0.132225462611208
0.129266294913086
0.13068068389217
0.13145846256413
0.124293475862789
0.126609391521542
0.126762808477501
0.1236573270244
0.123795356114369
0.126974212277059
0.121260848184351
0.123349761751303
0.125139280648685
0.121887597559514
0.120766119535503
0.11990182585756
0.119268141597257
0.11967085068143
0.117009203541571
0.118106103594747
0.114350282696394
0.115186234674074
0.115724340770075
0.114926372713988
0.115475655219138
0.113140441003547
0.110648130237289
0.112518234168511
0.110921312044918
0.113049177469398
0.110913093364591
0.111029822899373
0.111809654168782
0.110834182488861
0.108042114784659
0.108469651634059
0.110680504172445
0.108152767214143
0.103107969936975
0.107962598450551
0.108878922891334
0.10818746505753
0.106049471837942
0.106557264107348
0.106343367015718
0.105150859754996
0.104997095184884
0.104858307856809
0.103503322148884
0.102738787901138
0.10030398524479
0.097943107768393
0.0987426566861475
0.100376257411806
0.09928706293375
0.101315398475673
0.100118262422721
0.099469802938552
0.102077876756693
0.10123239452478
0.0963260707945923
0.0972294144029352
0.0972306539245279
0.0970915125164297
0.0992615079622285
0.0969684270321402
0.0948228199264944
0.09607172328954
0.0958281312286733
0.0958823480360753
0.0948889969414504
0.0941719679839259
0.0918962716634174
0.092860642693008
0.0926749924616734
0.0923126036966023
0.0939252292925574
0.095966474885557
0.0957768753047056
0.0924866415579043
0.0879977168736912
0.0911557548060691
0.0891494202006563
0.0903260958463259
0.0906483102024804
0.0873974985623246
0.0910101967166415
0.0890713937336733
0.087782437461595
0.088564541792398
0.0859969413049078
0.0886486742865038
0.0892107490435625
0.089022725259723
0.0868143353996981
0.0863421404931687
0.0877171408572458
0.0859603932053234
0.0858948386212781
0.0848308319701652
0.0837817888141714
0.0860796195741249
0.0867770900710175
0.0870040794544873
0.0879626790348008
0.0874635362246496
0.0862707029869781
0.0853354041166617
0.0871602984203797
0.0871939148213847
0.0852349676458723
0.0839998245279845
0.0810471044707997
0.0853438996271668
0.0866114309194463
0.0815420732631897
0.0837477424160513
0.0825920795263699
0.0813300448205553
0.083335146213286
0.082636322355938
0.0822706611405484
0.083598084056495
0.0832096817415647
0.0840301696880093
0.0842903552296219
0.080941460544554
0.0806125480843153
0.081352331788313
0.0795486562927838
0.0800938523602696
0.0793566822609664
0.0794989991475867
0.0805031671791072
0.0811360447245298
0.0805691670555538
0.0796802549683636
0.0809298321541382
0.082707881706588
0.0795549539351393
0.0756525909464096
0.0790669538591171
0.0796600421856696
0.0775187816763447
0.0787913049076152
0.0786622624250203
0.0778634404131977
0.0780712931510277
0.0772270744310205
0.0756501249474238
0.0766698721037377
0.075521565649368
0.0754993952083483
0.0778349064894631
0.0785160767486147
0.0735873238928973
0.0738919823727442
0.0761234805973082
0.0763288638902801
0.0748633224848096
0.0752154467362815
0.0754295987761055
0.0728973753430434
0.0721223402653978
0.0727388774476328
0.0716509248104212
0.0742435291739459
0.0721382559261007
0.0714552736603602
0.0711761878331078
0.0735378621879615
0.0751056423705996
0.0717254211483565
0.0715325498261876
0.0732801934486889
0.0722546604975766
0.0727264133734817
0.0698234478279676
0.0706088465953928
0.0716890141506762
0.0717005466343015
0.0731774146726541
0.0709334788763543
0.0706123001840847
0.0729389428612445
0.0700023183523812
0.070744446618059
0.0710145466922483
0.0714417316920145
0.0706091071565664
0.0676486585009264
0.0685743789261753
0.069401410578982
0.0667727141850557
0.0692000120344958
0.0684780429339587
0.0694605188904607
0.0679048787897965
0.0663845536866889
0.0643474454725268
0.0666937220656064
0.0670481530974943
0.0662641865097356
0.0649054779329389
0.065999661668291
0.0675693469983144
0.0650568116956105
0.0633545149138336
0.0647106773482981
0.0628228939575958
0.0647289873560838
0.0666713870558883
0.0634642474280501
0.0595947000178508
0.0612082562861982
0.0644630142541892
0.0636039367914527
0.0601767897726661
0.0624679121693975
0.0632282851562208
0.0601215313073678
0.0607068563162231
0.0608941835585079
0.059238927145487
0.0611788410603818
0.0593259943510619
0.0585688723722088
0.0576766663966289
0.0593183503885898
0.0584763051816899
0.0620451681701532
0.0616695697912011
0.0578220266119684
0.0592396476227543
0.0584390748534026
0.0582711641159005
0.0579796737952499
0.055136727106298
0.0593527121282333
0.0569767827074691
0.0563937621491955
0.0570069395852098
0.0559038018835088
0.0553761693619372
0.0541614981908316
0.0553626454082407
0.0567497142616854
0.0552334295350437
0.0574200026391895
0.0545251118610459
0.0555272020535554
0.0546352032146794
0.0555840447489281
0.053755599324905
0.0551322332462661
0.0534946697194292
0.0529433409568125
0.0541779023395679
0.0530887483467697
0.0525096419078039
0.0522595560998484
0.0529515498260935
0.0541614330188852
0.0526375687504495
0.0533351260407128
0.0521742998613082
0.0517280726511348
0.051259814182593
0.0515185433873259
0.0493204739710328
0.0510442801372918
0.0499609149117241
0.0504411974715003
0.0501371704069922
0.0512882459261159
0.0511960826155964
0.0506133173237402
0.0487372466340944
0.0486550984245612
0.0476509926927832
0.0493410005299238
0.0492558103437472
0.0494688064471985
0.0465226065832717
0.0473038552917741
0.0489055771661535
0.0488446458125439
0.0475084862149087
0.0469975033066723
0.0451229993253015
0.0474199414925747
0.0477480081076143
0.0475017255476277
0.0475792337656644
0.0479682728518593
0.0467918850384562
0.0464012376005421
0.0476698220893763
0.0477025877275788
0.0479250202386919
0.0491687970311865
0.0476282375233923
0.046778612882303
0.046715705028012
0.0472401819382987
0.0446827356700348
0.0434528586310872
0.0443266808648572
0.0446905801318155
0.0450230005843184
0.0454980715020751
0.0406863658298121
0.0421683884294645
0.0440833147284373
0.0460289604331593
0.0441430305667551
0.0469081312976575
0.0406947465450934
0.0369250653652974
0.0416591991434006
0.0461863119885162
0.0409634306822941
0.0384575593577039
0.0395661027713781
0.0365229629324646
0.0390880730654313
0.0479127591358058
0.0371262798177202
0.0397942791766823
0.041516618046447
0.044942774664769
0.0388726935187077
0.0409367041042187
0.0469248693781205
0.0463809993272472
0.0478216470904883
0.0473623582394394
0.0404775130280745
0.0373004244711599
0.0392902137085552
0.0412558860604769
0.0346981617809894
0.0429393715681293
0.0459871602079442
0.0418889411441349
0.0378461185955196
0.043053741826453
0.0385234154351151
0.0386489832648047
0.036381599123245
0.0433991182877187
0.0424728928439817
0.050728138368829
0.0438658470866002
0.0470692316023029
0.0308336393468399
0.0377456702994821
0.0324392903632297
0.0495034742192959
0.0428088412008165
0.0502132778344994
0.0260830746795761
0.0489726204044855
0.0379651925010452
0.0582211408414425
0.028103665671356
0.0464318111634756
0.0394357850838357
0.0539787287280005
0.0326331702728472
0.049281737095639
0.0403607939523119
0.043913459692823
0.0382893421226151
0.0445654239183588
0.0417486116031983
0.0445076293820097
0.0466438674831813
0.0419222971159319
0.0429170814278614
0.0426261431203035
0.0424887325620979
0.04402748377153
0.0409121921827956
0.0441114307651995
0.0413434874356333
0.0435114177535473
0.0405429412660509
0.040274433356221
0.0397925835506809
0.0409434474159038
0.0392333122728157
0.0414767094516047
0.0388956393034326
0.0417276176607743
0.0400127314404559
0.0429321561489057
0.0394624270460011
0.0416735709190462
0.0398494924886416
0.040537017890535
0.0390183100644331
0.0402517528301599
0.0395390614843251
0.0425918611961656
0.0406722400316091
0.0419703933677814
0.0389685655063625
0.042699838194146
0.0403905692884415
0.0416797955534038
0.0387732644519166
0.041152018308793
0.0399900759492821
0.0434991100246162
0.041832177391258
0.0426059685636256
0.0424949707618982
0.0418748162183568
0.0394592040866464
0.042124488477201
0.0399809618086801
0.0437199304267833
0.0430115900267465
0.0414048337817757
0.0383978966505754
0.0429304011509837
0.0415119098356201
0.0433990070775101
0.0405932452652615
0.041960340609686
0.0402906214017864
0.0397623863388568
0.0387277193426012
0.0427653187724788
0.0421430771197024
0.0419372401047856
0.042769174064876
0.0421557864249864
0.0381388753564826
0.0388067705856223
0.0399013398252203
0.0429886957489387
0.039327386994031
0.0413980855439216
0.0425331886033408
0.0434779493295498
0.0396297998376839
0.0419473343804202
0.0394560532323453
0.0413534538059885
0.0395006630980824
0.0408499474324322
0.039641153447562
0.0420351198176165
0.0409680826445538
0.0409295756976904
0.037398912694376
0.0411603264178608
0.0404835602894602
0.0419763011688698
0.0400086232980149
0.0421390538915058
0.0400713692722668
0.0423682033152193
0.0411289004157407
0.0408188528952583
0.04114635669675
0.0424717688900679
0.0385956765690024
0.0412160611149574
0.0398454690454713
0.041881606174128
0.0402631538688663
0.040841960694741
0.0414874834258873
0.0442201668154809
0.041259871687096
0.0422248693987351
0.0410267286302668
0.0421654396532746
0.0412564584259577
0.0450765513110897
0.0403191982903175
0.0445929217754288
0.0436796316706328
0.0435578716153658
0.0412089636633778
0.0434643329239692
0.0407894484279521
0.0428246647394139
0.0409418546257904
0.0423185251919436
0.0410385959332112
0.0437998864586842
0.0432559942672872
0.0444758476386158
0.0415932650019274
0.0433703091953927
0.0406523430846949
0.0433716507086268
0.0405375368070451
0.0434058748411513
0.0419440392787155
0.0450068831580884
0.041907247082992
0.0412607047729004
0.0426119320651812
0.0445309507064495
0.0419684310356563
0.0420472435801053
0.0402704487801333
0.0433607462514681
0.0428706016774243
0.0452474530260697
0.0418119952161051
0.0445383622942957
0.0434366019262584
0.0449142151414074
0.042410614358864
0.0434842023624
0.0449380866494381
0.0441582462255102
0.0415139875100547
0.0451156937195
0.0417722550139228
0.044142512539208
0.0420064503046693
0.0446860429174174
0.0420174783848242
0.0460699023172843
0.0440545931669273
0.044886644303291
0.0437256489574775
0.046328778662263
0.0429716138071082
0.0432842611229374
0.0449380728474272
0.0478130783861352
0.0446319157159826
0.0458089909245571
0.0440763307612308
0.0470011871047737
0.0432725622337243
0.0443680565283717
0.0426558431308605
0.045927911434206
0.0451526908140733
0.0458500538837288
0.0447884207013767
0.0455978428051746
0.0447249999046208
0.0465878396263712
0.0446754745133711
0.0447328222116088
0.0450218281846101
0.0467569404597203
0.0432900520384078
0.0475420152294965
0.0445162287359605
0.0454102198812853
0.0446260609620116
0.0436778294207857
0.0441405822266248
0.0475933705768977
0.0438212790961697
0.0451219573473235
0.041174251162332
0.0437490870246454
0.0418662360649459
0.0472804013258004
0.0444931674978064
0.0466853995879744
0.042551025201369
0.0439545576153814
0.0420409119279678
0.0430175184000918
0.0413944922752918
0.0427481019446119
0.0408686045840391
0.0415757453786996
0.0417091312475539
0.0443885693650658
0.0418970926096873
0.0469290590768566
0.0421034006680192
0.0423631654790553
0.0440233902066613
0.0447458418845706
0.0413579003589227
0.0426257992607765
0.0401328873361835
0.0429191759631528
0.0424899256555408
0.0441128422000984
0.0412359649413312
0.0434454531021181
0.0414656592644234
0.0436703989662969
0.0397762859633383
0.0438766235797869
0.0415782564410956
0.0419092679312976
0.041104649588374
0.042096646831161
0.0398599505284449
0.0425558100606418
0.0384376895410857
0.0439123068158094
0.0414979971048824
0.0428091588126577
0.0405970343034955
0.0430456037332716
0.0409911091719937
0.04293337057899
0.0395689743868393
0.0437141939757254
0.0396809946084641
0.0427942301963286
0.0411417526726999
0.0423508550881748
0.0404536505566769
0.0420041803413263
0.0390203186686545
0.0425517187999167
0.0378099583773807
0.0423693898037696
0.0396262990539525
0.0408551492906124
0.0399218306517426
0.0418837766660963
0.0395097294319981
0.0422207941122395
0.0392637435978294
0.0417350212856479
0.0371939718416963
0.0391733595495612
0.0379981055631825
0.0400984111837839
0.0408680630136044
0.0399137352826763
0.0415506126790705
0.0421339678455236
0.0380963014561405
0.0409526631212285
0.0404355521219038
0.0407123495838634
0.0381077509930354
0.042239423228155
0.039149551320718
0.0416111589012679
0.0384176440760172
0.0406177811152235
0.0395606610036519
0.0406229639918481
0.0381896032863424
0.04135765769676
0.038939287451497
0.0426978697253559
0.0400883156911613
0.041328034651886
0.0378996826511006
0.0408866260689267
0.0382279097660718
0.0407634619429661
0.0378632868880245
0.0399926028703222
0.0382145605926623
0.0420578979979192
0.0390107942046906
0.0422322741440962
0.0386467162853159
0.0411776158732407
0.0356557613619268
0.0395399239803592
0.0380777866020718
0.039805684557537
0.037598635970207
0.037925421988811
0.035280444708013
0.0385359337279938
0.0351358600263079
0.0380370122132306
0.0347858333517636
0.0401319954846064
0.0368120889286472
0.0396304522361689
0.0368177032255461
0.0379965694665048
0.0361837696125124
0.0377769220822449
0.0374863920560313
0.0386197982230209
0.0399109245561698
0.0364444670923887
0.0355941723205784
0.0367719917218879
0.0347880108583737
0.0352821566880057
0.034589140946724
0.0381501365905475
0.0350823713266397
0.0363119881038158
0.0345250730337317
0.0371527911557857
0.0346262814875715
0.0351190232432898
0.0344031953994772
0.0357576947390885
0.0365125636062812
0.0350907106601842
0.033619331578383
0.035335273165594
0.0330915696339524
0.0344181369687818
0.0337200288257777
0.0351535807802304
0.0335047790802668
0.0329256452337427
0.0338847187517916
0.0385210692349746
0.0335889358520231
0.0353702499611552
0.0303306358360101
0.0368122768145684
0.0323068336149063
0.0359512525667859
0.0304084098826264
0.0368715178255093
0.0340040674937812
0.0361819576219287
0.0326340418314549
0.033741116635884
0.0314694341000716
0.0352835492933685
0.0319467483030927
0.0347772585393651
0.0339776353500703
0.0347062580259058
0.0320686889376963
0.0341227521678162
0.0307950633460715
0.0325917575656312
0.0327514998415455
0.0338543552233782
0.0306466579480017
0.0391218002895626
0.0322836551309461
0.0330148181021423
0.0306639540236458
0.0348857222072396
0.0305044284404604
0.0334841884504388
0.0295876292124476
0.0314982589988709
0.0302534777789786
0.0333077836964792
0.0300123845061608
0.0343512738713907
0.0326693654733494
0.0342042999135639
0.0284446570732926
0.0318870927252185
0.0292251223491953
0.0346893360541627
0.0268008879879741
0.0334669739963147
0.0285100956527005
0.0342108976365661
0.0284046954726923
0.0361028033366678
0.0286926068586651
0.0304297116006741
0.0399065632681811
0.0344729468424365
0.0318312489407766
0.0297500999957738
0.0298183218522199
0.0313259267459416
0.0301564772009684
0.0299488559073108
0.0300375319878126
0.0299294898979706
0.0294939153121204
0.0304804816115128
0.0295109589910342
0.029160483014154
0.0294290374534916
0.0311165518154066
0.0295404995140548
0.0290106394485279
0.0315705527487297
0.0288541569094595
0.0292403010904467
0.041463450688664
0.0315348439381873
0.0318290315642673
0.0317199834413919
0.0213671176453257
0.0420150136660483
0.0318928718641251
0.0326000858961922
0.0309835387507489
0.0316396356834668
0.0295175963319278
0.0308262968833964
0.0299921952998572
0.0281330023335026
0.036535911372557
0.0291821613535225
0.0338127745938105
0.0284399879845883
0.0327135612042206
0.028426593322092
0.0305107318358429
0.0278956174423971
0.0314908426161481
0.0308577175356103
0.0308126306673517
0.0284608347773661
0.0291391184865337
0.0314310255457366
0.0265735605450122
0.0280399238924878
0.0340786085358194
0.0288945328574306
0.0306790029808
0.0319127510569169
0.0255825071395562
0.0254409618144057
0.0420308374328422
0.0261935899446365
0.0349165794542407
0.0256721511598572
0.0336907550137499
0.0274271832208768
0.0363726029058764
0.0259056263454669
0.0307835426394548
0.0273503245426804
0.0326994878556575
0.0272768411701537
0.032555597625979
0.0284693869701116
0.0306319071851453
0.0299868793870752
0.0308388540728253
0.0289510064711859
0.0292123148797789
0.0318325952873063
0.0235321459492526
0.0293428136692056
0.0409077063777213
0.0369217577514966
0.0362535006574667
0.0342233784496211
0.0325390630685809
0.0302298496734227
0.0310282583859737
0.027283801921875
0.0368517745443508
0.0261153745328233
0.0318918124815926
0.0281800419942433
0.0322709656457979
0.0265801395569006
0.033040396691134
0.0244194346800574
0.0344412327317838
0.024361260701656
0.0332172028306594
0.0226990245068358
0.0358022992721825
0.0232317260244043
0.0400895667507277
0.0282628150971389
0.0423672943359425
0.0074231749804301
0.0499730233245178
0.0447401009060754
0.0326867252159334
0.0347992523066648
0.0272590001761707
0.0293859557699559
0.0293798992250802
0.0261107314652288
0.030510388247471
0.0296056868737934
0.030759179497453
0.0283256550324667
0.0315682775427865
0.0323196437169502
0.0253431234809697
0.022085555490416
0.0508346202617277
0.0342413012160536
0.04124334072242
0.0271138808619634
0.0258699182432959
0.0478788619116123
0.0302359839742664
0.0368462442258648
0.0319996319049897
0.0332850011760107
0.031069407205625
0.032588337937044
0.0282402798526353
0.030981632387389
0.0341526855894253
0.0277267343137927
0.0358857285970603
0.0264953864052439
0.0365053969751221
0.0285674641749762
0.0386379682022389
0.0392313166670984
0.0280977130909769
0.0340881061024768
0.0337447258903134
0.0310124646903139
0.0336362407231952
0.0313852862724123
0.0301490548899385
0.0355225145228975
0.0443145715339309
0.0299447751515605
0.0431200649404276
0.0401992143279386
0.0285188702926869
0.0367002946938777
0.0320245486455594
0.0451623990508248
0.022682703775021
0.031056786114563
0.0540954936617493
0.0324917953139022
0.0593308012742503
0.0249173812826412
0.0427872550944061
0.0250884409026819
0.0441032732754097
0.0182607718448332
0.0610943623869975
0.0214531887482972
0.046707614195569
0.0224522403154361
0.0494396932570762
0.0401254038556301
0.040520594918083
0.0360018919419858
0.0387741130567838
0.0265588621823725
0.0494994889118284
0.0359770865229965
0.0206422740375719
0.0490822737200571
0.0569215840053873
0.0555631073460996
0.0434584275169339
0.0190119737912275
0.0726260290942516
0.0353137893262233
0.0492295844999878
0.0292239168832934
0.0473970905467435
0.0318522388613957
0.0310738547071007
0.0562148780406982
0.0419865634601125
0.0361375995610093
0.0505040341315764
0.0220529408300407
0.055326156688378
0.0428469878803759
0.0474086183823016
0.031969729222262
0.0522389592549446
0.0154424998467045
0.0919503867382984
0.0445575795986217
0.0532633913263606
0.0565409915191055
0.051676162694151
0.0506348110746821
0.0467963374427203
0.0462770075861662
0.0494559467536118
0.0571462089953819
0.0532352565428357
0.0333113958859738
0.050213551313415
0.0742350744076801
0.0410020889866447
0.0600109901816084
0.0431564434891354
0.036108973013627
0.0660597807467617
0.086764669638904
0.0754507017992354
0.0577373282337796
0.0486647988409235
0.0763478146846664
0.0570701839236782
0.0555197435547092
0.0578411321471223
0.0560727375835425
0.0606171227760941
0.0465929317681911
0.0704047486635915
0.0583210305530508
0.0615478466078303
0.0590534328122776
0.0515815625021323
0.056347560143923
0.0819941252789038
0.104222878428228
0.0507999688791945
0.105621566497029
0.0765890720257475
0.0771424127445304
0.0684958655997933
0.0638522539191645
0.0773314873714634
0.0744089281241955
0.0772288862654956
0.0595573175732506
0.0963864329816832
0.0853589833133676
0.0724411619579145
0.0975295959497197
0.0743045141828936
0.0923355522168223
0.0126946278880571
0.257186798466145
0.0841761018338644
0.116346754345295
0.0865626089698757
0.0840781467975661
0.173503702354706
0.110120867270009
0.10956693682021
0.112865255651334
0.110631089919531
0.119950844675485
0.127404475793153
0.127583693506491
0.138124632470586
0.143085202536071
0.121170571962527
0.144943654753301
0.182257876388712
0.184274858475032
0.176334953884635
0.149448107208209
0.173109285302466
0.177891321051961
0.166686261144679
0.184326402096559
0.173382780302583
0.157957409717793
0.250140565061085
0.1890586104662
0.211958364683683
0.183178284658637
0.25944604389807
0.171783113810475
0.276360583652099
0.231883796820763
0.242804086377449
0.228406527790097
0.240821184644403
0.250798226519038
0.22489297906177
0.271801641040182
0.2670733618414
0.262678353783941
0.265106084450269
0.262770990003483
0.280924150663027
0.268743091433851
0.287250597080618
0.256925594720597
0.318765439806271
0.238589738644107
0.445308691497603
0.306841962363875
0.292590144965361
0.292783697924047
0.278500478461387
0.318413499890504
0.28345142758815
0.32546327654848
0.319473444518419
0.282779980535415
0.297656018723943
0.279852652170374
0.304589008429048
0.282398976481055
0.311778216167996
0.263782689379455
0.336256264991673
0.277602734457503
0.307621376240557
0.35638720544631
0.30222351456946
0.297763580100337
0.291094077664215
0.290846328753648
0.298242752649948
0.28328336288519
0.28445645048118
0.323879435067482
0.278753861102161
0.29526626438084
0.260673141572909
0.291601709213743
0.294126202207628
0.267046162967556
0.278339034726425
0.255407199688792
0.278928639575828
0.250657458985098
0.240580031288613
0.310988814800593
0.252050492721716
0.262491895420405
0.242750451538101
0.24583747956943
0.242152083309637
0.244681793941532
0.24030134292323
0.247512825972096
0.234862900246974
0.252016055894054
0.235254422837878
0.240981450615
0.227333333775323
0.236899907879406
0.22808796833506
0.231813736954244
0.228911936558359
0.225731881755834
0.2338398712957
0.222691758687027
0.230004318481018
0.226292398538779
0.228313070192941
0.227652398970387
0.224942216507651
0.228628855631682
0.222331668118932
0.221718183755654
0.22824608975074
0.224208761871024
0.224664620111915
0.223177543410236
0.220716973836698
0.223477156478152
0.226455712303792
0.21949088506229
0.221825807189554
0.214815923610203
0.224759942896121
0.212213135011804
0.234086833219878
0.177282546730407
0.268823359391535
0.238465685889187
0.215547954654455
0.225728120831245
0.20903381322283
0.221558396882758
0.186457843593659
0.239444806463905
0.225205519606544
0.209608381100737
0.210328527842041
0.200076572324868
0.208561235288084
0.222950402555283
0.188802584357699
0.220607177465702
0.169678996735853
0.224840509230444
0.229112473239809
0.204208647039904
0.269054801955896
0.20960425436187
0.202736062147347
0.180908541497072
0.245538538974279
0.185774785186932
0.220138673258979
0.173230697994168
0.23969213991055
0.206241540503039
0.19183468978024
0.200085300287059
0.183683480767333
0.199293761364661
0.220916840226359
0.191437341194672
0.190286770833892
0.226868260181685
0.182626740771129
0.210785057067179
0.225876128852038
0.2214175254381
0.181078024859554
0.185873428766963
0.183481368037668
0.156594404674171
0.240095291893271
0.170943097977198
0.192188303973168
0.173674174448886
0.168336109375662
0.170351807695593
0.17512215756399
0.180739714446062
0.15124556177142
0.220862339371038
0.141956270730327
0.184090077247228
0.161413265116694
0.188068393981036
0.192617828806659
0.176530351712182
0.151072246191479
0.166454535448883
0.191637588788261
0.146297764249991
0.174721297990427
0.14806406993963
0.144801482538955
0.176877664419633
0.139368847711069
0.156419681030674
0.157041352994238
0.136943685985296
0.189686875256009
0.169982292245415
0.19194479457895
0.156015070966865
0.137913691652602
0.140793844524799
0.136627760153104
0.151879485622391
0.114623060823254
0.160193793602278
0.154399635617561
0.105152589563456
0.192453639394764
0.139077248737212
0.14257613744277
0.142221058537396
0.13836303651139
0.137270405133863
0.144956143264588
0.168632765029696
0.155755683818287
0.145091058709382
0.177347403425729
0.143167309689414
0.164104498219817
0.147660377568081
0.16667133119963
0.152527591458228
0.175354008641177
0.163850862015626
0.169575777934993
0.169431436904156
0.17478772555181
0.164372124334931
0.224108133726925
0.15552090985662
0.234919586049118
0.179537629352174
0.254535371040737
0.21395889148398
0.205735932184803
0.211242515227573
0.210896616478702
0.215554918289054
0.21534684776281
0.207367509201537
0.269155376747378
0.213106347010083
0.243227421024096
0.215732625223018
0.245146165558971
0.216462055091245
0.271267287010971
0.228678153058412
0.284505569683248
0.287628031281843
0.25260279231193
0.263488426119542
0.24079210573852
0.261837844578996
0.256207426822617
0.253172268668991
0.257125429425452
0.23962272052577
0.281082405092415
0.257708091453084
0.260610106147374
0.262137067068034
0.26962600700551
0.266112755332624
0.267128872261313
0.270981551353797
0.272517284133518
0.26790208490852
0.282324053936223
0.242619540964755
0.358948649098906
0.290071398134291
0.288835898455721
0.284609514935563
0.290644529165568
0.291951479614366
0.285613200603224
0.299245426172899
0.303142725709338
0.293655211911561
0.302864016178534
0.295828538508615
0.313131540517107
0.289594696978964
0.338404626594741
0.296760206137016
0.327507709619226
0.295697148949211
0.319227129234119
0.36591107618047
0.316578744614288
0.342560617992425
0.31466549748207
0.328295152909924
0.315373240273017
0.326465053311492
0.320332045250334
0.329011624468155
0.324753457356196
0.33334439110439
0.325187062596506
0.322994221023247
0.328321902396032
0.316875620219009
0.347984674358044
0.326211341551046
0.32758849395092
0.320209902246492
0.325892172002412
0.315506042947814
0.341926552598662
0.337919862369885
0.317682885104296
0.332455633903099
0.323867212453771
0.338089231915902
0.340639051051477
0.31863413193839
0.327818598408049
0.31888521959106
0.322167575708402
0.325947946285705
0.323705171684441
0.359270033226031
0.325179895456236
0.339106302334086
0.324816539900542
0.331815637849564
0.328185088719176
0.338122140297951
0.329993559231728
0.343134651246216
0.33567061340508
0.341681419138783
0.340289212180387
0.341650723376957
0.343838969029786
0.351999128496125
0.350726337209796
0.340480910006967
0.338211644424381
0.33646231343651
0.331971110014442
0.340100253143929
0.332101317230787
0.333539820596319
0.323821728632945
0.328675349439818
0.307612319842264
0.349691075687084
0.311963112149443
0.324011198356055
0.315247793924514
0.304441487928817
0.30556612313808
0.302352402181129
0.302280380124794
0.297352730714433
0.306861966436479
0.295101404216089
0.294384792247794
0.294266499720144
0.29255805027926
0.288585332913107
0.288689457976694
0.287903372900126
0.28733979595663
0.293808213973061
0.286205231324553
0.287028869435606
0.284928129783851
0.294095846269628
0.282784780946052
0.293368349908489
0.298125932762405
0.295820190949447
0.29251459099474
0.286093635998791
0.296096243671984
0.281085807840482
0.290258564343842
0.281253477124967
0.290006449552425
0.277995936690723
0.285701906090242
0.281869952338883
0.285705261472819
0.283212644894939
0.28487909636658
0.28160776006097
0.28715224235564
0.281016468850475
0.283831579097567
0.280942770809647
0.288700069022414
0.278967740350907
0.285723361736136
0.285200578145713
0.283385749463018
0.285837353746866
0.280011074976869
0.28683993210718
0.283739436352983
0.287065546457762
0.285833283772167
0.281032449204403
0.285303950130499
0.28345201292025
0.284457920552712
0.285036621893421
0.280151688532531
0.279274866842758
0.280436655555229
0.279067388343227
0.278264233173449
0.271591183816052
0.272959367047188
0.270689167181455
0.269427297636424
0.264381856004947
0.263807606528364
0.264723246905955
0.258142279071206
0.25564397899003
0.253901351273094
0.25389708388868
0.252092496279879
0.249333360051762
0.246481592247496
0.248826131349427
0.247754787611129
0.244969566785496
0.24458598008705
0.242879995173652
0.243050689550339
0.243148222716686
0.241034103260695
0.242857433335568
0.239268160775488
0.240636748962072
0.243327192755106
0.24432720769142
0.241125312274182
0.245193118998035
0.243263206161982
0.242718395056822
0.24408194047689
0.247203236888544
0.249540975848122
0.248493271949456
0.249864887007628
0.252231471498686
0.254951228361454
0.256551762067757
0.2563462368358
0.257759877777605
0.255466545075236
0.255602340067895
0.258033989972912
0.257622407072737
0.260075847159287
0.257838359152493
0.260296288907903
0.261016772636558
0.259857196905527
0.259438236457189
0.260774286813184
0.258242902087444
0.25942493626515
0.25493315334088
0.257216208165315
0.254249696354969
0.2543334843753
0.253900726064158
0.25406764122085
0.252515526890127
0.251753532804814
0.251092647713082
0.251654940523981
0.249987627793689
0.248478581248417
0.248324252545273
0.246283112895112
0.244064828190837
0.245830812243114
0.245744717058132
0.242512886168201
0.243075026652576
0.241314448232475
0.239214960832938
0.238999585678636
0.239902820145742
0.237838069305402
0.236819176048923
0.237458070110976
0.236450055978675
0.234365089760699
0.23503793252445
0.236239695681728
0.232867186198607
0.23335314760097
0.232496344159686
0.231900536991334
0.230153164086646
0.230374548382461
0.225224575643141
0.223343203916919
0.222961179490235
0.223495351668645
0.219735762078863
0.217674133979191
0.216485908348539
0.216906975323311
0.214344416285879
0.209778072635349
0.209430276415579
0.210068101734343
0.208161119425949
0.206330711013232
0.206122705645275
0.205956203070312
0.20568731714616
0.205984045099895
0.205330249197202
0.205766453656782
0.204288848207743
0.201754243738476
0.202021534548956
0.200224197284236
0.198142982351246
0.19511119532016
0.193135734613474
0.192260368220907
0.189507018926495
0.187715224890189
0.185983823956016
0.182276555449042
0.181031036036086
0.180287841512686
0.180109390664269
0.183365465662237
0.184091184312512
0.185143436300951
0.190377894993893
0.194991523786286
0.199179340033431
0.204352630554128
0.211086159367106
0.217254654790849
0.226027849024665
0.23690815651599
0.244724147116614
0.256603874529583
0.264250261333638
0.272446701102383
0.28496572905632
0.295663857915272
0.302247758685357
0.311942121975769
0.322570384597855
0.3293618023962
0.338707185761971
0.349999946776927
0.356440337181555
0.363658769449179
0.371070989649644
0.3782630984736
0.384298924079012
0.390412513435002
0.39420655152013
0.398888979346571
0.404993353261153
0.411188270766257
0.41332364987076
0.419499545267443
0.421090056807541
0.422077838396815
0.427239075384842
0.42484980876507
0.427102050043004
0.426727399425125
0.4287127343686
0.429725173378265
0.430996619094352
0.427105330153973
0.431962394125143
0.438390063207413
0.433772676876216
0.436316357011286
0.437781654539293
0.437799380355743
0.444170078710092
0.444030452171492
0.444889892743143
0.451042453910444
0.456340944387325
0.461525121646829
0.460807620473662
0.468827816437006
0.471857682071605
0.475180480122534
0.484681261677715
0.487188707703151
0.49056977058173
0.503423660799339
0.50968614173453
0.519331426713381
0.519694662838409
0.530765736086764
0.535975625240871
0.54181218992901
0.547285224041771
0.553097943682253
0.560550333535147
0.56279862503173
0.560872377402116
0.566053972493265
0.563573848073321
0.557863385266262
0.558764798732631
0.557887128056876
0.559722269870199
0.554203925849174
0.547757664603563
0.547171264881233
0.553233006341782
0.556521818572844
0.559640541146373
0.563317806599726
0.573599425329415
0.584133091142062
0.590535925787157
0.598432763368704
0.607404612909965
0.614726626513263
0.627588711332667
0.634062806533261
0.645889084223669
0.659933823925315
0.6746346734267
0.680157760622602
0.688911819169499
0.697927868402668
0.706389141768649
0.717905475138418
0.729104353504859
0.744458285020801
0.747154988913995
0.761718185830887
0.77773286809325
0.783431685247411
0.803428490066144
0.821313969111543
0.83172733498656
0.836597861773162
0.863523200604425
0.871403424087734
0.884539789337056
0.893614085545358
0.905795211270389
0.921033180001373
0.920122653016596
0.930430059292189
0.948451715042618
0.952506485944885
0.959286709625975
0.965786251996832
0.964664463185046
0.966659402409036
0.964461352289581
0.956637662190888
0.964605103258123
0.958659511719496
0.954982250966605
0.945137206410329
0.953702799436638
0.951359255820365
0.936054035923456
0.948849328254958
0.956542517129474
0.948054468416819
0.956254121480129
0.954744329609827
0.961929209169818
0.989126632402179
0.970474244094722
0.988009317483123
1.01349683351655
1.00894403095882
1.04409463274518
1.04327101466629
1.05230326249103
1.05544013046661
1.05754819595898
1.07480215218904
1.07899269662807
1.0768805486007
1.10474328083648
1.10811632801511
1.08410073870959
1.08779279559822
1.10727160324625
1.11404088164113
1.1278141366337
1.14921773548605
1.14052119222011
1.12217062801778
1.17173846200993
1.17598552474834
1.13552114041937
1.16136408216763
1.17694179155333
1.1436953417899
1.14683529133493
1.16179269761791
1.15789241912896
1.18159651625147
1.18140300738126
1.18313207112252
1.17313683818031
1.16044410184471
1.15920386391104
1.13815944943109
1.11999392898321
1.10388061303706
1.06176771641442
1.0358666099392
1.01350379962404
0.970511952418304
0.935756493933768
0.88331062573174
0.843450344204475
0.810859203630866
0.78896582247776
0.758926655902151
0.736932073142561
0.708466317180908
0.702915536564811
0.696488945195401
0.686166864455198
0.665925694423409
0.665345154466597
0.666138245789218
0.661008349946189
0.652884752923019
0.642651500489305
0.632609195501829
0.628686990159577
0.620256160462128
0.610984313962854
0.59967313315194
0.591342486177505
0.577237265133261
0.563116573737776
0.546344201718131
0.532562900372602
0.509470846066953
0.495467078089448
0.481035794412306
0.463574643552764
0.445514423218013
0.426863034475311
0.407435115862096
0.390608193737489
0.368684335237673
0.353063373072048
0.327882167117038
0.314186626659547
0.300732674467755
0.283340307966302
0.266117047065877
0.255104920393998
0.243402473144283
0.236250671715649
0.227138930964282
0.213551365805453
0.2076768280157
0.205303823688171
0.199926230736742
0.197956747240893
0.191648201697285
0.190468094303656
0.185032472310233
0.186534580045021
0.181182980005756
0.181053264935623
0.18543397527999
0.182495668483905
0.17955240210292
0.184971717632244
0.186634029988134
0.18365468817215
0.185393305132237
0.187658151229954
0.185700161668874
0.187803821964723
0.188928389926174
0.191257077819445
0.189917668500429
0.188564333175058
0.185906675403447
0.18278368460442
0.181622822967979
0.183326051542002
0.175759822248709
0.179855599411584
0.177305518666239
0.170480039995711
0.169027872069266
0.173040186971729
0.169277300189354
0.171369843687724
0.171527370168816
0.171715998313632
0.174334278265074
0.17554019225289
0.175980941227742
0.180937616755821
0.182800047868779
0.17989829283927
0.181434197544334
0.184691386982958
0.187644726697661
0.191453695879411
0.190204643415894
0.197433517621833
0.194840172460528
0.197529068454441
0.191816767152826
0.197324615291582
0.200652430767963
0.197511073074562
0.200181605650762
0.195194972812273
0.198296980976802
0.204437896652399
0.208466297763485
0.2127882268635
0.206973603466285
0.214414567505049
0.212976436156442
0.216820300900547
0.225892442450952
0.224175197829631
0.228208296021184
0.24368104103255
0.251220065107918
0.254486191763116
0.261124075595683
0.269224702715697
0.277307829282841
0.284386520183229
0.286453471419883
0.290477102873865
0.288251764406319
0.293228269784554
0.28688781163257
0.283534670617963
0.272382331871824
0.270006743253713
0.268230756340054
0.258168778207883
0.254664004720061
0.25842764876265
0.255335926637978
0.252558579744087
0.254050982847395
0.2472523897915
0.249404956569988
0.249704879157125
0.252718916177244
0.256464230088746
0.249098557934173
0.257141082553162
0.244381817378257
0.247713574774604
0.24795629497502
0.243178898090062
0.237859455482531
0.240947367912964
0.234460343961354
0.22704666557628
0.220493858331731
0.224274646166341
0.216654436561286
0.219597944350683
0.215622149193854
0.213525605962576
0.213239908031575
0.212258145173218
0.209428058348578
0.215075915230488
0.211670649739138
0.208715136238931
0.202390452816615
0.205583417009557
0.20373169845708
0.205253402010098
0.201813775225233
0.200251365481789
0.198520923097722
0.192652347364498
0.18833166244804
0.204884747535108
0.196343503017516
0.19789388611354
0.188016256758032
0.192312069244368
0.18487675210913
0.18825621038745
0.177592250367995
0.178699819365864
0.181164733591529
0.187539145030817
0.188396754450013
0.187108141555827
0.180234975552195
0.182136721756398
0.188754020739873
0.181636332519019
0.18425266367973
0.181381904553356
0.177721068423243
0.181252456719936
0.179469809002437
0.176526166620227
0.18784498311834
0.177161111061493
0.180260265777745
0.188061324241066
0.182637390987181
0.186569861556458
0.175863174310284
0.186584298155717
0.191369003427136
0.186359138057626
0.195415256203521
0.194872980496038
0.190883938299978
0.196045114471285
0.193131815442349
0.202990598621195
0.201896234631707
0.203610406150091
0.212272540460099
0.213070848441351
0.206204776361792
0.218161371617472
0.220153663922949
0.220309360474268
0.221899204722047
0.234060842446567
0.230709267055977
0.233247229029791
0.244913265616941
0.243821168143647
0.25625835741011
0.26975091877538
0.258813226528927
0.282389788005964
0.283766817291172
0.290398616159652
0.301376821015645
0.312112790824141
0.312314782978871
0.329671705904427
0.319598499496329
0.348286505709132
0.35178721441634
0.33839256787364
0.35242847571828
0.350422016415046
0.332738843743338
0.365704583418096
0.364811852447991
0.344560328350672
0.342472516537486
0.352361689308183
0.345419811444409
0.335601152451357
0.338992981114587
0.354388066356288
0.352116653543368
0.340765680253698
0.328136072098489
0.334368338839022
0.331087200492455
0.343677250232276
0.315501386786456
0.315869029496154
0.307981713992182
0.314617557756334
0.309429171699267
0.3204795334716
0.308400843362325
0.301092042887999
0.306132289072012
0.301747411640019
0.283288403888574
0.282384930515578
0.287969508231694
0.308181904503391
0.314904893119209
0.303232748704813
0.29261107179866
0.285321699846352
0.299288837281778
0.29631916436135
0.271013144638025
0.283050583076223
0.291950676544337
0.297957039395257
0.315872995118042
0.311913406553385
0.297265058315997
0.295525456435263
0.284484680012552
0.305056746053364
0.309318905380941
0.297006608215397
0.313007020501345
0.295111057447194
0.304528651836405
0.335049947817969
0.309841140354513
0.307828637315581
0.309316549423755
0.312021617331489
0.307835805719924
0.300002008997103
0.328421560807526
0.334119058407573
0.306171195983447
0.342997761378549
0.295837484242719
0.300883628605307
0.326548483827976
0.31612221978984
0.320794202819367
0.374841091171642
0.357096778368033
0.368281231169279
0.376894809528875
0.338841140975426
0.333228702352722
0.363645701447913
0.360621968584844
0.406498946146138
0.378838846158695
0.408632641862817
0.399152834434538
0.427893913585657
0.411811549853297
0.450372759485497
0.434970551049627
0.435999271620256
0.459043425319257
0.423743830067629
0.401984771671519
0.417039413016385
0.457525413096369
0.435972587746616
0.444107780032262
0.434493914124872
0.402373751236352
0.393947626148573
0.424695502365036
0.353732150550658
0.397259104194733
0.451817766708985
0.361680199301692
0.390160186598002
0.379505701779239
0.408889977299171
0.357618185662072
0.404152904700164
0.41563264075617
0.418996604769051
0.439958027329587
0.436443810502883
0.414179330856108
0.370065705122866
0.475920316917944
0.403387708955946
0.36041744513363
0.362193328266172
0.38572048292695
0.421476335855352
0.385865941130137
0.531242630756194
0.372190717840829
0.393441743084804
0.533512752868982
0.322993471145844
0.352485095424585
0.548395026890264
0.538671911215818
0.30950993655183
0.357714657639343
0.479470704110646
0.539746045517024
0.40324356002449
0.363168091373326
0.452015434840122
0.53380588789834
0.523965311300184
0.468521497954853
0.490701517541145
0.837366618735345
0.468855358354816
0.232930117877376
0.397720382655815
0.546618942782992
0.545260155232092
0.709410353752695
