3596
4000.36533379555
650.420452594757
1
2
2
0.0697384281535399
0.0607998462712193
0.0781256180984047
0.0691500372188059
0.0768165425167739
0.0603551312540494
0.0713106671952645
0.0615599327884805
0.0678197103964198
0.0575565269239173
0.0706839089046187
0.0541719769849591
0.0622206231259664
0.0595266031064653
0.0703031118282235
0.0640934045011995
0.0682593287755433
0.0572241234292229
0.0759929176875465
0.0584049508066009
0.0754631250720368
0.0602070092595031
0.0671569620136862
0.0515429969906311
0.062366151936332
0.0650963594744202
0.0735017873985024
0.0602393443164971
0.0616734415924926
0.0573315970525488
0.0718322978829545
0.060621168460167
0.0685184483310086
0.057565765760308
0.0715181533632229
0.0586982809918682
0.0699103098642776
0.0587706863665426
0.0674199992395638
0.0589357057670287
0.0756591540836032
0.0635764272374053
0.0686470118057642
0.0579597588630696
0.0723980353883459
0.0613016532021129
0.0722508839127729
0.0640403117304269
0.0706058099011787
0.0609517982110666
0.0692261188630877
0.0540626827318054
0.067733911972112
0.0661661370400002
0.0630553264407726
0.0638805113011633
0.078007067441277
0.0577297299860991
0.0693963048270549
0.0552815440723552
0.0710626470111797
0.0715349978171874
0.0735716367981396
0.0560134483082777
0.0642095198732219
0.0559197413497461
0.0796839184311219
0.0534976020840548
0.0678278420323497
0.0541558079905661
0.0634153297377374
0.0583877100431272
0.0812713437921411
0.0665747812330384
0.074218535707252
0.0606904407186256
0.0706237569581591
0.0541043807049059
0.0608349124980697
0.0575370592325397
0.0821334815862332
0.068902424778154
0.0634537689185638
0.0482413743359484
0.0698676883592831
0.0676577076366659
0.0680151821410129
0.0495522399677535
0.0868681748608384
0.0659411544227666
0.0656621711643604
0.0547528357099101
0.0621958624660202
0.0557283276368053
0.057175112273673
0.053597549426987
0.0660230283671617
0.0534831293367687
0.0682936627450489
0.062410797866539
0.0580059947468485
0.0554781719632107
0.0728163224075597
0.0659199194099128
0.0913942247363751
0.0686797978564574
0.056962581749103
0.079619219574828
0.0880814786446334
0.0617674095148213
0.0712085419208034
0.0488599447400026
0.0678061433751645
0.0518466137139613
0.0572932013104566
0.0589791684327995
0.0932600500717713
0.0558962706623051
0.0607883367951622
0.0534542975217752
0.0463052762463127
0.0605431772667626
0.0957655873011234
0.0564770521715628
0.068104233825671
0.0488585455681415
0.0473794840482972
0.0650162248877225
0.0852233394598981
0.0617380760334756
0.05959764837303
0.0528235780688954
0.0462654600015091
0.0496402512655747
0.0872230239762806
0.0645916300014862
0.0550839994010784
0.0385963289936362
0.0733031970911016
0.0923533242949336
0.0815747792711045
0.0613169383588656
0.0531453729344609
0.0475258717250911
0.0964118249413906
0.0604518549903552
0.058078903714769
0.069027475097905
0.0778750679832726
0.0601301499429007
0.057121194107641
0.0497747458630441
0.0761347767838117
0.0538698907299086
0.0334636330958284
0.0615324120247417
0.0958489122352836
0.0834437496170538
0.0915504982741135
0.0687733691698938
0.0613872323247648
0.0678017964326276
0.0571865860812506
0.0575999549891862
0.0519579388529969
0.0426421096345166
0.0556655204138896
0.0686133657990547
0.059751059888016
0.0531543956763828
0.0824937015608503
0.0507773207044754
0.0548744317070114
0.0809242929668587
0.0831411263407581
0.0408758774415016
0.0780491448769306
0.062031442006291
0.0493434778795915
0.0668357884553075
0.080187512148977
0.067244558458805
0.065461886942439
0.0566145324757965
0.0499956222748451
0.0674689613654949
0.0660935447579148
0.05727546581686
0.0595267996378658
0.041418165975958
0.0623500755782978
0.0995741454893078
0.0823014312687572
0.0626101151543791
0.0510650767803143
0.0390124061235986
0.0709711938219786
0.0963142457935802
0.061521849118239
0.0482174166578276
0.0557873235726247
0.0518794702507977
0.0541731968578614
0.0554523332165179
0.0509100761733806
0.038646610655983
0.078227208908065
0.0851261171302198
0.058455821252432
0.0561451928431062
0.0483755000595803
0.0412991927441827
0.0893730145268451
0.0917454798069193
0.0677442754108692
0.0602400470760624
0.0573166521792546
0.0606968161769551
0.0756210356386536
0.0570039631151936
0.0552768558968408
0.0497184660704789
0.0613190031633708
0.05391565084411
0.0582089368917186
0.0514396986389131
0.0624232470156888
0.0532481608593654
0.0583114740133902
0.0505391856968714
0.0715266918154459
0.0593867112865032
0.064148137542186
0.0549156437178151
0.0523854617433164
0.0572625588174264
0.0865301623957684
0.0651402921851326
0.0635098266471879
0.0583882311202057
0.0532336252741254
0.0574889827708196
0.0570773176054953
0.0642801742881363
0.0465336966711178
0.0579331315732472
0.0777314458910958
0.0785309270877095
0.0527971781432699
0.0456270575291182
0.0632574546992937
0.0652337402039551
0.0627798496338636
0.0566338782664372
0.062142846440364
0.0497754452451482
0.0542468678448943
0.071045084543573
0.0752493767719098
0.0488258497412587
0.068086786723988
0.0622547413667226
0.0642844260214238
0.0388200224716763
0.0462711612904185
0.0862046824800002
0.0776222152856176
0.0528895692843752
0.103018250423184
0.0782394569330808
0.07150846243529
0.0485544994007699
0.0492737392730148
0.112710395921388
0.123045722423703
0.0605341353058872
0.0623092595565256
0.0599046513547158
0.0700580232058653
0.0587480411896024
0.0599434824131016
0.0660678442071962
0.0638169368624557
0.10278617553301
0.0909352917684781
0.0505544701846973
0.0751333556317397
0.0899121867170805
0.0754496492614399
0.0636731225600251
0.0560913883769184
0.056083800707711
0.0745453771509112
0.071271510674871
0.0848734488591273
0.0566227918862571
0.071699745275688
0.0784960162513491
0.0827275411407678
0.0548635455222918
0.0740695060405525
0.0668361371677368
0.0815260332726899
0.0558993646139455
0.073127226701003
0.0661409299350603
0.0641854898544557
0.0591541975656751
0.100063361705267
0.0731509958757201
0.0793770516634022
0.0822573955688993
0.0793540293383695
0.0518771070397641
0.0706436534818204
0.0632834724949054
0.0778651684264335
0.047654229241126
0.0675527712066046
0.0752736735801559
0.0809220838452755
0.0603482276439973
0.0721156070250303
0.0653628907644268
0.0739013003185811
0.0621283365233692
0.0737487101099756
0.0679310884688625
0.0714414956850982
0.0532328170524797
0.0930838098987667
0.0791666776519978
0.0664884852378861
0.0832537003525114
0.115697358769909
0.0851035588672254
0.0799558654187983
0.0771724427684802
0.0744364020190809
0.0749340186134444
0.0843678227339037
0.0764063288537519
0.0827170564593715
0.0877513054017536
0.0916072809061611
0.0744502635653661
0.0757840802521892
0.122609438276884
0.136740668282869
0.114880936018493
0.0839380372692678
0.0713853273503678
0.114586553380767
0.0986910865448585
0.121641335146167
0.102598817146412
0.11192222544993
0.0855968143170842
0.108454206765262
0.0905914594594043
0.103973390282375
0.0962631211277143
0.109527571997953
0.09974688023474
0.114681749411087
0.106675008457564
0.104385033381147
0.110522544756079
0.149911832834347
0.125301444172056
0.123017617238213
0.110727777292215
0.118558481377838
0.120474164584921
0.150295205320872
0.153989266737599
0.146869249653774
0.155074803996987
0.155034818106084
0.138628650091228
0.136926387154541
0.134272468512571
0.143008324300619
0.140720984119114
0.146173595877678
0.139033988088967
0.146922509555995
0.147032504067412
0.155399114692824
0.147266993036292
0.145539312106505
0.161132673514891
0.174377394566069
0.159592374758127
0.160558117792226
0.145288623329639
0.17346773721113
0.203199951864879
0.215779342411644
0.1755010026589
0.183933291814526
0.172608235988671
0.192952701085225
0.179614857648706
0.191284764733826
0.183946977138978
0.201683150029026
0.210006826659375
0.21248964181051
0.211078525944309
0.214841681012099
0.192465709232214
0.223854780026936
0.208361683856849
0.228441744091814
0.233223666131085
0.220994462304476
0.213608356726782
0.25865467460905
0.219117164413806
0.257070552190851
0.248157697797357
0.252788786917721
0.218380210035154
0.253229498648018
0.239855009851602
0.271227058925321
0.256292455533185
0.267964439768377
0.255531807219229
0.27005004324178
0.257780356710137
0.281772072037106
0.290461827941463
0.28478833894652
0.275719577149766
0.292939959315738
0.280775193913857
0.287772571924785
0.263061708458611
0.331243464497017
0.293562666243197
0.344097955601369
0.318467451637578
0.313485665732888
0.311363905960791
0.319481448204159
0.306784844109402
0.339993508725524
0.321549232195459
0.349446887074784
0.337216218510733
0.354756835193297
0.345489002180454
0.350892313549965
0.351742728299129
0.365393233154754
0.339433060904328
0.364104520194547
0.345345449524777
0.37518791868138
0.339694751824492
0.413274060113967
0.400609233323465
0.422854305041357
0.380075948998984
0.419241729792097
0.39233598267082
0.415125490437308
0.396899540679813
0.428946624366926
0.391372898485446
0.445711917570356
0.415887388932529
0.426314090053803
0.415558422301234
0.441906198607888
0.433523675980365
0.460191633893747
0.441293440475805
0.476308661255037
0.442564768880686
0.473023883646992
0.43422851409975
0.492011302459989
0.466773116866913
0.486577617301049
0.487740927425814
0.504294792029295
0.479994452730588
0.508660208422509
0.484365188459337
0.50751922502109
0.482190154467021
0.520960110047121
0.481684299579949
0.511490480165814
0.525515885483854
0.546985914251243
0.528243453291478
0.568905914469456
0.522770661828594
0.572715315473124
0.532740466951493
0.566981048984791
0.561922125129405
0.587080408382735
0.551645251816028
0.566964540969939
0.56551864889766
0.598372125964757
0.575254923324184
0.625284377205938
0.576062726812316
0.610298863133771
0.604073716593146
0.618833180036093
0.597231340152077
0.621587481635072
0.618860405675113
0.665547779728188
0.619021898631915
0.690928350764898
0.627902694510146
0.669577195778731
0.653287050383844
0.662993766256144
0.626456399571299
0.695201479096399
0.637882371334213
0.711148743881765
0.668003103305794
0.720862135289946
0.665332277534383
0.726704458337024
0.71624311690862
0.742166426954984
0.64715605350428
0.738129303512406
0.722843189100692
0.76751417921206
0.700776418379868
0.781979108141953
0.745149405224354
0.781085177129788
0.768958263133803
0.805634598077349
0.707164362435592
0.785474282317922
0.727628656081915
0.83196211787532
0.743867788071649
0.811855622919567
0.760967383715953
0.8169074678937
0.758738950990789
0.806207807515761
0.765561685471371
0.822806267365432
0.770430037725133
0.822802829192501
0.787562755691813
0.833704488071181
0.79650864817017
0.872494613973063
0.815627738398804
0.860040506283396
0.797487542078331
0.807937094695086
0.777985461367861
0.911479861564526
0.867119726420769
1.00336123977131
0.898186408846112
1.01877841238253
0.870437289489281
0.935716014382056
0.884796449110671
0.977358339672363
0.906888463653383
0.970448309029874
0.894178808535932
0.97532122794311
0.881434305327264
0.997645474518192
0.916858032954819
1.00842248851094
0.89361737030424
0.967674162365823
0.908004402130074
0.990588141737067
0.920691547758427
1.0286043835133
0.969586058281037
1.07205288181526
0.99319368346226
1.04780915473194
0.931255297003471
1.01379851205368
0.992196807595193
1.03753668155957
0.943154209479536
1.06122346822263
1.01533932229548
1.06301693376966
0.9860042582495
1.08466972591536
1.00744448524908
1.03969960109444
0.971847041279532
1.09422506104468
1.04319815982593
1.06714897465051
1.07224521971336
1.11849926019746
1.04863144541598
1.11235860799649
1.0207305642973
1.12100191481896
1.15198920826869
1.08667416423873
1.10111742461912
1.18989548192563
1.12938159858309
1.24416107640175
1.10726146062889
1.1320076716598
1.10156575476907
1.10934030652908
1.05178786075894
1.159640215454
1.06252917344804
1.16368299385069
1.10255477766127
1.24086702467091
1.14578479140399
1.14422484226563
1.14104283235039
1.20292571115315
1.09794577346549
1.15549976324551
1.08907451890188
1.20850198422625
1.04032637647656
1.30273175876123
1.09450134367607
1.1734830390733
1.11731350551474
1.27430020484841
1.11464390571562
1.23264222889982
1.09623292480755
1.24113547547094
1.14996695493796
1.31982184375755
1.27078311900409
1.36747861982519
1.11041948331074
1.31128517025858
1.24931771440377
1.31711585843774
1.17630842787418
1.33884654308185
1.270551070304
1.21240740166703
1.21815648619603
1.28841791451429
1.2107641882149
1.30192302540202
1.2018522108605
1.24539627495979
1.12342874492217
1.2971447468439
1.20357262105138
1.36856665533208
1.17163604765116
1.30796431172723
1.21043564924264
1.35233268200246
1.22615085514514
1.33904453327017
1.20695608247684
1.4226211574984
1.24522678283264
1.52202161229941
1.28290892891697
1.27823296482254
1.22069832741408
1.37748404246014
1.17846747902644
1.39740651685974
1.19872427175475
1.40870372843386
1.23441864725871
1.28037468750124
1.24464998364742
1.37636814608953
1.24470342866392
1.36158891465069
1.24533395042605
1.36841540347748
1.23117088729408
1.30996109910137
1.23916234267038
1.3481951128096
1.23575691569837
1.45633629105258
1.22743727853903
1.3047501204212
1.35362050290317
1.41908887977821
1.33132759440722
1.34104957352171
1.35124794649213
1.39492833792135
1.32963819586905
1.46994895699966
1.21494604329367
1.3416681179752
1.3007595882012
1.42586501402583
1.19652078884281
1.24842949647695
1.24929644859553
1.3849506587139
1.29320318147826
1.38643812338615
1.31943908843771
1.48149942911665
1.40369492938133
1.56048764193336
1.30386688495581
1.28717625993078
1.392529388675
1.40805713925539
1.26994189060894
1.58997429947498
1.20750120989808
1.31101320199784
1.26708256407045
1.38409773323606
1.27054801094174
1.36332401153166
1.21958633914757
1.4216640496443
1.23449667469555
1.5229309669383
1.31511434317574
1.2984275504986
1.42364539306282
1.331524566596
1.28772774859075
1.45711397892874
1.29757421165387
1.33678935380401
1.22922521988714
1.33274980483098
1.27215333701482
1.42660136887621
1.31890878897115
1.41203650938975
1.25791981421598
1.37436900795041
1.19039071433902
1.3927504358547
1.26428793489842
1.37355259306955
1.24166606299138
1.37217207395859
1.30414514608814
1.43338521114074
1.30415870582412
1.402911637217
1.24829771545348
1.38619522275566
1.37066156194115
1.33543908529429
1.25516968470412
1.33473253599046
1.36974512827719
1.31765097031428
1.2112069831535
1.27084782459229
1.30723127293596
1.32558361655095
1.27924138918044
1.39477730025408
1.35687978116411
1.38373135635994
1.27242641913151
1.28849810327585
1.27268599969119
1.34046178014466
1.24282860762308
1.29906046630273
1.25908935670245
1.31984680835546
1.19077757798749
1.28536233549238
1.33418410343489
1.3328736263269
1.23979690089133
1.30795168829538
1.23327187857804
1.26945323840021
1.21129291137066
1.29069478478008
1.18597924085486
1.22025402587684
1.16489413174282
1.27836759991526
1.23109805679696
1.30642723635945
1.2349007134048
1.3740899366353
1.15696383614297
1.16629611683372
1.1897674448912
1.24247551537124
1.25770889495262
1.27770506195933
1.19758046063993
1.26125386623939
1.20639201136193
1.18191260594759
1.16652721195316
1.26954291113522
1.15688124872921
1.25918139149544
1.18442783628284
1.21177317209665
1.15336484088086
1.23889736617436
1.16657390849445
1.21864050062469
1.17828183789697
1.19237775841311
1.14749295418369
1.21854301370814
1.10727300350693
1.26474836808744
1.16072276356408
1.23177080743928
1.16113667462746
1.25216400788837
1.11408559016619
1.17535715631373
1.13539447646151
1.14608256369568
1.10678247175882
1.15882258490657
1.09284417394723
1.17759227647873
1.14359946495987
1.16110466641923
1.06360893007071
1.15225838277257
1.09973173043457
1.11474081522498
1.06982620182994
1.12387020748986
1.07208130733672
1.11264398165683
1.11674333185762
1.12978567971007
1.06508845347398
1.10401446256005
1.05144011752194
1.09005096032012
1.0437027122324
1.07765377112746
1.03600728479545
1.08025891026543
1.03220997063868
1.06257990986957
1.02673690345455
1.06928079403745
0.990669691270178
1.0582319754123
1.00264082656378
1.0438807743121
0.985092228946867
1.0330425104882
0.995606554444818
1.04010762054613
0.976289196054194
1.01913398999724
0.968733212910106
0.961186761558478
0.969729775266531
1.0242236386382
0.974046329949201
0.986857365759776
0.932333918546235
1.00411611087047
0.924469725997866
0.977421079094354
0.917314635536449
0.975077455235573
0.924679834728397
0.938455261473843
0.879706933835089
0.938691076814008
0.921257152958472
0.961998777259809
0.91094401636188
0.953058846393413
0.87838370478512
0.90803329174347
0.877478741585027
0.913384072800919
0.873575624755102
0.87577006080356
0.880718763527687
0.901273168924466
0.86223842589076
0.898342969128697
0.862597730067686
0.868498198433201
0.842402337269302
0.862710771680824
0.835695607281314
0.881152059900377
0.854533143828068
0.877502844360876
0.817995083523174
0.839663901058982
0.809501146509649
0.820181784139544
0.820218875224427
0.835072746959086
0.799650495814413
0.837926520790084
0.778303505300952
0.79995922883266
0.789632518473463
0.811162348796898
0.77137223537428
0.78591563791129
0.763703675898874
0.759614822056767
0.756058801279762
0.754962140203
0.76267899408872
0.769488615196953
0.749357920961896
0.762790883617962
0.718250406053601
0.763657448598236
0.730224246578025
0.767601258381963
0.738429112376001
0.763083787035431
0.7258548053199
0.729209406194006
0.716024658237368
0.720811734400435
0.712018354302246
0.722571186316724
0.69870982365578
0.710916313806688
0.692871777492197
0.716512903754298
0.683572017594732
0.695515642472662
0.667344459813267
0.705138628784618
0.676449161679402
0.680580786989401
0.672545122892445
0.671156412592747
0.660443132995242
0.685291619725741
0.645863067932697
0.686267780280301
0.646761992206579
0.661705095873004
0.645904750387527
0.662563567035665
0.644682204879978
0.653660699504263
0.61948642567608
0.633949923101377
0.633095040896253
0.631119158992129
0.615559020722569
0.637444751103622
0.609990003414589
0.633638303508311
0.606236982309896
0.616222428341673
0.60662288738684
0.618851056492297
0.600531755297921
0.605438181849638
0.596602876681695
0.595713889740444
0.592064471998428
0.606062106250904
0.582705981941604
0.58636178334935
0.578139481519918
0.581855099268568
0.572030067085585
0.586175699581363
0.565261553330229
0.57845997648026
0.565406872478398
0.575418733118263
0.562506725867332
0.558748733295239
0.549946970562083
0.55837090551955
0.538092198035444
0.549193645432314
0.528524360493572
0.55948099485947
0.528463175066802
0.535041430359878
0.521938291542758
0.541551579357113
0.522143846405623
0.537728677615743
0.513692357848827
0.514058836380263
0.518973016356615
0.514426300715328
0.502931583336609
0.519775781759648
0.508492612088213
0.508518817045064
0.50322683334906
0.510793572182298
0.494752137760947
0.50425331690245
0.492720706933993
0.504145465632776
0.484253158964667
0.49990278437939
0.475283732663449
0.483631009460599
0.466504835788759
0.483686149829348
0.480348709513798
0.483735573442322
0.470499560907501
0.474969998921287
0.468666224154381
0.471106202336774
0.459962927603947
0.46416324864813
0.451864193621482
0.453251414853398
0.444356074610641
0.461133401590636
0.438972873052934
0.452172076939332
0.436938904836909
0.444387729726235
0.433239821590808
0.452042319159943
0.434985462840045
0.454718578187006
0.439449708291424
0.433349285959538
0.42363657824622
0.434682964681255
0.427180015336097
0.426793499892477
0.426005288664163
0.44177292864096
0.427216100829552
0.435675225785878
0.426374148692992
0.427239130975055
0.41635348091374
0.433799210071389
0.412200633608351
0.423965482570484
0.418576325553445
0.428646368664182
0.415779945565727
0.426539258373291
0.413757539449216
0.42988138711676
0.422217290357932
0.428563035022294
0.416993154447921
0.428017973565303
0.425468105845673
0.428560345799953
0.422866517400673
0.431843330547087
0.428074482833048
0.43524431380299
0.430389103889787
0.42833082632544
0.430400012761962
0.440741172094824
0.43431699667558
0.448359040912762
0.435522496342435
0.445697996963095
0.438586033872122
0.452293313930633
0.445063506631526
0.457760518266441
0.455013576487435
0.459437128637304
0.442284324679831
0.458116660843994
0.453274919547121
0.46283976401359
0.462517027335617
0.473747558815899
0.460910748668658
0.475916634957976
0.467739514849066
0.473662666194083
0.460025562130721
0.475347616301523
0.472854320337595
0.484099865605345
0.475093475510068
0.492386013185439
0.486632170318593
0.486585848524639
0.485896661356041
0.490853817601749
0.492744192336214
0.499796082112767
0.494694182031455
0.510871929795404
0.501535934169548
0.508833886794321
0.503995242738091
0.52562589258446
0.510354840883296
0.526538474175841
0.525296889000405
0.529032400397936
0.532185742133397
0.545818410243292
0.534552632499049
0.541753741124388
0.526287930002529
0.547880904654839
0.522658801174474
0.53651697203434
0.54307438622304
0.536878805023761
0.535504842790671
0.554581914873011
0.539589111550914
0.548925925779342
0.528004849108349
0.542408997082284
0.531247314601948
0.540381074734502
0.535108262403373
0.544976913173045
0.526275719380217
0.5387962338585
0.53754614782416
0.549134868538766
0.5214393629496
0.529099855326972
0.528196513684969
0.531660086124864
0.524409975547614
0.535352000087348
0.525302052202541
0.537898814112865
0.532286420401901
0.528066759017859
0.527405342978374
0.539635485558217
0.525165775656778
0.531302252537498
0.531743673469715
0.532797622323957
0.53278729056648
0.537515654541494
0.519857881426651
0.532806546600658
0.529402392735427
0.532124572606305
0.521936320622939
0.537675045392774
0.532639696440119
0.533835538786223
0.524296091370214
0.529418319555704
0.52048615396434
0.538531647293895
0.534548528660946
0.530347839549156
0.526735944157824
0.529732854168446
0.524077822404383
0.527676332870555
0.515418794571416
0.526035349933837
0.528074888443538
0.529538957821463
0.519904265330215
0.53124508020069
0.523358045548383
0.518948328154812
0.507315762548337
0.510512663583245
0.510454338146914
0.509478743610283
0.493398637265293
0.508198837178785
0.498602422595756
0.50354119273865
0.492143575908994
0.487708719252593
0.482919907538224
0.487640899507766
0.482384556468357
0.478575223349067
0.462804638811817
0.466853417117822
0.467498553898019
0.459569077634368
0.448607872819795
0.451163973340244
0.448794521682329
0.445798019967407
0.448593700089075
0.442669005143314
0.437240903946414
0.438906238398872
0.429639615952167
0.432169139833387
0.429190408529294
0.422073696539651
0.422932912251921
0.425875601371148
0.414383751149285
0.417921140511403
0.410681243348439
0.415137413567379
0.40841212467701
0.406271233872224
0.404499858287044
0.407971367060326
0.39781419053825
0.395978197726178
0.387452576384629
0.388982163826746
0.385121037550888
0.391966683108532
0.388124060947262
0.387734932385875
0.382835794183832
0.381868925979068
0.377373884275255
0.380128705296293
0.375795239698033
0.378258839199378
0.372780168937238
0.382334432852074
0.36451503095216
0.367780226212951
0.364793006166822
0.360648989581621
0.362080330765245
0.361411259350528
0.356716459883951
0.358319483598616
0.359969080376338
0.354188093639158
0.352834124508158
0.356892584510074
0.343318443516036
0.349952938058651
0.350265149199358
0.35222331512163
0.343735424459808
0.353814439159042
0.344822857089467
0.343996098466804
0.336735470319966
0.341424215300174
0.338965366565303
0.338715018679894
0.332113895429761
0.336902901468757
0.334684001690205
0.337929492463057
0.332485109068502
0.334825845235082
0.33252083746304
0.333318337038001
0.32766326022544
0.326399144932302
0.322153166384704
0.329692843296786
0.323081730458111
0.328793005696317
0.32375822470344
0.328745517947871
0.323314989432604
0.323329686545051
0.315036066078932
0.316883073725652
0.317117664651993
0.320274791073694
0.31883629539444
0.319141006220217
0.30833980404368
0.318334702272106
0.315576348952293
0.311588518899353
0.314383563523587
0.307912000796345
0.308326345097334
0.310326165274133
0.308637357743245
0.308257478369132
0.305674069397951
0.309978890786362
0.300446472215777
0.304065602743958
0.301496584961962
0.304464053344163
0.305582411497439
0.304631944746814
0.297237805266319
0.303547525149119
0.294266300629217
0.303655221864921
0.296581218128704
0.298969499607561
0.295897336403105
0.295254982983796
0.291894341550784
0.296715236339849
0.294522401301639
0.296342564103944
0.296452548031844
0.294353945380775
0.292095277650174
0.295743682380835
0.290591099272552
0.289350447373008
0.290902893146743
0.294579962173459
0.285307141246931
0.292501720140352
0.287977834895892
0.290446689064417
0.285588744171991
0.292740616732479
0.28805480180086
0.287072303042445
0.287809293980221
0.288466834046348
0.28655559139241
0.286458375207682
0.281711725724703
0.283272142018186
0.286572972980182
0.284489002896433
0.273755234033986
0.284962626754492
0.281152768248423
0.284373130405516
0.280853889991779
0.282477868110681
0.281800012124982
0.280611914705873
0.280337798988875
0.285690380959874
0.277829528630194
0.281653932052703
0.276531046972372
0.278490395975489
0.275580656552897
0.275762270017322
0.276363886922664
0.275392173384446
0.272847034159234
0.275454871474369
0.273201666044165
0.276212948068938
0.273280192987033
0.274932159505753
0.271196059016526
0.273556482928128
0.268479881339903
0.270979434409367
0.266268687358211
0.265702531833638
0.268268329728092
0.269866566928689
0.264090014268931
0.270717721421727
0.265957648956689
0.262624801303332
0.263976256382968
0.264117824392426
0.262496399263404
0.265359264988876
0.25997429016769
0.263100560624964
0.260540238175134
0.261774068209539
0.256322440847359
0.260144620977909
0.256720611115815
0.260609950893319
0.256481493506897
0.253244026308665
0.252256702387462
0.257302323950011
0.254414130240357
0.251486695982211
0.249004309349163
0.251888698962897
0.251170958974653
0.25134347763459
0.24851796811623
0.253212431818985
0.248318653302348
0.250103404215124
0.248758182413265
0.24482241403745
0.244833416530029
0.24551754096308
0.242138847705647
0.245216638312707
0.245898797168959
0.244117876909034
0.242975631790775
0.242013256129651
0.243022342144827
0.241004233794226
0.238866815674977
0.240753542452856
0.238377102167449
0.240302563078712
0.233513856650547
0.236524489822771
0.231865634726664
0.228584667576085
0.228946767422355
0.232750701537118
0.232093945242471
0.23226092678444
0.226156888189437
0.229103860323096
0.228615177572014
0.230083104128431
0.227080062887043
0.226927724273909
0.22724494575929
0.224898057498666
0.220932574243978
0.22267528345231
0.2205485273511
0.220377993720816
0.215728078608845
0.219657035244986
0.21536309969096
0.217186703709344
0.217237213225357
0.21779877213836
0.21463869686357
0.21162761368027
0.212662015515814
0.214006238448045
0.213741920915395
0.214512580861584
0.211749649269045
0.2137051144749
0.216257986376664
0.213491990374097
0.207516508589323
0.206495238270593
0.206637542959784
0.207355280405097
0.205679805874853
0.204172327109155
0.202270204918613
0.203985278816744
0.205089390199638
0.207123745866514
0.20139675810405
0.202197176463596
0.202363455310099
0.202876752336701
0.198492486342281
0.202678662618299
0.201232770757478
0.200659269767896
0.198937364340503
0.200051788041267
0.200933408325307
0.19898689473232
0.198361407261715
0.200379938704252
0.19356029727872
0.195773413930928
0.194424879498723
0.194654595349664
0.190207988530111
0.191453390762264
0.193668764222357
0.193720101827153
0.193448763232909
0.190080911519582
0.188738449798705
0.189846570055911
0.188256902659395
0.191549929349481
0.186867235834302
0.184545611516969
0.188506495776342
0.188208423252837
0.187087429678562
0.186611626141986
0.185009714219537
0.184642908086058
0.186357332337513
0.188291768605084
0.183844977018239
0.185984239206449
0.179459185928781
0.180262672221217
0.185295556935567
0.182467864425699
0.180036103162037
0.178877075107123
0.179786556814939
0.182908710801771
0.183533860621556
0.186440412725275
0.182868326725515
0.182083693257957
0.181036867097261
0.179118872733889
0.179554042640355
0.178874588873845
0.178394788018488
0.182441617010165
0.179834855924456
0.177437326668241
0.180534687248562
0.179489755132825
0.178427590556741
0.178747121976125
0.173319298559423
0.175565818651634
0.177432532337809
0.177208478609279
0.175363261191061
0.177507697765315
0.175108255611316
0.172674532090602
0.174371693554652
0.17411037583631
0.171321688655543
0.173155687612334
0.174035413183256
0.173979230962942
0.170043958841449
0.171978807013726
0.175503787913567
0.175445387244701
0.175638724672167
0.172594197431656
0.168617811000269
0.168936641584265
0.171395287021577
0.172369156664949
0.169838049816166
0.170028980984903
0.168646414842623
0.1676959369254
0.164276962499362
0.166053083301109
0.168580726669796
0.16598254184753
0.164180010892953
0.164596165358836
0.165639270871748
0.165491393850416
0.162615433659388
0.162533069362538
0.163721633897932
0.163630995446663
0.165227173501511
0.167080101215895
0.161813671767559
0.161168705768316
0.163877169749921
0.160221598795014
0.162250274211262
0.159523739386171
0.157428911528262
0.161233511757835
0.165987135917426
0.163498384390317
0.159432163632759
0.157816709328827
0.15988653743907
0.158476807146011
0.157962934963277
0.157774898650798
0.156838808259444
0.159472516921867
0.157214962002029
0.15762573549816
0.157752557453863
0.157407628786088
0.156148591583338
0.153382868942996
0.154413035592679
0.156426766213334
0.156265828995753
0.154477639226792
0.15419421847975
0.156373416581469
0.156923947171464
0.150538369924541
0.149852736222314
0.152544726765204
0.151986974037186
0.151127518979896
0.150385616088924
0.148208667616385
0.148055037508041
0.14787970672369
0.148170670373476
0.14595163213226
0.146819558284985
0.149450248774569
0.147494052276425
0.144662296633551
0.145069002462023
0.144166718444982
0.144621219814146
0.145141434818076
0.143323724358129
0.140046660256738
0.139597655711082
0.14368090074212
0.142821644713311
0.140867874329802
0.141497623324836
0.141326671596632
0.141263794308301
0.137673191647264
0.14070996667703
0.141816411172478
0.140700752544672
0.138662026440317
0.135015361456266
0.133963151227186
0.137820278261523
0.137708177335805
0.136792385311871
0.135764169784064
0.134118126320354
0.133999847233232
0.133540408112755
0.134728111770036
0.134742182934192
0.13535815256683
0.137423556764537
0.133602174021804
0.132526111987706
0.132700483707421
0.13041339529197
0.130712929569257
0.129677616441162
0.129237293910256
0.132595068894856
0.128858151622557
0.130047074237957
0.129806080514839
0.127579643305059
0.12790477585669
0.130465622078843
0.127896499086363
0.129374415465201
0.126717941345415
0.125030197970164
0.12722012171076
0.124081832890742
0.123540999994794
0.125085904245659
0.126430403605897
0.125227749954828
0.122869440760883
0.123387885208548
0.123742284884678
0.123900796808337
0.122000446384441
0.122750538907181
0.121176018445385
0.121873348573138
0.119289176767133
0.119287321326905
0.119568469377915
0.118127171663498
0.118300017934246
0.121942899326369
0.119677396384003
0.119366685034623
0.117836595114645
0.117068535221148
0.117716825354078
0.116727835466762
0.114438589787137
0.11592109491056
0.115679656614757
0.118666795780489
0.114932730753425
0.115472559369631
0.115251864139296
0.114933852860261
0.116909151971717
0.114863799767916
0.113772356681428
0.114863285323545
0.112787577456025
0.114187408999872
0.113328973211359
0.113896924064928
0.113701070604039
0.117083183011481
0.115257732669244
0.112619378544136
0.115739440498153
0.115281011101881
0.110964454125205
0.110688396884885
0.109546656174219
0.110632687443024
0.109889203405505
0.110225332694396
0.106375496023307
0.106420085493928
0.109726440057035
0.111879805301649
0.115210238220785
0.117637414972885
0.105085913508329
0.102702550808059
0.106005337264184
0.109261811329651
0.103522430574698
0.100137411811707
0.105670828849635
0.104126781002935
0.101852042690607
0.106440433622146
0.0959371603149835
0.104523369257261
0.104902039283986
0.108382963697689
0.0999978622718663
0.101468351563793
0.110729793509076
0.112089561385762
0.108580429444118
0.109380545722733
0.104506732705549
0.0978663033312914
0.0983508061026288
0.106347418140238
0.0993444820102439
0.104460445372637
0.106829714151556
0.102394734522184
0.102088369913228
0.104076158099681
0.101126760578982
0.102395911254441
0.0968401590031878
0.101422381270169
0.10062539263352
0.108132696345148
0.101980792742271
0.104794632280988
0.0953419176817562
0.0988595831477693
0.0945631610286612
0.106231632953051
0.109269577064531
0.107111536377708
0.091518520849443
0.104970654934999
0.10489799835557
0.111529783923898
0.0950750443051292
0.102609097490585
0.105781365071838
0.111141276942271
0.100228127771236
0.105510537880153
0.106303578742218
0.103896280181892
0.103730503662135
0.101042589783565
0.10374936571419
0.102068569604927
0.104312461319871
0.102762929898744
0.101191003375704
0.102426717795965
0.102128407931524
0.102520473879431
0.0981931544011913
0.1037241831213
0.101947048756783
0.103243459444084
0.099455235380007
0.099664528727396
0.10159434450905
0.101414625821877
0.100008567572378
0.101185216647393
0.0964592859294239
0.0994397541222021
0.0996320693457423
0.101604455127647
0.0984326172722869
0.100355285954104
0.100017165683327
0.100810736004868
0.099461394963353
0.0995006249710493
0.10033244081488
0.100274940338407
0.0964196372988099
0.099541109600709
0.0996457738855694
0.10206346572583
0.10110572938099
0.10020473477708
0.100136518936154
0.102415284642332
0.100554508030443
0.10329045000709
0.0989371942134513
0.101095974224795
0.100246881518459
0.0989242644360512
0.0976793342429336
0.101099144077929
0.100469450730644
0.102209683706962
0.101140048088282
0.100864880401893
0.0981067285251453
0.101587355898799
0.102272429425025
0.103920911271135
0.0993976410468837
0.100611471461296
0.0992196417048357
0.0984753811323772
0.099927750415842
0.101199193286212
0.100145425264359
0.100730226252799
0.100005769156564
0.102377653995486
0.0991472718219274
0.098381370372228
0.0997988709628598
0.103060560412786
0.0999539546014296
0.100244759533752
0.0993029819269077
0.0998232908532196
0.0980392777151305
0.100443000183263
0.0982673462792734
0.0989515974657329
0.0997212327875056
0.101114628143063
0.0987251511406248
0.0998718288272351
0.102107490926046
0.101032686106312
0.0985318953520777
0.102081821665644
0.0997726197069661
0.0996207408759505
0.0970201404661231
0.103138151956345
0.0991556170083172
0.0997791325341148
0.0984847737624882
0.097379104018913
0.100492725660212
0.100582125426124
0.0981105804519298
0.100794762077564
0.0998148158407588
0.10197493803898
0.0990865403994767
0.101214145345607
0.101064412261651
0.104489559795168
0.101853005794141
0.104040341278784
0.101393800258492
0.10191062966868
0.100653987659785
0.102834169166246
0.0998609774373787
0.102770823800988
0.100128921710999
0.102597437954206
0.101675188575633
0.103018844845506
0.101110335407105
0.102693257301337
0.101554027718767
0.104999440636607
0.103001281746531
0.102506123289566
0.102309238547691
0.102471678981967
0.100865326958765
0.104131776828151
0.103480508947648
0.104582498832662
0.100704461558879
0.103999379560176
0.102964538726023
0.105848998181588
0.100936576708755
0.101839283063827
0.10362829984534
0.102781739788361
0.102491478767903
0.104555330180531
0.101737440712317
0.103080975456136
0.102275859645134
0.104955989866973
0.103176242725018
0.105333063428168
0.104366381348116
0.108319419892719
0.104060357592216
0.10445816883842
0.105190129137389
0.105586700036992
0.101842114583589
0.102914692022582
0.10326568420479
0.105793320303732
0.10342535861455
0.104685454233735
0.102353216290981
0.106278282629992
0.104045341493642
0.106250663088534
0.105436392761364
0.108792269976175
0.104985158665573
0.104194656010183
0.104491363117067
0.108375117118935
0.105478783785945
0.106432303649859
0.102642794795342
0.106724543590096
0.10566994924273
0.105983692424827
0.104453541016443
0.107576926708027
0.104306460444709
0.105524687888294
0.108259154597432
0.108533715353905
0.105073151103016
0.107972667245822
0.105524852257679
0.107219032434923
0.105332532590471
0.105673231614414
0.10495155608011
0.108891678757276
0.104312128536363
0.106737552608658
0.105466796602855
0.1059638713986
0.105290451587364
0.107514355176029
0.104926963859359
0.105938117262765
0.102018207072787
0.102140090981207
0.101950143199128
0.106337065140107
0.103560259968782
0.105237102716649
0.102189502563683
0.103403303825951
0.102458681337685
0.102952596637804
0.100189359352037
0.103075598140391
0.0999107405005335
0.101745770373277
0.10186657827854
0.104444251406975
0.101635871644721
0.102341242161367
0.100847948528449
0.102530490081067
0.100747997884933
0.102778424277212
0.103229848145268
0.101978907456516
0.0994274644502485
0.102945188951253
0.101218556593467
0.101620183736818
0.0995655446164079
0.101022806510249
0.0994541520439987
0.102904698195873
0.098169734632684
0.101506426952486
0.0967741328710239
0.0986716057003897
0.097306167946106
0.0992319037382239
0.0965897251205827
0.100648733563159
0.0987593954651893
0.0999828305443824
0.0980519641203781
0.100642918981133
0.098346980413539
0.101174173262851
0.0974807037744973
0.0976483840425025
0.096476896676231
0.0990330626018623
0.0955946498214318
0.10004782076477
0.0940959865977285
0.096523607662529
0.0976446383146221
0.0990245887617215
0.0925698560490552
0.0974789729142239
0.0937452731275769
0.0964417092558402
0.0954412969980362
0.0961600471076975
0.0948303138739096
0.0967068807206099
0.0954620584245529
0.0952839089142408
0.0930668950126366
0.0966745871665314
0.0922584624522007
0.0939245006591565
0.0930080861173035
0.0955779202703685
0.0937683763312837
0.0940934316135959
0.0952200529967815
0.0966152751386705
0.0917915648422853
0.0940850581744936
0.0948784863068864
0.0935188096619904
0.0907459865755208
0.0948810553479918
0.0912626423400687
0.0937429780136587
0.0921075585679242
0.0934978965471581
0.0926239830209767
0.0937458689115852
0.0900029460612922
0.0941004797576727
0.0902711433792985
0.0926428379042916
0.0904844737050821
0.0907398508959549
0.091759413499711
0.0942748878088964
0.0896435271889953
0.0922129072428503
0.0897779339631672
0.0892878689434803
0.0911283837160494
0.0931436959653074
0.0906839765689621
0.0899282296867418
0.0876915301789256
0.090716008357722
0.0877980543673049
0.0900067361611159
0.0887244134461523
0.090443888171316
0.0872268233750354
0.0887459685575399
0.0856262517937536
0.0876671134618106
0.0860946202572203
0.0849461496863456
0.0833767349754495
0.0871442331680859
0.0845803972490681
0.0871534870666482
0.0816744107305099
0.0850024389044582
0.0831322532394229
0.0836537850640587
0.0823010342766477
0.0857674339987159
0.0865704253518739
0.0837642932327345
0.0820258059217667
0.082364622492115
0.0816390504555514
0.0800138041742243
0.0794981075308266
0.0818557221776539
0.0817195788877293
0.0829445306218477
0.0805165628760047
0.0798538067185961
0.0762612503555053
0.0799348622186387
0.0787079658056423
0.0817321597412374
0.0780368669530201
0.0798230059600823
0.0788546462792869
0.0785957739413705
0.0743028564279684
0.07792775331641
0.0756266521592261
0.076448114588535
0.077274989621682
0.0759800682508019
0.0786435203351221
0.0805116085288864
0.0753748596038227
0.0765703797836393
0.0745777167461115
0.0789390119691401
0.0745013929406768
0.0765482026774202
0.0753363983961706
0.0778923591559466
0.0732639086996592
0.076074594703154
0.0734931493873028
0.0756856899119416
0.0742954974708087
0.0765024649823865
0.0729699828666616
0.0759235938794666
0.0752587512525704
0.0769794074450901
0.0725661463287581
0.0761523710096413
0.0719541183538119
0.0727478073476526
0.0701694055982682
0.0733163501261446
0.0723392179990736
0.0788412443003406
0.0740307716290536
0.0755978995920714
0.0707670402857029
0.0765341964253652
0.0701924622465841
0.0730544143132746
0.0700917342661202
0.0717889376323114
0.0698256614715848
0.0715049950402935
0.0690603873065382
0.071914149396619
0.0710145142677473
0.0730068102309713
0.0673967084680258
0.0696036222982204
0.0668392414036352
0.0703321708025896
0.0640188519015659
0.0696110636778769
0.0688976622813995
0.0712456457249721
0.0666189796319361
0.0730356907356398
0.065571242576699
0.0720093927583331
0.0768925259213471
0.0700422494121865
0.0680513161237507
0.0679148599856714
0.0685954225422775
0.0675388849687041
0.0681462789811726
0.0676327825503247
0.0677329359712108
0.067696826720487
0.0659283294177073
0.0658848512814833
0.0670417647863325
0.0655583854212042
0.0659742995025244
0.0679634730823281
0.0665226687711298
0.0664230547435883
0.0687069438657019
0.066544972953003
0.0679186269096917
0.075878086402586
0.0680422587856847
0.067797423185005
0.0660516971373505
0.0601242099738014
0.0786768546756283
0.0688665221596323
0.0689141674214654
0.0654884128773081
0.066836423104384
0.0637942686010797
0.0681756903359994
0.0640517678221945
0.0663757954709149
0.070739226817569
0.0660223692625716
0.0700601547349296
0.0657295085229131
0.0676380796585035
0.0653948968435164
0.0655712342331714
0.0648438127519981
0.0656375949990783
0.0642705404097272
0.0664667259895947
0.0624289424716359
0.0627992787613558
0.0664384464599806
0.0630806569517075
0.0647080255845434
0.0684104676131047
0.0639867041410861
0.0654800166842412
0.0667119715266296
0.0626422662924102
0.0627102093750918
0.0779074024387041
0.0632580897516312
0.0673671225066001
0.060335338365394
0.0665992806185248
0.0655884701522024
0.0692327979982292
0.0622296560345655
0.0653458468264815
0.0617780157691785
0.0659938977775049
0.0623432320767342
0.0667209698220337
0.0631378951698993
0.0649490733452803
0.062507176064966
0.0646029010819658
0.0628291178298842
0.0655959361205008
0.0662059270917464
0.0599912514524007
0.0666765529579406
0.0775128431189473
0.071297389909915
0.0717726167108824
0.0692993369164645
0.0664770050610109
0.0626838730834478
0.0653329628101667
0.0609181289476189
0.0697351464770539
0.0629085081072628
0.0669730342462935
0.0637741952494299
0.0672692962994511
0.0625362942618312
0.0674090510547175
0.0609219114437366
0.0681837428651429
0.0601255253599665
0.0679284730743703
0.0588485087092863
0.0686496000638017
0.0580481651752435
0.0747172128979659
0.0607646984022754
0.0740385405815035
0.046796643138639
0.0909929858176954
0.0743182113615074
0.0703481938187215
0.0676602471270771
0.0644127952802999
0.0653215096197998
0.0656181336625662
0.0633944901107367
0.0677056055479963
0.0656781422161156
0.0685532306287836
0.0654772395166675
0.0662692998209657
0.0667802362000645
0.0636757447962564
0.0588732421695269
0.0892293594251327
0.0679060630088107
0.0766365536759163
0.0613153813585206
0.0694491192316586
0.0836004477595959
0.0675111038438103
0.0722467999438741
0.0685301616361471
0.0689584282019487
0.068498543940019
0.0691529417829697
0.0651316469224126
0.0683637111270127
0.0692611485013708
0.0659134839500554
0.0699695843386339
0.0633551805715692
0.0755586274474902
0.0640692682636543
0.0778808699742588
0.0788355372209523
0.0668766456667122
0.0712111851603697
0.0716082078675852
0.0693310872050524
0.0709878565376332
0.0687377824024952
0.0669247489474121
0.0756349881613835
0.083101812252135
0.0684194281409989
0.0807382938214432
0.0783886785038989
0.0684580121198451
0.0734699596380789
0.0728355642202818
0.0818209046989104
0.0620539357634304
0.0759025553009106
0.0942835122161711
0.0772695717899267
0.0955318523234837
0.0663567544069509
0.0826963730847871
0.0679408931206964
0.0811147366312646
0.0621189522235974
0.0984770732557163
0.0631263569401476
0.0870758699671777
0.0636305070389474
0.094573146201687
0.0792719655133962
0.0829948344427209
0.0757352370599949
0.0773459562773944
0.0733800249460467
0.0917640800070489
0.0768453743347731
0.068871240442024
0.0916690552430534
0.101604534666249
0.101843965922114
0.0836581324126589
0.0645599101421179
0.115064414570953
0.0828724103921982
0.0925089368465234
0.0724765654313786
0.0903336897358977
0.0776481050031768
0.0810552683936511
0.10195581957086
0.0866248813638246
0.0830802541806909
0.0940636771926618
0.0682460089049518
0.102494444628423
0.089381258645912
0.0927990420581198
0.0827780938307225
0.0992287552884217
0.0659923356163008
0.146573257871711
0.0870794805862803
0.106993979808083
0.103007021727876
0.105265960827403
0.105663638134156
0.0990446772903556
0.0956324664971369
0.10570463083914
0.110745244402354
0.105447209899363
0.0880928252574188
0.110740625972429
0.125231798803727
0.10004909330343
0.113362741696447
0.102746400911125
0.0965285652648159
0.126440115725666
0.143257965800686
0.134484445077398
0.116031517880826
0.109491204535872
0.136495722887396
0.118974295060217
0.116573388491596
0.118012222150278
0.118903346405417
0.125928400171059
0.114026413558773
0.135523044872071
0.121282118810065
0.1325080360499
0.123932555847977
0.124684508048437
0.125549149682885
0.157224006568779
0.172947359420062
0.125939703499749
0.182791007383456
0.153801154346695
0.153001936375855
0.141475157267062
0.14109935313354
0.158257526963084
0.151990828435763
0.156615710976024
0.144488009966199
0.176528211533986
0.163524961241153
0.163004217368062
0.184093452043811
0.166580044692189
0.180304094024683
0.126545770184311
0.358414751050799
0.185729410990677
0.216378271815915
0.185593730861374
0.200070740587339
0.279328141086864
0.222581739086466
0.228779496347632
0.233179248942497
0.231560580515682
0.248006780274598
0.260358626374364
0.264885415148205
0.278833742349982
0.283874537597136
0.268130380237878
0.294809782184629
0.33937076406319
0.346194353947536
0.337116175471837
0.313243849539932
0.344525875095551
0.353517446186459
0.34547041148006
0.363892795567678
0.355930583993756
0.34793816842413
0.447756601641939
0.388478932662729
0.409089424664195
0.391364569402867
0.469997955658419
0.388617263524502
0.510688823185521
0.446086881473532
0.472352865737814
0.457777264646971
0.480330161583498
0.491183925616068
0.473436607674362
0.527833940609636
0.532319379499574
0.512994417307733
0.526896750848212
0.526958287767854
0.539546909508934
0.539250154970296
0.56531818017117
0.537342175372869
0.61293639189718
0.535267587671312
0.777019110437794
0.599760060389502
0.580109192746977
0.579191241850687
0.577933429116403
0.612216432481208
0.590971428220923
0.61424786438729
0.625428482946345
0.576228514891515
0.607997837003312
0.58440415230018
0.603078393751102
0.582147870985007
0.604112685260569
0.563482424380466
0.654450491486789
0.567184184058015
0.636512793118164
0.662674639668447
0.605631009166668
0.589405789879832
0.592910349747169
0.576831551320372
0.591035741202205
0.579376197564213
0.581221074066524
0.600123173056439
0.570851503502287
0.588230996965365
0.539322780678891
0.577820352381261
0.587085388176004
0.527017186419039
0.540275846515996
0.510425116191575
0.537912603272778
0.484677270949098
0.5063343026947
0.568046988056411
0.489360088488401
0.490073900355077
0.474509256983466
0.471713928253915
0.470258493436245
0.45771154801919
0.465601617444739
0.471551071831009
0.447796232068246
0.458496876398922
0.447297436599315
0.445193386016716
0.441655698530469
0.442266367293362
0.436219652229322
0.432834956264252
0.435083200679022
0.42448932281545
0.427419907613815
0.430558899443033
0.428942290189678
0.426736384955732
0.42489954648733
0.427607746800629
0.41957600669417
0.428634684648646
0.417887386600579
0.41814867621316
0.41812401319029
0.418501406278941
0.421339195602303
0.421859419637157
0.418883916054342
0.420504979905198
0.41591426903238
0.417195655529104
0.416587854882365
0.409270681131649
0.416858782462946
0.405693526573537
0.427270115751974
0.377745646539745
0.490036104438468
0.433485848072652
0.408561282363564
0.421104209944997
0.402924952431954
0.418815059754111
0.38992488540392
0.455392742097747
0.429066998782246
0.413836741610554
0.414939247433202
0.398790672080589
0.415894232046543
0.4234824016041
0.392942679736039
0.41644162927684
0.367615137763069
0.434613914656412
0.439032098506342
0.41570144854596
0.493633813324435
0.410121977331499
0.400551061403688
0.395205149888055
0.444930110869317
0.385421015991431
0.42218051610109
0.383846227558129
0.448237892408336
0.411798457202576
0.398113254224638
0.407185888194267
0.391856728553037
0.413642040224391
0.435053168759524
0.392925444270749
0.407936898742039
0.43912981742457
0.388605818824588
0.435328287457739
0.442920591044196
0.414757815164178
0.373771750883678
0.383177877795874
0.376218115127851
0.355806654117307
0.44742687254519
0.364832012196844
0.379616553373968
0.359228995903357
0.353556654315375
0.352873243931306
0.361529691847461
0.36224282074319
0.334009972634431
0.404686023548922
0.319537135653289
0.364329390862837
0.341592541877178
0.366581389100953
0.374256486471153
0.345130449659532
0.310536393797482
0.341448843182
0.367005337360918
0.316312925097584
0.336612723918859
0.307054078300793
0.30632910797264
0.335471078570768
0.2966246744415
0.308875360272103
0.310833107747226
0.290809581942408
0.351221026821461
0.329588893266141
0.333362129527035
0.294053222819073
0.276937979866621
0.28329198989613
0.271421902775404
0.286881219873626
0.251663040222211
0.305989180964822
0.282503684315255
0.244213895067931
0.329666196130267
0.272540398480462
0.273816825535122
0.273121466113719
0.270151067081897
0.267629475047563
0.276639935895426
0.30401534796891
0.288397395191734
0.279395579725366
0.313766377739502
0.274659305214067
0.295019547849812
0.277752041824131
0.296955374977854
0.288816142342853
0.315811528458968
0.303269505724344
0.314451167904011
0.313045106764548
0.318292792134483
0.320389752067288
0.379903485002738
0.30214910535817
0.390947508398352
0.33281607496508
0.413621729839594
0.367076097483297
0.373011470931887
0.37543312271082
0.377533365191733
0.384839367894216
0.38783689878329
0.378294782440473
0.438739314384619
0.386352380791754
0.421122731902562
0.39284023516463
0.427968187251668
0.392132834564473
0.457158177985689
0.412904858526404
0.511547435894315
0.478303646395384
0.444132712103755
0.459139711353191
0.434367510198991
0.457382274308001
0.447696543608608
0.442100727743315
0.457459432192163
0.439003076380804
0.488676512160649
0.44800656785302
0.457396815906633
0.454491408026725
0.464393298191738
0.463476544649822
0.471043853880143
0.469622140713179
0.472063311276223
0.471379581900189
0.481015246681172
0.442198812657515
0.571927005388472
0.485314031796891
0.49993583131806
0.484288653804919
0.493863207518868
0.499051121157898
0.486876741849768
0.511819257142888
0.517523600379028
0.496221804568006
0.519214296021734
0.50433560637825
0.520668569794469
0.504567199681367
0.557464115773494
0.506784665667579
0.545890108157417
0.503691927452807
0.543374958033064
0.588027061294098
0.538789235801191
0.563166357514816
0.534023271953463
0.54495025493725
0.536957941819006
0.548232840450798
0.538494369879898
0.556436344018508
0.548828505653959
0.56076838051746
0.555570148662176
0.550733253470158
0.555179942226122
0.546462981125927
0.579745204856038
0.554381509514443
0.554096903391311
0.550072316576779
0.558077911384822
0.533907659312111
0.570947874268977
0.558682533476325
0.543996951663843
0.557965507430705
0.552306788395543
0.564944389204724
0.568692876272397
0.542594258582999
0.557319404618535
0.550400824252478
0.561958658638431
0.55277334166234
0.555142335207733
0.586380104064013
0.560829692654168
0.561069315579999
0.553727807369546
0.565392933778066
0.561480098512709
0.567524475976377
0.566062839095452
0.571547047352044
0.569772460387961
0.578971867097774
0.575541448097445
0.57229143510094
0.582043034458256
0.58699684078059
0.58493167480403
0.567746794259654
0.574217820026289
0.569898932738339
0.563916936840605
0.57167996110489
0.565056489259559
0.560724662705974
0.551645284391089
0.556258456748576
0.525090996385699
0.573053433900464
0.532769940384135
0.548738062251349
0.535727961962853
0.518948171121643
0.524911341124785
0.517162553938186
0.523334293110376
0.512259763531069
0.513220755004613
0.510009304708539
0.511090985609647
0.503555428874049
0.502850292730439
0.502724453793783
0.50066448356893
0.500651792237691
0.503048516331529
0.500620818150523
0.495451063756678
0.502896597314522
0.499354548495575
0.499252331148285
0.489382407538493
0.503732003870405
0.508045822275064
0.507813030381073
0.496969857791068
0.493005300373838
0.50668039973068
0.490409050543503
0.499454789078626
0.491799478153801
0.496936044243529
0.485237785073265
0.492449174564678
0.491119585597495
0.492443086523701
0.489525170396864
0.492513125168972
0.489571721159404
0.492960019752351
0.492136568142518
0.496869383610248
0.489146608014594
0.49363274454168
0.487812930889882
0.496650958518493
0.495502834982392
0.48733791006923
0.495295364774999
0.48870168762417
0.496209235988365
0.490966851507016
0.496965529650422
0.48858302483658
0.49033866523697
0.491259222108167
0.493179892936196
0.491102823682476
0.49327750929126
0.48670336749906
0.4839339864858
0.48833818350033
0.480993322167745
0.483958286727593
0.479529889099557
0.473353659695437
0.472890481138143
0.469747353849184
0.461006779721498
0.464677015723109
0.458911522844483
0.458674508927011
0.448409209229301
0.446273431310357
0.45014466213532
0.441875805322699
0.44163912351551
0.436873679715366
0.435883781985162
0.440987822177613
0.433624280085384
0.431262907445505
0.430849472987191
0.433465136072349
0.429153771014119
0.430890745230884
0.428994057892969
0.428255906505444
0.431579219841939
0.42944848271168
0.431135160077583
0.427718963982054
0.430412794015823
0.431848740848489
0.432563911331581
0.433947234086232
0.438249982943144
0.435783665017565
0.439634549855549
0.442516995118053
0.442313410535031
0.445387572110436
0.445402773194256
0.450153592469819
0.451068118528798
0.455157300413412
0.45787559045051
0.45195552282276
0.453870268660363
0.454799560976552
0.453185538871633
0.4546105042117
0.456427654706021
0.456103579240536
0.456376258082404
0.450719906094118
0.451887415769538
0.45989913217462
0.450516293567396
0.450353753468767
0.451810872453979
0.451083818467788
0.448948769312765
0.447255899963954
0.445863823809624
0.445849495119976
0.441789138311492
0.445778094550763
0.442554895021098
0.442271683826571
0.435730770360509
0.436503923508808
0.433566264458992
0.436092496401147
0.432384629932019
0.43025746768449
0.429781583367374
0.430355975049601
0.426741817702111
0.424750918540666
0.4228629014804
0.423411476708244
0.423346411898942
0.417169494463754
0.422824752483525
0.417598247931646
0.41583312034065
0.417032569824105
0.413473862900925
0.411716524194573
0.408400640305778
0.410266011662785
0.402981377439117
0.402643297797025
0.401975055687354
0.396546960191241
0.397402007755375
0.39283461153697
0.389551015473353
0.385390299165813
0.384041004715636
0.381034868875524
0.376155280183609
0.375754525844389
0.375237092023315
0.371720721213535
0.369016041051215
0.368921107007431
0.368483919282553
0.366966763935308
0.364857139723104
0.366115080773752
0.360468735589392
0.360505683065719
0.36137818487779
0.356025023549039
0.355521341037824
0.354376118738248
0.349508012384436
0.346622068137268
0.343290785131919
0.340901073207852
0.337216663556226
0.33036761480514
0.329765993147214
0.323870281974206
0.321528818996005
0.3231760626466
0.318869769916932
0.32228622993105
0.32243962825183
0.327981354868546
0.331045131527757
0.339055770879001
0.345425358468845
0.353440082298903
0.363546913178887
0.373509819291666
0.385536446573566
0.401356660576484
0.414558898781748
0.430706939169607
0.442995192838445
0.458086695282397
0.474968102492481
0.48744544995117
0.50206198703936
0.520369251930999
0.53251368155783
0.546306571906803
0.562207516744818
0.575421620895772
0.588210404289607
0.600061747715106
0.613364989080392
0.620974206487424
0.634325801705324
0.647783365516398
0.654364936507467
0.660273836726708
0.669122757098381
0.680213914110354
0.684432285163694
0.691187196361334
0.689873915943865
0.6970184743389
0.702240071678178
0.703751648573396
0.700268464072785
0.702227318114512
0.709212299938055
0.702805460052945
0.701916595795207
0.7016727342908
0.698210415862224
0.706686078302815
0.712467451967429
0.707045885022955
0.715463626594594
0.717426503507787
0.717021187724069
0.722110430736798
0.726277271194712
0.731947231833095
0.737610575101866
0.745917277121864
0.752366756893623
0.757658511309635
0.763946231479308
0.774345818306473
0.783170799260988
0.784416654435667
0.798109838472501
0.81320799592771
0.821151056772799
0.83656431923872
0.850141499151198
0.854621877771143
0.867295734970587
0.878420702001504
0.884816593775398
0.891301442090377
0.886137165336931
0.897464734350221
0.909832484226405
0.90039662973347
0.900696166268374
0.908708822711384
0.90056805772481
0.893547793767978
0.888475233617463
0.874600714888064
0.87427811624659
0.877379719750285
0.884363228149875
0.896643602989196
0.893758616225119
0.894479262116286
0.903539048608941
0.931028040193571
0.948526717925338
0.951430606605045
0.966883384066389
0.982074264971669
0.993018594245594
1.00566305753947
1.02556021885551
1.03807129807014
1.05945761541877
1.08145919879604
1.0853285279652
1.0889883395994
1.10522942921997
1.1240501317835
1.14319728685842
1.16473074908084
1.17159383765942
1.18907735097593
1.21737115260125
1.23812428067525
1.25020026253559
1.27952706859359
1.30146462144608
1.29784433233754
1.35755368793654
1.36239924533084
1.37527538902752
1.39884776092086
1.4421483873753
1.40719539756227
1.40692423089587
1.4174088273999
1.4442733171969
1.45551103831046
1.48350066292672
1.45914422471742
1.45418071208431
1.45634211169501
1.43918730899247
1.41164063172145
1.4555394835774
1.4641191325526
1.43629879513942
1.4069620093303
1.40662082432372
1.40840707899173
1.42622716886568
1.45318692427786
1.4042546610057
1.39287678485855
1.42606160811244
1.45298242777038
1.51611858690217
1.48707000716565
1.46283168206467
1.48819073447685
1.51384491247891
1.5478414216196
1.55401214106533
1.54260468671953
1.51378385701538
1.51295936843388
1.63588253015152
1.61067428715622
1.55164044694826
1.57550663408559
1.65362523190502
1.63637679239433
1.65695540009867
1.61272127706864
1.59837644226816
1.6322551574996
1.65882204569363
1.65775191470996
1.63155936287577
1.59307799818331
1.62943564239887
1.64458099299778
1.65969973732389
1.62509319228134
1.61687004197022
1.6614100464919
1.64611861511841
1.6182599830686
1.68603192128384
1.63356113112509
1.64106298553672
1.60136432734651
1.63115086702684
1.61144417007103
1.63417053263221
1.66485916957661
1.58601884554811
1.51609599135814
1.4995741321742
1.43332785427715
1.40114740014551
1.38599096012303
1.34838997493974
1.31857190497854
1.29297198850385
1.25667546860454
1.23530066313071
1.2049298043737
1.16690172996766
1.14416676139263
1.15064309039772
1.1271838042146
1.11622962993967
1.09169327600282
1.10090668156026
1.11093423206193
1.10064248173332
1.06111734015059
1.04431637944589
1.05388181566788
1.06163026352681
1.04070698963466
1.03888561499696
1.0213212053472
1.00752675299536
0.976514342777882
0.982952984086885
0.95559719999106
0.939165171082013
0.916685149189843
0.899724788808459
0.881391884137874
0.85956743821853
0.839231585244263
0.805998589952055
0.775765008908344
0.756138303812666
0.720370569142492
0.702183776539368
0.673632101341696
0.640995253419218
0.618121792941946
0.597643865400649
0.570801714761646
0.553054534698301
0.537378512923205
0.529704003747889
0.515482136134185
0.499991728964037
0.482344991221003
0.476223499049609
0.470078145863533
0.461044385615806
0.44828129671013
0.445449217059883
0.442466220231276
0.441525339496858
0.433868063499484
0.434401149687505
0.436564661798271
0.429623755026636
0.423876286038648
0.432338475213152
0.433349241678619
0.432232515085558
0.427895669175223
0.430502357798577
0.43757780528703
0.439932613234356
0.435081941893333
0.431538231256118
0.427166884619086
0.431539387871926
0.431042001972571
0.422257953857247
0.416341562613713
0.423260562400552
0.414239199407336
0.413816811276327
0.410155903062451
0.408458574417211
0.403786117833508
0.404612219172486
0.403638874403928
0.397450641989265
0.402387627215476
0.39953595318419
0.40317475426413
0.409687368003667
0.412500215473107
0.412841531243909
0.412502489985632
0.414239619817052
0.408034267702892
0.420794156761777
0.424534053705311
0.422851549311192
0.423609611226788
0.431323565470086
0.42745067708735
0.43217086419599
0.43034091953881
0.42994795396442
0.432042638176571
0.432522161243422
0.433080665458635
0.433493706248472
0.429957601210645
0.441716168803783
0.4414283012252
0.44471650609479
0.443752765360835
0.445464905842345
0.445883953711207
0.455629146766195
0.463675709468973
0.470809532917774
0.47902146494503
0.490338249565755
0.494975232703297
0.513171652659927
0.530789695866835
0.539135846959871
0.543858627502443
0.552537222118573
0.562653535211223
0.572178822115333
0.568368261730785
0.564601592844826
0.559153015257316
0.558121592794422
0.542076508792762
0.547951742354367
0.535110410723898
0.526317383027363
0.52702148112244
0.525270311116139
0.514551154009902
0.512257382490415
0.520360714906554
0.518809384617452
0.512131300827658
0.526834922933032
0.526642957432146
0.518480550916728
0.51338641538643
0.519840252928877
0.504259368915613
0.502832368265778
0.509079319827243
0.511596451759244
0.495360169562144
0.496457484168823
0.499666302224178
0.496974745814339
0.490342652598581
0.494801316166573
0.482237550028223
0.480144013366932
0.472633746717136
0.482638582944346
0.479920902918145
0.467504568474821
0.468251149884628
0.477478499878914
0.475535357151869
0.470356053410668
0.46243054967148
0.467220591441832
0.459903137242092
0.461500931760722
0.455346350222064
0.456928851257522
0.450587133958882
0.463723517689892
0.454851898679018
0.449151318296536
0.450052338747549
0.455204276439433
0.438456483701116
0.446794966839091
0.445468395172315
0.450787350716762
0.444475164811101
0.434853551585145
0.425836153073088
0.439825709685699
0.443029285235046
0.446841418163431
0.434232365181128
0.431907643900021
0.436029254705841
0.438759836330634
0.437481799283928
0.434293304604588
0.446855138385503
0.443155411416208
0.434098263481926
0.438946982180977
0.44840010168318
0.435144800856226
0.434081712945189
0.453842556975089
0.447776420740857
0.43869988258262
0.45223959348501
0.45745553246933
0.438131402780366
0.452477803524853
0.460881520505124
0.451887088944576
0.462815664846633
0.466779565184495
0.451987815028908
0.464593220826126
0.459892756502411
0.458884856250805
0.493105706855607
0.47596646007987
0.462003269326405
0.48200690465178
0.493993870418212
0.494499386516066
0.496221713897829
0.522151104052655
0.528917787137302
0.532652251883221
0.526321716691196
0.530261255249684
0.536224227859277
0.546137397290662
0.535147215138512
0.56352051359222
0.59257708789919
0.594080069856175
0.599668667467807
0.634228100264237
0.644528288428107
0.665617185577714
0.646587682935885
0.67621748094515
0.693797166194808
0.705195848955757
0.697599814308218
0.680266408476108
0.689814496660768
0.697067916050981
0.68546131181422
0.679159759089502
0.694554636020934
0.707746165325114
0.686230890682705
0.689562250888189
0.690967636622587
0.68998850750386
0.719070036463738
0.696685047719173
0.67670626352297
0.696598063621486
0.667134344849744
0.681110996906527
0.67998712110195
0.655478145036573
0.655273255467291
0.670944170419396
0.710301539138878
0.730556321379923
0.640538856984776
0.673125806769369
0.675464677222669
0.634050804438589
0.675365887117683
0.650687635683061
0.639122493342522
0.648611701050463
0.632811465142658
0.670242219432116
0.661629094507151
0.620682108188841
0.622797097263447
0.615387158427018
0.631204387503037
0.661941678842134
0.666107618184831
0.651623908686595
0.644407286015037
0.67493416342574
0.690792654797506
0.633784333174369
0.635645311925788
0.650238330505534
0.632259708855469
0.660258154614703
0.694392876356892
0.646187625807756
0.649264920267662
0.741349368463297
0.700279623466736
0.69830226629727
0.714050964653283
0.675227429631768
0.703700679528903
0.690240830930827
0.687618025583492
0.667609170501018
0.644875316136199
0.731239060360628
0.738959688736969
0.704257608929391
0.749055197221768
0.701745981823764
0.658937886049645
0.726640011903907
0.817243488901585
0.736848768055324
0.779091340380967
0.800140258063398
0.759865924873598
0.760143332352478
0.776384183134804
0.751337470721813
0.811574867682109
0.858961207215958
0.864734362320359
0.805402980533826
0.759572276677154
0.833240230245907
0.882117990517905
0.922564161700697
0.921912970478518
0.794887015371858
0.775466500368233
0.854197455070908
1.0988596464524
0.935876797795368
0.792685523016753
0.837216308695864
1.12069118827227
0.926351961455908
0.768834299366974
0.762161768531065
0.923680712086466
0.827525036500132
0.76756720378934
0.801801363469814
0.784324267386726
0.864234258609307
0.920514383923981
0.901710156536011
0.910190150228695
0.839091492029983
0.826322308519917
0.958764385443869
0.930301523571703
0.720702780569056
0.747291203209614
0.795518889179314
0.986518793367658
0.705510145602379
0.740626696153224
1.05114590408886
0.991095082490569
0.807499697745409
0.777443790742574
0.87069458721018
1.0988218494186
0.804373149873696
1.23903333897709
0.660779177713861
0.901125240647531
0.808823697650001
0.872522127123974
1.03411452565831
1.59092684420845
1.80716987880831
1.15285817321086
0.909585274417933
1.4115534874722
1.01068540135404
0.948694380939318
0.868833933988868
2.04083790050092
0.950539619352408
0.704653297240538
0.707427692103348
0.656489481679683
0.807193264081498
1.80897136700809
