3596
4000.36533379555
650.420452594757
1
2
2
0.0591424936078545
0.0530078934533896
0.0733711433187185
0.0500968467805401
0.0651041121324424
0.0461994447054703
0.0702324707025029
0.0494245264109395
0.065178185142758
0.0447099122301881
0.0626460595764603
0.0452153633088332
0.059839182214549
0.0444106818279732
0.0581830218563849
0.04084552420957
0.0626684871211723
0.0407439826117045
0.0580235111453108
0.039022068990157
0.0667130798286546
0.0467857417757061
0.0611634630959811
0.0352889418877006
0.0592363562472434
0.0530972951271734
0.0606654484714469
0.0382569796849124
0.0633486697056117
0.0489847146563957
0.0543046218071086
0.0518765048715596
0.0654573491499879
0.0434848252573246
0.056180663150599
0.0460281606579489
0.0555669548280204
0.047574053165245
0.0598804230810453
0.0361250376681368
0.0601159790480675
0.0571334004517024
0.0639926937033669
0.0440980140316427
0.0573792259618002
0.0429112998878111
0.0608273568265767
0.0459968500665664
0.0594654042942499
0.0498731609994784
0.0622590211010417
0.0488678812203441
0.0688152856599127
0.0499181457710845
0.0595420753486343
0.0479885941107851
0.0649345178853408
0.0380899564225242
0.0584584174193723
0.033632571198799
0.059352341272401
0.0473101758705567
0.0628145342324618
0.0400775584959491
0.0491661123752844
0.0447341932400584
0.064748052200388
0.0481052282728436
0.0595775303540059
0.0434879946974004
0.0522132480709362
0.0506543831343574
0.0676712903108721
0.0510357264395933
0.0630561510266425
0.0382329659321632
0.0608543291934641
0.0345805349099407
0.0485494322141
0.0453405465383587
0.0627106384553952
0.0518537916382806
0.0521862273327176
0.0369424727447824
0.0597646464300369
0.0561815200076056
0.0549825603480271
0.0344429026267784
0.0683192975464307
0.0475312502101605
0.0433375413380039
0.0408350541156688
0.0551538047673674
0.0386505459130209
0.0431657651665085
0.036391167588547
0.0513536709264404
0.0376221097788496
0.0504447234017108
0.0482065329021049
0.0441926995566024
0.0463932290106535
0.0748412752690028
0.0283946418412731
0.0943123314222733
0.038260860178823
0.0490150372612796
0.0626267601091043
0.0664463464813136
0.0461658637166579
0.0606663466621237
0.0341673366173915
0.0469363527323828
0.0469848873974878
0.0421752548115561
0.0527791431711189
0.0753990726372879
0.0424888439034314
0.047554599551
0.0504461429608658
0.0215038054587857
0.0451909406640737
0.078956019674617
0.0428075988350163
0.0636904425298023
0.0429102867550043
0.0277551523868065
0.0504871489425219
0.0668868609894038
0.0437096388412282
0.0455792351339289
0.0382670152376691
0.0373631156397868
0.0259460486203491
0.0687290005000257
0.0344616854834802
0.0441460729157657
0.0125415452114563
0.0576311818174591
0.0706918868970147
0.0704718427709613
0.0475423685009117
0.0313255271567313
0.0256946635257404
0.0803367684800994
0.0465541049861957
0.0425078691650625
0.0403804704490848
0.0523828252444056
0.0424963878858856
0.0403088871632862
0.0257748145524933
0.0666011979079778
0.0459260640518844
0.00276290443453255
0.0557106443229326
0.0712454270963733
0.058080126573249
0.0831732291362315
0.0449553670089876
0.0551803986698459
0.0377169375654294
0.0508857271487372
0.0239548973199415
0.047488377820525
0.0236080274679472
0.0492629367801985
0.0521614323707663
0.0503585567402959
0.0252163949783533
0.064784084353183
0.032228810419589
0.0283586351091663
0.0735124447695223
0.0565800093232491
0.0237006090087058
0.0663518402913311
0.0514127515893896
0.0252016822968678
0.0359873066089473
0.0678757815899831
0.0407567499037595
0.0496533716609562
0.0316696900295209
0.0398926361898051
0.0476754284173027
0.0464434216329847
0.0387140672089102
0.0518743373845632
0.018264141778594
0.0449734496835
0.0581508536037864
0.0669431763313678
0.0430967355931705
0.0494480803755501
0.00946113142371535
0.0733070757783806
0.0717639190126314
0.0537671760771247
0.0307665340027694
0.0430731750961443
0.0382057307003365
0.0390909603332118
0.030262972057733
0.0369576874319425
0.00637814962722248
0.0761396927769084
0.0559682583658275
0.0551306144359886
0.0348084760241866
0.039024141167729
0.0124688240605904
0.0879550514246029
0.0631516813516761
0.0471765588145118
0.0350769101694252
0.042865207450225
0.0356200943162876
0.0588782941489907
0.0403144330566711
0.0460611324888972
0.0356744560229911
0.0476640783490902
0.0332999885384458
0.0476326255496771
0.0307342738874444
0.0539781074700833
0.0362413886177315
0.0449121263507351
0.0286689788436825
0.0539131791462245
0.0401617154174439
0.0456792758882124
0.0389493718924657
0.0310717394307487
0.0373603755068414
0.0643864588036727
0.0424574831945429
0.0492548604419522
0.0339852048059512
0.0456849132065522
0.0444350950584142
0.0501077175553738
0.0470330687411706
0.0381170088243357
0.0228130561662609
0.0692813823719916
0.0467340191154114
0.0552930245612884
0.0174539122498608
0.0612942093172443
0.0369133721045138
0.05212744487231
0.031530637114031
0.0524224180899034
0.0215935595546913
0.0451503541941322
0.0556663902126337
0.0566226791221078
0.0226350042739624
0.0690221887733935
0.0414332233625329
0.0488811655114826
0.0232560144780318
0.0158650098763188
0.0866566167052047
0.0494169245189385
0.0188083079281619
0.105408107012506
0.0508637223106103
0.0539502155696421
0.0256143050198746
0.0208197027462251
0.101279834263288
0.0998630649615897
0.0364165697263947
0.049777668271218
0.054740339532717
0.0496747752159617
0.0433032594026167
0.0435951987096752
0.0421012002062386
0.0406842495212985
0.0509830605442826
0.0910696560273193
0.0145814706120399
0.0703965582894585
0.0634998084178809
0.0674242036710283
0.0412055656558361
0.0404148993827786
0.0309417765921586
0.0657160905798133
0.036175272746369
0.0707756665574436
0.0439405572746587
0.0493213844905559
0.0633867763579776
0.0574580834534019
0.0340364877112261
0.0528464035118941
0.0520353071641815
0.0598149761952518
0.0445518527579914
0.0461758985106994
0.0521564247965267
0.0429054843489446
0.024477047901007
0.0911120095715346
0.0520326505847773
0.0528520901377157
0.0584922560038287
0.0634828471504945
0.0403087752874479
0.0498935601496911
0.0448243085949149
0.0561431649646881
0.0352294958251951
0.0351649168217009
0.0602353592142202
0.0655448889621699
0.0480795049000955
0.0534670854139711
0.043239877455082
0.0559082638472677
0.0497480769544516
0.0553142346012975
0.04940143123494
0.0535937525341713
0.0334289350561176
0.0767934603575306
0.073543403363278
0.0318016393373643
0.0711779854654209
0.0919205038825761
0.0554285112780214
0.0613780125725613
0.0560547870187119
0.0634724520099749
0.053510614539958
0.0756531867539194
0.0511650600077768
0.0582533460628393
0.0658499702032843
0.0677541941926512
0.0448249527700035
0.0488298920803502
0.0822405433493667
0.124471645500038
0.0789977585677389
0.0757605473615616
0.0361119898459953
0.106981825646251
0.0769430613369828
0.0942814663532638
0.0869679718032456
0.0770461796911257
0.0738801413473571
0.0826166457506224
0.0753193454128407
0.0830483115402981
0.0801977441964445
0.083514597677262
0.0813634947641292
0.0833786964149049
0.0848161032400798
0.0830890875954034
0.0685446349358448
0.122928062509964
0.0968011612632551
0.0994292007490685
0.0922227245599995
0.0868447123014404
0.0956813184953425
0.107530405247268
0.117480776477108
0.109562473889042
0.114894435451761
0.136345459170828
0.102357554159787
0.116514968462773
0.102133916532518
0.112160188034297
0.106177137983365
0.118489538457562
0.108559940408082
0.113687935646625
0.110908573098445
0.12644492255799
0.110119978357011
0.124198825369929
0.109478068580805
0.143122805899409
0.118791511164332
0.138810289011318
0.106155037717284
0.141759269325884
0.136725959695589
0.182306222277439
0.135322804633844
0.153690388183827
0.131601517893489
0.145971478179713
0.136447005018632
0.156445705264092
0.143055551865114
0.149360485552721
0.148997079836812
0.169643356323698
0.169245546241204
0.179297948812803
0.143843940509626
0.180750651387854
0.157457422379888
0.177405128060366
0.174148286322103
0.18645009694507
0.16190472699198
0.200584310464432
0.176004904886734
0.193719296557161
0.192919056714495
0.193661304962514
0.188777910875216
0.196397138913132
0.187588661780314
0.202954672545692
0.198979747517315
0.209110715786481
0.1897327161269
0.212892805431292
0.198504492862279
0.212410064948288
0.219767813394906
0.227867077754325
0.210183847657527
0.232949520722627
0.213751589436982
0.237966389842988
0.213818499111997
0.252460303726627
0.237135702499205
0.255455300116313
0.239193931066745
0.258548640160061
0.234500406403478
0.252873617371601
0.240085567300462
0.260840199874125
0.239480950017972
0.269163189982882
0.252032507475215
0.276680960798997
0.256296168317534
0.275344846533261
0.265378282687666
0.296185489732064
0.27006240264037
0.297534426819372
0.277719137479504
0.304828388695376
0.274531460783316
0.317429559048358
0.300042396470428
0.343746018338265
0.311233986193078
0.32551852251812
0.31433546629127
0.34381016901099
0.309894693571388
0.331450884385408
0.332686608593106
0.349811362348504
0.34064031259134
0.339921574693267
0.342007795477697
0.35044688689094
0.351240300159616
0.364448374164613
0.348813471003736
0.372354260206229
0.35701326160194
0.380453219908832
0.37285881643083
0.372061085746384
0.361730724753679
0.398329848467989
0.373841323877408
0.416506643298511
0.389670392222852
0.419528678723801
0.394354435461837
0.394834497350998
0.405150887340718
0.414199721673627
0.404581383086708
0.423072228952352
0.398346226948134
0.44267128157791
0.415988938253892
0.46711543688895
0.413904496234099
0.452382440561136
0.426472400012549
0.482685326934091
0.44623335283686
0.459572745494501
0.447731466413565
0.482851437624086
0.438175243477916
0.475784434308831
0.483968854295116
0.526047957750851
0.471369212769176
0.494689079788198
0.477236178097437
0.501003732288379
0.500423617228286
0.527735604930613
0.500823892329027
0.507954684023556
0.476977212203108
0.546327315412082
0.518439631891912
0.537597337893861
0.529703671869728
0.58586390008668
0.557460561281791
0.565760400019122
0.544202660972535
0.587607985031506
0.549707062862583
0.593013590750296
0.550587758277032
0.579688501036536
0.550163901019014
0.618989187494839
0.571528168569505
0.588645110603571
0.583087286545959
0.605886818206003
0.571814034679355
0.645553198580216
0.620967547239908
0.638343319268143
0.579268204994432
0.67055089371978
0.62361797215585
0.68120835109389
0.600173845280657
0.69660862793453
0.617582988772044
0.694647610096215
0.654115257541976
0.698668898169378
0.677225241569228
0.678832501074399
0.639550752243932
0.680125725431152
0.66495177046565
0.693700290753166
0.672444965754593
0.718781016307979
0.685772658025701
0.709237361303956
0.687144453123495
0.725791319487657
0.663229939415532
0.775161407984204
0.670016404883827
0.761142321285323
0.687430654754502
0.725824767415408
0.710720195514205
0.800777922439324
0.762615899227656
0.81450429633096
0.689796055790097
0.762311611178084
0.761290622729797
0.831457914221922
0.729930123104389
0.777875677647212
0.779826027681192
0.821684668839157
0.758426357513526
0.81296759882931
0.78014289385261
0.821968273313656
0.804071702120144
0.813784592517285
0.80315238120207
0.880112038250181
0.779026302878292
0.819485140231989
0.813453503964537
0.86562118227893
0.82292777760396
0.85617534481516
0.821986142672674
0.859420511347328
0.80666377317231
0.862910983033281
0.84232509215591
0.876558296115418
0.839010654737166
0.892677801404269
0.859342842663395
0.907985063969838
0.86565452591732
0.899565623428083
0.878619725145236
0.963489389345635
0.878497016696945
0.944786948968706
0.856499416981217
0.931625080659484
0.896386510608091
0.937885792604625
0.909548550423677
0.980584880075828
0.867644054412997
0.959685052705204
0.910192693276081
0.963144883806059
0.921792803062575
0.97560406593259
0.951781013794629
0.953465501156857
0.98448574668303
1.02337830448394
0.907356317140786
0.973333927045583
0.992388822448833
1.02699828914077
0.995751194819392
0.99283979358441
0.950874305134658
1.01202294197675
0.948810495023746
0.977888961601303
0.976034466805353
1.03646021236953
0.948418407177721
1.05112459877051
1.01751973895976
0.995582619528931
0.962201857656981
1.05768821039332
0.989611405833252
1.00970054167707
0.997609701709254
1.07912659285187
0.97858019371505
1.07040580741626
1.04757677804791
1.09117055837907
1.03361238633225
1.08623746729146
1.02038958300567
1.12497370071487
1.00129709521181
1.03593391631103
1.04008662144739
1.05637379697499
1.01619782378569
1.1008762143239
1.0258270052664
1.13640694190862
1.00733948308151
1.07711445688772
1.05219745653539
1.10095474123816
1.02854509130731
1.08352033196099
1.02426648392304
1.09265820453738
1.05960295724879
1.11061787788127
1.05939398221574
1.15809625078183
1.04724358127193
1.10726856359185
1.05583963587726
1.14414299881713
1.10068488626448
1.18326318616477
1.13364851767703
1.1533678883643
1.07397916169829
1.13456421525475
1.06235602788823
1.15371364462458
1.08032381183167
1.09317894333242
1.0992408305073
1.1907487941122
1.1022498060601
1.11831761126457
1.09350978055873
1.11395136636354
1.08673100060864
1.21703390986438
1.07516647257444
1.15627581886531
1.13116695291978
1.16332746852548
1.08163797976272
1.11155226512245
1.12142918257882
1.12046786164222
1.13543132324126
1.18474235131554
1.12196184783301
1.11339643672697
1.09422325891567
1.14875297754398
1.1476048266002
1.18889315749688
1.06809668891204
1.16488067186432
1.09892827126346
1.14801042992072
1.15979614666216
1.23212328180592
1.11191406973774
1.20574281958522
1.16635966939269
1.12488007392391
1.10865148920082
1.19502324484243
1.12701681702804
1.14703560907922
1.12597937035896
1.21575942894369
1.11457022838979
1.24521514405262
1.105390753868
1.12665902496546
1.09133818675097
1.18149120852804
1.11801176674022
1.14184758388976
1.10259536308827
1.1626862546836
1.14221789437735
1.18682309007662
1.09149185295998
1.15234648891344
1.11150833045415
1.19292512808439
1.15131799342383
1.15766469014627
1.15461245082228
1.15174866894338
1.11140075520808
1.17915138555704
1.09400285192925
1.24355584152744
1.12658807587007
1.26008408922189
1.16018496560217
1.14465466627413
1.18288829891489
1.26844627767397
1.17488132393708
1.18411188721586
1.15614004527581
1.17605467384205
1.16125896854065
1.22590846259725
1.13292341437228
1.19108487941945
1.19299984841934
1.15173795898434
1.15074505529854
1.2072774574869
1.14403836823667
1.17699130823566
1.14832737238322
1.18577800715394
1.0589002529604
1.1876340441493
1.17176982522146
1.16133672016144
1.0940937132575
1.21035811255026
1.11962230175239
1.15769111790685
1.08386464922971
1.11101266956644
1.12748265657688
1.17131209032624
1.1366760462281
1.12195667409272
1.09444148594238
1.12110742417272
1.07358471798621
1.14492089336333
1.12808012853945
1.19967973263312
1.13930782425497
1.1687565685653
1.11412119238213
1.12772676569133
1.12888748351973
1.11101559545332
1.0486334414777
1.094249310566
1.10163132980764
1.1341689516411
1.10043286956188
1.15496056417354
1.0779085721545
1.05962101960099
1.07160287797844
1.09349169375767
1.09026087246457
1.07221349463552
1.07569575781682
1.11101359272052
1.0826525732393
1.08300632595437
1.08941905057212
1.13778502260344
1.06294807578467
1.08447986893231
1.08352914491728
1.06694918653464
0.99607734673609
1.06961029241949
1.04388518875783
1.05187518914543
1.08202865746366
1.06787508262136
1.02872724451456
1.06529254909761
1.06058701450987
1.06097026103965
1.02280812223947
1.03274960188999
1.01262354140933
1.06083500016118
1.04839914609408
1.05928593065489
1.00371668562077
1.05733877647921
1.02778481707925
1.01427674513915
0.993355523458522
0.999830896031014
0.976929970483575
0.998561748270272
0.963107324105687
0.988580718631789
0.965459594334801
0.998380414483699
0.954902351533676
0.988170803247992
0.99627992530011
0.973067837644328
0.95017080817359
0.984257836707359
0.947198300845323
0.991510200594293
0.966299783591597
0.961476929854375
0.917059725674747
0.90870545043596
0.928135501357071
0.985326977364186
0.938146532041121
0.929871118519409
0.913993597498078
0.90986600196682
0.87858598111137
0.913718315156031
0.917508698616075
0.929781252283884
0.897018960455906
0.917764133545642
0.876677403144748
0.914836824713579
0.918405837514013
0.911768284699878
0.863294481559295
0.88912593245871
0.864767434794276
0.878707393898996
0.883680293256232
0.899645955994727
0.852689109729777
0.847712601701794
0.83904211486346
0.851193078354461
0.830874669652825
0.84662808358443
0.851193194962763
0.84440405557937
0.818421665084125
0.837033820081266
0.824993248821576
0.816625939777995
0.798644922824365
0.83523468687168
0.806496886915048
0.821449660054507
0.810071181190526
0.796157040097389
0.762683022902131
0.798527589105411
0.797886259779934
0.790006872366915
0.771584095042768
0.757411456496079
0.752724280946589
0.773676330800702
0.753566627995559
0.76351119915836
0.754240268652408
0.758265056327785
0.743436863953876
0.750570212776517
0.755635203609666
0.753342044125287
0.742012861812051
0.740666772397419
0.709760340855217
0.73767869191903
0.724848599480617
0.726647594692913
0.714319233405505
0.713551820392625
0.703786735255903
0.710954300447424
0.713671781650826
0.699310378503676
0.674266230889669
0.699399555884573
0.686923178968079
0.692437269426823
0.666802905873604
0.668230865708615
0.662861304045466
0.696432415082812
0.683795152463004
0.668014984695768
0.652405446864804
0.678348562776911
0.652299159856697
0.673198050819977
0.651511284518058
0.654406311313296
0.651097105597022
0.653142896222119
0.637961142436235
0.63457517220344
0.635975002174097
0.640404475211801
0.626858795177926
0.632570901708227
0.630371778693142
0.6246081302211
0.623852076234343
0.626605351137147
0.615138361800579
0.619918324804518
0.605972973119619
0.60173359495634
0.603270231696707
0.611173069480563
0.594547735574451
0.599978256217128
0.601550727271977
0.599358406298444
0.593359819785863
0.587245857060867
0.579508047326488
0.583594246539091
0.56970666581025
0.574911417366107
0.563882278462161
0.577923151064517
0.575215321455251
0.573021175590564
0.556854947585238
0.556529693699668
0.558371251095968
0.560443000278471
0.543681872878183
0.5542487770922
0.543931663656626
0.543966932114952
0.540492451133114
0.543889746945849
0.540846197872905
0.53486239895178
0.523719004810473
0.535971314618231
0.521347229680737
0.528960042652829
0.523000436596786
0.52165914654213
0.5254017855879
0.518429169818176
0.516428464153825
0.516914460771809
0.506189156038742
0.506502122348696
0.496566067384735
0.501422859174672
0.492431498495699
0.497420783113993
0.50545093491321
0.493722358143643
0.483612759767766
0.495761723641478
0.483989013557227
0.484071806642464
0.48074840846391
0.484268403638444
0.47249084438866
0.475213811087934
0.466408881299152
0.464122235635932
0.469847146012295
0.46605889784404
0.452184684535212
0.463062966126359
0.459016859890082
0.456799154302432
0.445983266624468
0.450327140402465
0.44090174476323
0.445833371268197
0.444963244112029
0.446912451478141
0.439582375543749
0.441906918670641
0.442053500037574
0.441675824652031
0.429644736291695
0.435076465838798
0.429613645726509
0.430749311397842
0.431916847486401
0.426756133538399
0.420749935547756
0.421471946551314
0.416113422073211
0.418003936134502
0.415182030783118
0.412604665115056
0.40857924935779
0.413222809352666
0.401703890120992
0.406580456539714
0.400877185692715
0.405521230773844
0.405936092051072
0.403344300898138
0.397703220661561
0.39346064638861
0.392355487570397
0.400122336271808
0.391218164109713
0.392749113097062
0.396037919219956
0.388233165142958
0.383489579852829
0.389938233314758
0.37817019951024
0.386797756201766
0.384549281338054
0.391669482159313
0.38984226880789
0.388228200302182
0.390174193334673
0.387351911081607
0.38737575231244
0.383059532140765
0.37669296847636
0.38509846093641
0.381597051365293
0.387748113395849
0.376674885104063
0.384183685783706
0.388591743661603
0.383325250294164
0.386825960859324
0.386700228447945
0.383011463941698
0.390715608751718
0.390981853698777
0.398099648271347
0.390187775589517
0.40038710872412
0.396394291775788
0.3962379577542
0.397176624048889
0.402332882343152
0.408693055854523
0.4077742278748
0.405501594992643
0.411602473049206
0.409389193906685
0.411278449479817
0.409254383507529
0.41026491361341
0.411288851539433
0.423400306235195
0.420336212551221
0.420026036557364
0.424148743858126
0.429593787081163
0.427799255653972
0.429203656104901
0.422764629134824
0.431109129000637
0.420837196878243
0.435804783845135
0.434486775379387
0.427755116776155
0.4408156720453
0.445130666225592
0.44830259067766
0.453362694725914
0.441654909461557
0.452119576165652
0.458655988046737
0.459686905529007
0.456720427234953
0.470690124544062
0.466465568878377
0.466758079120293
0.474731429585346
0.477812313769508
0.476067418977887
0.477623997090747
0.47980325149554
0.484918932136883
0.484720651492473
0.493237040807018
0.49678243744191
0.494475689013325
0.497200741184687
0.497551616578234
0.495183091655378
0.502101989578119
0.496303814499218
0.506974697247016
0.497196887543604
0.497507183460225
0.504186707339248
0.498816853472579
0.50241298216249
0.501575174627875
0.498352221731756
0.506137703739064
0.503755862557037
0.496142773339145
0.49002189331288
0.492774374949076
0.497985200664154
0.502060014510535
0.494787994616501
0.506379410907421
0.502459140398237
0.497336063095047
0.495633462755763
0.498328238899925
0.499062688615762
0.496810622720404
0.494058782959168
0.502466642986868
0.499615538123125
0.499988583091103
0.498139448057173
0.501177141289278
0.496068139971237
0.494274735195196
0.500934067584902
0.501748748388733
0.489152340451895
0.493523471729665
0.495695034230791
0.499346226187817
0.501542100414041
0.501865790438564
0.499693212525202
0.500354487704196
0.500535331958823
0.499951523155251
0.492559144178864
0.494834162436362
0.498341580400676
0.493418598112087
0.487368354963052
0.495762082958706
0.4953900261487
0.489334136263845
0.493625381937633
0.503585517642799
0.499110416634937
0.493192048364553
0.48912498825846
0.491046313927532
0.490790217759078
0.488863180008502
0.48383289729622
0.485578235649206
0.486627161552606
0.484011784805037
0.474777847145493
0.474818788923145
0.47215082546114
0.466075894650799
0.470965427493314
0.462828822174921
0.45702091674895
0.459535169455023
0.44849716489544
0.446553186043611
0.450454563254461
0.451233522326458
0.44207159704115
0.43185192717161
0.43325107242768
0.432310976839978
0.427885024920502
0.427011197599218
0.423144603605926
0.415934922981548
0.410238882863215
0.415084288904103
0.411599086799641
0.406095037608241
0.407490165927684
0.408146477237907
0.405175504909567
0.397644379524272
0.393855881075145
0.396834733672378
0.392593551283732
0.389894453933035
0.387499411767834
0.383494186244955
0.380334093581363
0.379317210267408
0.379288127588383
0.374592472241294
0.372609177393238
0.373659330045152
0.367608227635632
0.374735437661113
0.37175534089416
0.360900055215885
0.365924509160235
0.358692442720401
0.352989292823448
0.362289870762583
0.355984944904859
0.353582369263186
0.35284386105073
0.351097947784534
0.349732795156133
0.346630434379358
0.350512415404757
0.347714248586676
0.340120582738137
0.34061800834425
0.341957079487055
0.339481326631522
0.335780486345989
0.336731911329478
0.335554086447616
0.326639626705093
0.330713181553262
0.335816851871602
0.332847044300174
0.331126357102831
0.3279407547344
0.324690434941341
0.327536904983577
0.327726148570634
0.326628918844289
0.327998196664291
0.32031427789014
0.315075908783743
0.320081023577993
0.322723080768107
0.323457092806091
0.321103507904704
0.319542682282516
0.317848804358541
0.310547418252036
0.31431785823133
0.310085415223189
0.30637277844133
0.312616447414314
0.307403245751393
0.305055558182849
0.30788519040336
0.308268744583496
0.307080838079182
0.302105964020922
0.303326102664719
0.304940490139626
0.303070630322955
0.30295350611941
0.298591122453874
0.303226374079531
0.300754336381642
0.293532275280335
0.297338835564599
0.299061141998028
0.292315936148502
0.296830964344054
0.29614897592097
0.294173033014677
0.297557178701368
0.293062840833645
0.293781743074278
0.292056835422033
0.294396849616252
0.289599929073214
0.281945628951403
0.288421255269085
0.285012522733356
0.290221789559065
0.287325789853209
0.2841680496375
0.283685432984436
0.283498109664495
0.283235861639624
0.285448122069827
0.284848210676258
0.280528458723484
0.280604336696573
0.27918903762528
0.280930871687448
0.284487247321791
0.279027574820633
0.275797027711532
0.274390431636333
0.276874343531791
0.277714807576881
0.27420807765685
0.272815021659118
0.27410386390832
0.272436882562303
0.277306034764797
0.273901106510399
0.272908744097714
0.274337927430362
0.275872675068202
0.272085171259321
0.273517192473727
0.276734805599038
0.274427035614748
0.270364162594371
0.270082674830382
0.273042136937621
0.269293822950018
0.264575829441974
0.270066171245911
0.270659299553252
0.27152363242148
0.267584009790519
0.267270232344473
0.270477022820496
0.272163897174067
0.268489487592669
0.268188860497634
0.265132909704895
0.266451221576784
0.26308761987062
0.26613209479836
0.264977727869267
0.264666449882517
0.264542552815435
0.26195991792931
0.262907904993345
0.264697894384506
0.25692644321091
0.262297516548162
0.26200632390558
0.259828663924529
0.258385401294075
0.256194921605948
0.259888155838179
0.259891460195014
0.255365660797568
0.256967528931049
0.2575822202083
0.259491571184503
0.255567577679963
0.25487036617005
0.249509027691592
0.2512995361657
0.251379766835006
0.252747197109017
0.252783732024114
0.248697836981305
0.246584605384971
0.251059349515246
0.248610313721004
0.24910711266728
0.244626671887952
0.248497999561803
0.246188871323373
0.246140374533649
0.245013047935468
0.243253921470878
0.244164895876626
0.245688632310824
0.244017689609539
0.24382735878818
0.239431269149025
0.238703483947753
0.238104660472891
0.239328653877332
0.240304513688482
0.239676552653193
0.235602200369267
0.238831299397441
0.238755402063473
0.237767703604627
0.235161167681528
0.237158446894783
0.233427183435821
0.233420068398678
0.232536014040111
0.234368590104666
0.231677009672384
0.233318105507381
0.231108438558505
0.229812531719309
0.228955504679872
0.230773735378983
0.224262936215006
0.229579925951002
0.228455311000902
0.224317572945127
0.224170139944479
0.22247371540188
0.221242022685804
0.223400372592787
0.22238977819097
0.220913953167759
0.218389560537859
0.218754839097766
0.219849532586868
0.217328243936338
0.217215584447129
0.215078896593252
0.21090084636967
0.212906667970138
0.211379136526344
0.213826443008322
0.211277900303305
0.209800314563269
0.207123288060113
0.211229711596706
0.209070957951392
0.207205441615906
0.206727528987668
0.206908657459154
0.203909481025944
0.206416549014416
0.203848206869505
0.205709228790132
0.199714106255633
0.198197175791516
0.199957107507763
0.2002225782429
0.202875081098211
0.203134276325052
0.198852452965499
0.199463392036774
0.200490955146417
0.19657209667737
0.192316089210721
0.195618053727863
0.194458301387317
0.194459569363909
0.192387455860566
0.191920555578701
0.190937875600074
0.195418110629548
0.192998290702851
0.189875108078711
0.190601819258304
0.196219840984719
0.190231971476936
0.19222117685239
0.188539038742456
0.187414270965692
0.187950048400909
0.193431691105874
0.185961821295337
0.183914845046664
0.186015778790403
0.189543266176298
0.184890293623427
0.183215287762905
0.182344213086414
0.182478650400062
0.17923969292653
0.182856004710027
0.181524419038259
0.183428613356036
0.17999768027062
0.182068749511842
0.179150051479682
0.17819034326736
0.178797765070773
0.179097997917949
0.177872217553929
0.178998610828788
0.170596444621155
0.175524474671842
0.17374518750872
0.17409399155347
0.171986699424908
0.17283405031673
0.171035445006439
0.176910192059441
0.174022149340914
0.172618442381626
0.173763326693399
0.173496194822041
0.171811122949572
0.172535198928465
0.168619792899325
0.169509620388836
0.171139947360645
0.172176408329108
0.172318877244962
0.173374183962683
0.171556506209076
0.172978028513452
0.167318173562298
0.170530891376162
0.169822580194573
0.168957209579822
0.163634921402671
0.167637975854607
0.16849351102649
0.169487221965987
0.16479287740215
0.168365237463623
0.165400518189395
0.165429979596933
0.166756785034731
0.164510600726137
0.163331651967962
0.166541426204806
0.163795737182431
0.169007554641722
0.165873830880089
0.164323881202349
0.162850378142756
0.162847048622978
0.161133867384745
0.160676339109148
0.161681952320708
0.163952940883846
0.160246624475499
0.161603867299576
0.158224332050655
0.160105961354825
0.164320553386106
0.163248787856086
0.154193577058281
0.157960475889394
0.156602432002991
0.159137013645808
0.157431434691294
0.160067213781866
0.158346235023643
0.155996596013641
0.153883617100533
0.155008789293672
0.154141777520435
0.156514263254873
0.155589711341572
0.156133066281324
0.152243405904674
0.156586523971247
0.15293603537287
0.150861371377864
0.153949691676986
0.15391470560138
0.151932865228422
0.15213180325306
0.151596658514351
0.152626807232463
0.148561164279019
0.150981915106042
0.151118876491315
0.153584313888263
0.148370527693112
0.149529348277777
0.150845787014567
0.151491553522355
0.148275505163815
0.149919653161521
0.144314177117133
0.14960247130708
0.146068546909203
0.148883994112902
0.146111415881999
0.144915950816889
0.145444803872499
0.145416394640152
0.147791164863405
0.146227964203483
0.143746182787152
0.147642911869717
0.144211525414558
0.144576161321932
0.144455810236354
0.148042617936532
0.141959794330836
0.142820000133146
0.139661484232574
0.144265642215964
0.141158227740587
0.140268701260231
0.138970570502728
0.138794790253095
0.13866864628917
0.142864458026373
0.135698689971152
0.138290218802226
0.136660317148171
0.137687616067026
0.137180718640384
0.137984122560732
0.133852949104114
0.13393733670344
0.13403392974218
0.134884808060352
0.133220636807514
0.135214009355479
0.13076609937393
0.133506740816638
0.12794841848212
0.130611760052112
0.129162643963838
0.131312930575519
0.128322361536619
0.130363203987263
0.129363550009192
0.128373403189651
0.127150018869586
0.128286282918161
0.122230909674385
0.128864083510581
0.125413447073393
0.124701614916685
0.124080091679937
0.125511844165884
0.127109141361461
0.126103144253546
0.124573407388744
0.121109717513984
0.122541545467427
0.124875164266599
0.124838632908065
0.123926708006495
0.119926521382514
0.12295328266388
0.121111617175987
0.12236975449419
0.118597959175209
0.119528859552307
0.117911542583557
0.120132018933411
0.117993308116656
0.117876974567721
0.114095150137098
0.117695890297302
0.116200670825655
0.114870259776836
0.114990121708841
0.119024882855238
0.114175580358356
0.117504474890078
0.115875088400333
0.113900873840759
0.114961181245512
0.115158665332898
0.111147459579221
0.112139273739366
0.110861331907336
0.113398961338151
0.110891380453108
0.115757833279317
0.11049916135074
0.110350503190964
0.109172340348249
0.110764418663418
0.106268577315386
0.111249400657916
0.109429593286013
0.107445909688719
0.106482640107768
0.110565185015352
0.107290428625457
0.109077663296908
0.104961271314536
0.108462013785085
0.10464928750763
0.105923383766036
0.104970780960479
0.105186898431885
0.101960739983606
0.104535832198338
0.10380481562114
0.107080680337475
0.102233125634824
0.105038163134121
0.0996644214243538
0.104072081812186
0.100346625032899
0.103891759778747
0.100164800920715
0.103030777628093
0.10272325979934
0.101973316794486
0.100446171069937
0.103505028409707
0.0992078957989951
0.104894830134706
0.101030025362648
0.0998038545503933
0.102096885536991
0.104677563933112
0.0995859101437106
0.100695332446148
0.0949616289619805
0.097924428911002
0.0962448743720704
0.0942505744540423
0.0915283877214821
0.0967921946180377
0.0944336588579174
0.100495690764313
0.100768139710071
0.0980610655979065
0.0857812439185964
0.0920031281365033
0.0925978944269987
0.0990232185768718
0.0902334020843596
0.0920285708879117
0.0910209420779723
0.0897706050240252
0.0896015491575698
0.0978589314614785
0.0878101885112203
0.0948766573531861
0.0893046515659715
0.100601023544342
0.0895699878233178
0.0907998360106172
0.0942716358800581
0.0960790140770485
0.0985778331029218
0.095806733398454
0.0871009845817646
0.0851535071390508
0.0854799197458259
0.0924202174339253
0.0809254636126233
0.0945864244841435
0.0863585434634127
0.0919986188819163
0.0812771078866898
0.0938908595208367
0.0798468681720509
0.0893756656280867
0.0795872592279521
0.0991746548783726
0.0841542265449164
0.106507214099121
0.0840066836321095
0.100246663559612
0.0710636902905785
0.0968682936266405
0.0713833923770153
0.110434826229891
0.0790002514557253
0.112850795081021
0.0622523227567838
0.110718057999752
0.0728836191223592
0.116867036102056
0.0601675965250978
0.111447877629243
0.0760856940962279
0.1119136790224
0.0696185986503286
0.106247760412489
0.0831769686200064
0.0940227206322252
0.0854827422702052
0.0922681731719138
0.0886925532491415
0.084300486126922
0.0982166576196241
0.0848593913192519
0.0928582338333058
0.0849408102064223
0.0917872512800499
0.0877799816403202
0.0856741777715831
0.0892319079946751
0.085607721808403
0.0887865666828794
0.0833199464626506
0.0898500619355199
0.0863863264237967
0.0900936329707681
0.0858188790064695
0.0864229437192544
0.0847635348954212
0.0860481754120265
0.0870352469176129
0.0893887691571331
0.0826387834091522
0.0865245255405553
0.0840639548418761
0.0850109763963885
0.0849508579525833
0.0849239216800968
0.0855416734506973
0.0876651266459106
0.0838264459895201
0.086369368616871
0.0841438594536155
0.0889360798157076
0.0840730745862169
0.0851107654476915
0.0849825535031988
0.0874360395975032
0.0858400935813873
0.0879437589463971
0.0837693915035715
0.088783400764642
0.0851854079128838
0.0867211945041515
0.0850531365469017
0.0870063505219332
0.0862749171337479
0.0871614319101495
0.0847113882172742
0.0862845204647598
0.0833818067306723
0.0873624231234613
0.0868531658862273
0.0863299532236851
0.0842889038151488
0.0859029321194034
0.0852987429760165
0.0857175252421435
0.0831336234333154
0.0862960681748656
0.0838180730440059
0.0861560389287341
0.0849327198816948
0.0876991199317344
0.084533953534295
0.0830801439399702
0.0852270215683012
0.0879958973053283
0.0865177397130987
0.0864525490583022
0.0853216986552633
0.086463452346805
0.0823442010291399
0.0855154426719511
0.0826415054689234
0.0830051588082628
0.0847168583605424
0.0860396848841564
0.0838379591397198
0.0842517780659299
0.0853094365538292
0.0861663135904007
0.0812260893577445
0.0854832922478894
0.0826102377885997
0.0837398834949103
0.0844409523800493
0.0883682142954812
0.0836358600844639
0.0857892734729839
0.0841077556289958
0.0850295493130603
0.0845968235942822
0.0850535526593156
0.0829720768978469
0.0861950331269362
0.0828487981017368
0.0866453487493293
0.0849732202097854
0.0880975199426911
0.0847576667656183
0.088565508774699
0.0837284871727836
0.08631230622345
0.0851976184413495
0.0854386302960386
0.08583858762847
0.0880517404434663
0.0858837817992487
0.0870708932465556
0.0848361929989392
0.0893561982882708
0.0876791739050655
0.0892706525916917
0.0841025415486096
0.0894209664943415
0.0837978969819916
0.0880020678607526
0.0858296298269187
0.084868612554424
0.0869748361394001
0.08837976864346
0.0840878334499986
0.0878315297502243
0.0858258282356297
0.0881429616186281
0.0861487351457106
0.0875314197383923
0.0847459652766427
0.0906899528031124
0.0861487773171763
0.0842825095210229
0.086119552167592
0.087661955423201
0.0872358832711613
0.0901686674005797
0.0856053816618407
0.0900016893738998
0.0867104821565554
0.0907268014104978
0.0866351421731146
0.0897461993615262
0.0889429444864718
0.0904362816939327
0.0864199626256464
0.087621718409991
0.0875897477621312
0.0901943470876439
0.0862721376463775
0.0893698248245506
0.0877051246609303
0.0906230074731407
0.0858267079265819
0.0889833443225965
0.0855805719890347
0.089275339683077
0.0873591495960408
0.0912561081824202
0.0899971075609332
0.0889507051199303
0.0887139119654899
0.0889044717334489
0.0875027444846948
0.0928401371959943
0.0901796035152873
0.0910657525320791
0.0884215096575177
0.0928447646995888
0.086538658314794
0.0918632047354059
0.0890083621050746
0.0910839053815422
0.089841735567577
0.0909491211308137
0.0917435166326045
0.0933755657864019
0.0876444377738917
0.0926408523498862
0.0878792330607284
0.089621341080491
0.0892486650479045
0.0906533758544601
0.0872065396211341
0.0927265271322009
0.088339529779639
0.0902014969438403
0.0858451245331624
0.087880969656795
0.088168137676855
0.0909067332895007
0.0874782023673212
0.0888731346704729
0.0841327144593313
0.0883620622817722
0.0852816602776579
0.088298505471809
0.0865294986742382
0.0890697904263558
0.0850449291910375
0.0877504207707325
0.0834924303627427
0.0866343545051645
0.0829934803876499
0.0875204515653218
0.0853084135691494
0.0847372059716704
0.0848057448944542
0.0878353542032444
0.0846200875088208
0.0882843343361506
0.0819683776099131
0.0878635132294612
0.0851074282060554
0.0872761399790042
0.0844450535812714
0.0857582174618778
0.0830564768686951
0.0845696505206928
0.0832596620652634
0.0859412716616628
0.0822426274665085
0.0857391033855197
0.0831396148112953
0.0848811975276031
0.0816125223936543
0.0832633842903511
0.080234534190932
0.0822694531540703
0.0810583919215884
0.0817013830188432
0.0830928312520846
0.0836247938146169
0.0794880704441211
0.0837293956691232
0.0816653838721366
0.0835117276326668
0.0811214931436823
0.0822205102058961
0.0804714813674617
0.0822518416667082
0.0805229121343358
0.0826239141349211
0.0787404548837198
0.0825077237985083
0.0811675287640489
0.0820497709658102
0.0817077424145529
0.0805850970520945
0.0796153571950312
0.081114664923988
0.0774470759321014
0.0812366996424021
0.0781336495304932
0.0793224567848161
0.0761196238176523
0.0832177142761082
0.0782065641227677
0.0809189474884855
0.0772007682846248
0.0802379192116142
0.0759958018273184
0.0782986196176226
0.0765895344628563
0.0805094932812306
0.080177055308577
0.0789750605765078
0.0789342707306272
0.0807995206661519
0.074079973203737
0.078433194747175
0.0760204764410764
0.0784947569271266
0.0755515077015172
0.0816583535253163
0.0754900997686978
0.0783914843609285
0.0756555169287274
0.079407291889231
0.0760927188297925
0.0763320887099022
0.0746555341639598
0.0788534230772599
0.0758209879869992
0.0783417696568593
0.0761197470351214
0.0767191769084407
0.0729341595386862
0.0778272546148156
0.0747482867347315
0.079294640160986
0.0735147128216384
0.074760851064368
0.0744676829217272
0.0771899538285493
0.0748620422637929
0.0750682145723465
0.0740949062039542
0.0757085295821032
0.0703854713944202
0.0745068570594301
0.0729893501695822
0.0763356767107324
0.0721213240805012
0.0740127921580604
0.0728407231694134
0.0755021688896852
0.0702422988436131
0.0714598253955853
0.0704265997745131
0.0714145424278224
0.0713950562165832
0.0716395224841537
0.06907090527132
0.0734207874607843
0.0686402167690754
0.0695836730837657
0.067790615966824
0.0691921204169161
0.0740139251225057
0.0678047051236231
0.0660674169631566
0.0683749235718308
0.0685740510261429
0.0652899279053302
0.0673153258202762
0.0687210756187915
0.0650867469928154
0.0698709616000061
0.0651176895631627
0.0676009231709771
0.0640990005387716
0.0669555374870152
0.0651857002499979
0.0655378973122697
0.0648109975106915
0.0673733426187918
0.062982588418221
0.0662550137075786
0.0611884141254105
0.0637341521194667
0.0628817187177632
0.0643828439983638
0.0633116754082126
0.0645744157096991
0.0629371350588911
0.066729575662435
0.0636359617111497
0.0654481559302684
0.0607034622368929
0.0674831993119987
0.0602390250679022
0.0655826737442042
0.0590029448304414
0.0645993019363699
0.0600399367944462
0.0643739424210837
0.0601282501376611
0.064180468969847
0.0580619864025315
0.0639235333952862
0.0594455880283681
0.0630682630848518
0.0600775868112156
0.0626503349461061
0.0580912657755752
0.0618596525468277
0.0579492559545336
0.0628125473421119
0.0606331574392787
0.0617939330078039
0.0573080465550989
0.065092335683521
0.0603698520991623
0.0624598824209833
0.0577222590955044
0.064407848543473
0.0586617100266807
0.0608081131835425
0.0560522284161865
0.0598902872627467
0.0570881888207794
0.0578524492246992
0.0570711727794339
0.0598895686833711
0.058029938893018
0.0610463326671689
0.0562940471394077
0.058584715961579
0.0566057457091277
0.0593985315881134
0.0546582991964431
0.0601475060725908
0.0538191979314373
0.0616065206821318
0.0550750488242002
0.0605816580074726
0.0556248201397926
0.053741813910332
0.0673982377040597
0.0557325932222992
0.0602596338358673
0.0564478129657048
0.0568832578563084
0.0559340271819149
0.0545386713846847
0.0531657745588842
0.0570457369089773
0.0550218478019809
0.0565111618007658
0.0534341471182874
0.0537832405749026
0.0551944465869597
0.0565157147216406
0.055796847341079
0.056126306852914
0.0545554416703743
0.0562491176207472
0.0538108423238411
0.0558103670452146
0.0636816504552515
0.0575305037278895
0.0553602909031934
0.0598474136101514
0.0452789322559248
0.0650255964141067
0.0573523991961184
0.0578590962115693
0.0560573527982032
0.0545160445108533
0.0538189407414
0.0565963252149512
0.0547510663262214
0.0510574147518997
0.0625489415570796
0.0525825856104201
0.0612816144029717
0.0524734504072689
0.0575963712212536
0.05315448149047
0.0557820596272443
0.0531875201797215
0.055198527958737
0.05368124307174
0.0540193454202932
0.0524321536967371
0.0530810874960508
0.0553543018100123
0.0530047407489644
0.0522538876111342
0.0591252477577759
0.0530414763563645
0.0547609591168611
0.0567690190217533
0.0537383726123994
0.0491680778654454
0.0706748116083726
0.0497040938226078
0.0600542361616363
0.0480547309564267
0.0604713117774255
0.0518122157840495
0.0590590770400483
0.0525823017065238
0.0565005805861137
0.0509201971734151
0.0573019322697033
0.0520933688369069
0.0581105896785256
0.0530016504569151
0.0563065319323735
0.0504880036878462
0.0548498321154477
0.0544667724795522
0.0513444434994305
0.0570108012448605
0.0474538268885427
0.0540822911092435
0.0679915466624379
0.0578294665304261
0.0634806276256498
0.0563082598825809
0.0595209609225049
0.050783941200183
0.0593290123793271
0.0495842977300673
0.0629324115293316
0.0504707431036311
0.0574162702402349
0.0509985264478603
0.0569032965011092
0.0509336535834147
0.0602599471360504
0.0493598456320364
0.0623109093847159
0.0485420385470907
0.0616134752287365
0.0476758650756304
0.0627827137182438
0.0445159455363773
0.067114089361044
0.0474257717552834
0.0680708183899461
0.033943107158316
0.0769953221891924
0.0705944846978445
0.0547880614881588
0.0625464045766343
0.052682461888779
0.0576551053513107
0.0551596647875801
0.0530364215434765
0.0588006312937883
0.057012132462853
0.056411376155157
0.054340481253718
0.0565552734727562
0.0595303938537162
0.0524048647004654
0.0472376353361679
0.077084228546695
0.0576300513315123
0.065725961585171
0.0558810181284741
0.050195503792342
0.0745066743468961
0.0551586908736042
0.0631182789511769
0.0599033257739822
0.0586616894644592
0.0578194764012088
0.059071101414749
0.0565992541650802
0.0568491657213161
0.0618448166863252
0.054724678104229
0.0649179113923498
0.0529811386706621
0.0659280334257789
0.0564871316678015
0.0644834860206937
0.0673449549238544
0.0582669984154496
0.0626077159879654
0.0632072883300854
0.0589642523734942
0.0627748908693504
0.0587954936616175
0.0594149135915063
0.0609559327409014
0.0725277759406559
0.0555016873804927
0.0708004427344314
0.0688334854878834
0.0567047232852239
0.0663553347774877
0.062412571634123
0.0731175455044311
0.0543654216066873
0.0546368897510682
0.0931728990729311
0.0512158935674335
0.0901315176137582
0.0530943382459309
0.0757995294280991
0.0553205783383317
0.0760566377978624
0.0448278598935179
0.0868899849996732
0.052638062016789
0.077611866771358
0.0545818118691304
0.078508626620363
0.0704801467548935
0.0694180934004508
0.0685205920448884
0.0694569532415194
0.061578839409464
0.0765381246203986
0.0710543652759167
0.0502595211115006
0.0838531346811187
0.0861372507028546
0.084722351206718
0.0809271544377796
0.050115083118521
0.105391884363473
0.068438540182794
0.0804365025049736
0.0643044612263564
0.0784709190912883
0.0685342762485739
0.0608439596386162
0.0917619663240014
0.0782315743290058
0.0689595370787577
0.0848071202821944
0.0556093804869554
0.0906876229062761
0.0770611247529743
0.0818645437111712
0.0691001866094281
0.0896283715838856
0.0522912792967242
0.115579556281825
0.082843600472531
0.0827670712643318
0.0998284710081952
0.0819122270150908
0.0944183543269046
0.0856110107595858
0.0878937400723556
0.0847986560557988
0.0995983583082032
0.09422262236762
0.0792534707213006
0.085120814992567
0.120602846131296
0.0835436999140769
0.105573285695647
0.0903770503062246
0.0796426081494036
0.1033878748156
0.128682134689024
0.113145832944496
0.107056281118939
0.0918864232782505
0.119757871356148
0.104300366812802
0.10417925999947
0.107137644019134
0.106050806351983
0.11048348180785
0.100399603907794
0.11875916538362
0.109116141997493
0.116609705970732
0.114576942713625
0.103662465258417
0.114191245125064
0.125982157234603
0.160602738165022
0.105773427836317
0.160600531311055
0.131697463891874
0.132706285420094
0.125234881695376
0.121740415259605
0.136703252261876
0.13318121527205
0.139195485460715
0.122227384823651
0.154070097423331
0.150877978376165
0.125576189689304
0.165305842516299
0.135506388609337
0.164002868076465
0.0818211290654929
0.324140400254989
0.157164305363799
0.18294865474887
0.165016247390865
0.146106234355651
0.251613871579342
0.193892068508866
0.200783224215847
0.204086593476023
0.205642012640705
0.213292990063737
0.225341903369738
0.223305590281762
0.239485935376426
0.248892085808884
0.228971357885719
0.240168878658441
0.298054601003258
0.285431236823123
0.296612408606847
0.266404210349409
0.291101367901058
0.30272835652917
0.299369243629599
0.308514826944954
0.314995151011559
0.280000062838551
0.392478344541913
0.324262143699966
0.362715756205621
0.330003894739007
0.41450538625249
0.334109580247471
0.423848824411423
0.399466775277474
0.397999560467961
0.404033597582138
0.409266379142473
0.4301682828647
0.407625879332499
0.455667213441466
0.452414131932066
0.451359840754538
0.463944619132475
0.464410808314811
0.479997858852632
0.471997728519651
0.502181901031227
0.463653520648148
0.524897478010299
0.460442931604789
0.613928198034554
0.527901927542418
0.49913210143321
0.513368523527803
0.488801649081687
0.535599445020344
0.504433738327877
0.539819168236016
0.54581431750559
0.500868040033556
0.539708615291203
0.5138727820391
0.529337288659431
0.509223003022349
0.538847794519353
0.495037915579138
0.561274242898059
0.513318701697128
0.522035641592369
0.598953915625068
0.518781462310008
0.537106748930235
0.51998575917904
0.52472105857935
0.524330610285464
0.528720160353986
0.506715771960231
0.557544368020874
0.507586261717971
0.521478203631406
0.483533163399571
0.498925988875925
0.526937567889896
0.473877186850032
0.490518624066704
0.453546075119353
0.474154170304567
0.436950146385849
0.421425777315027
0.494218105340124
0.43435807768206
0.440614888048692
0.424704977775733
0.421405753172706
0.421584862637024
0.416171947140172
0.417868690967511
0.41507713360614
0.400242139019915
0.402521814987464
0.397376211710009
0.40474651093738
0.385171967844574
0.393733405518162
0.39515578006499
0.386747989033676
0.392994048847897
0.381913656624861
0.391084239052317
0.391122948425546
0.383896084638388
0.383372396813668
0.386848736784472
0.391940297763661
0.382785423562026
0.392078015938909
0.387886277076213
0.386107047214062
0.390603937267818
0.38423686166428
0.385960123369662
0.385901828072566
0.392406410963256
0.38414311451624
0.388332020330104
0.387469823936544
0.389098613744955
0.38201000667654
0.393422905192479
0.375795216860052
0.392880086190282
0.355581165624003
0.425280625561636
0.412242917244297
0.37979086892351
0.39414111216426
0.373923221552267
0.396694638747422
0.352485376974784
0.400853041875411
0.402935059739964
0.380894212159868
0.387957343170232
0.372731403662621
0.383398014081086
0.393997431302895
0.362742741395252
0.397932805625307
0.348641442570532
0.380176494765502
0.427565459392522
0.349317826438872
0.451232871867115
0.384827284108953
0.381606617864847
0.353893807116925
0.426171745401056
0.368911438355195
0.400201045956706
0.362548625382223
0.409906647805442
0.395269532202722
0.375229664101551
0.38684254112828
0.369580905977672
0.373679839942062
0.404956075087176
0.37098648673403
0.364528778166889
0.417563209183547
0.353756467003721
0.384362864318768
0.417388910413478
0.398114301680896
0.361212711197511
0.363233307609995
0.357580262348296
0.331654271661306
0.406385648811403
0.347236810280351
0.35701988275978
0.345356815249185
0.334584269257577
0.337864847704087
0.333382130386287
0.347092523238554
0.304104607374624
0.382353400538043
0.305182854135281
0.332145258046923
0.324238668295812
0.329311994096895
0.355119601652137
0.324798541228346
0.303154811208718
0.303603082096268
0.344167834324247
0.29769801841455
0.321076797829626
0.297619121367652
0.283411725227318
0.318755423096227
0.287227774754308
0.286066001334885
0.293814522467304
0.266732951986811
0.310267799678758
0.303645833621844
0.314974787232669
0.281066282488104
0.259787096071605
0.264120595840528
0.257586606832275
0.267493207275601
0.241774283520115
0.265121651234624
0.277027241497759
0.217373981914447
0.309396322942121
0.253418691660912
0.254189624255583
0.256547877400173
0.251777602237118
0.25064135720023
0.265416897012649
0.2778514636927
0.275117029590438
0.25332978295164
0.291613757675806
0.25482231385176
0.27725980538529
0.257680813109475
0.283767484978751
0.26652281295614
0.290356293218013
0.285553516395752
0.29256707130504
0.291899842000659
0.305297402218863
0.288382382011377
0.358097857167088
0.284382993050409
0.357938537006229
0.314397421934159
0.368824090293236
0.357026657981947
0.346539246047851
0.35698841919812
0.352898500397045
0.363420366646839
0.365062633704229
0.347306528399716
0.42539090246501
0.367939345279734
0.397447661118885
0.375167936114408
0.402112265544809
0.379785197773981
0.428738440449242
0.390462356510923
0.423028980961818
0.464853757409363
0.412862309344254
0.429561180709408
0.410992582403734
0.430199277139389
0.422602294423882
0.420922395033502
0.426061504019951
0.409519833525061
0.452397785992626
0.432885349398978
0.432705939239283
0.437689096376246
0.435037583582308
0.445329502553431
0.443670063443135
0.447227907021702
0.449816799624999
0.439802448220141
0.457925476450041
0.41445537588758
0.516713361814435
0.471081842780785
0.463694317927261
0.470735046992519
0.463481963649452
0.47429696358501
0.465698503009788
0.483576248024247
0.489502053069394
0.48102827790534
0.49079535654101
0.480006378850901
0.499014533934974
0.480330492001005
0.530425287564222
0.491516888192131
0.515235963855124
0.496969730231729
0.50301959968468
0.570399876276336
0.510007582442134
0.535240056968299
0.507315266410606
0.52329036309545
0.51811534159185
0.529719571217122
0.518002556359181
0.53201908716253
0.523156594717907
0.535128935796233
0.526706502324797
0.528562434040321
0.536805480668552
0.52110638209788
0.547638727372599
0.539076794944721
0.5375901989524
0.526088643928903
0.532723884405114
0.525858758377492
0.541431958591729
0.544503709443964
0.525996861724391
0.538601463327783
0.520672811211216
0.537361199473152
0.54801845277652
0.526966625780874
0.529543832658998
0.52611554643259
0.532391130109923
0.533895800947372
0.514481444966918
0.568335622856386
0.536915149765536
0.543195114331964
0.532279747515803
0.542622847091463
0.543287601233607
0.548691295242833
0.546093159034718
0.560233149937383
0.552076068714414
0.556487824469279
0.554939829565506
0.55361119293917
0.562310471537611
0.558949183010312
0.565551439273092
0.556262641875062
0.548021245293889
0.55168647779673
0.542037105970135
0.554381750162506
0.544662921295248
0.542162840115877
0.535190806886909
0.536970785530408
0.506672851325436
0.541667618352205
0.516256802952067
0.522149586233135
0.518011564048127
0.500798372087157
0.508287242881643
0.500286729993313
0.497407134289589
0.492550072563138
0.49729202528361
0.491292811865205
0.491763383853559
0.490033474207925
0.484161417002228
0.488121909245409
0.483872142495635
0.481303879627381
0.483683473096281
0.485895391212256
0.477586916833302
0.478139848606083
0.480372259737109
0.484353080011574
0.474937889780225
0.480827161167507
0.488916889797102
0.483563412675888
0.482862744686041
0.471906364168493
0.487556483362602
0.475981677000279
0.481166910948473
0.475240898622434
0.476740462170179
0.471658505648203
0.477838728364214
0.470697766039962
0.476365552678311
0.473123730876513
0.475384259024432
0.473803544509394
0.478169338362913
0.47301590945755
0.478179902177745
0.470183532967414
0.471476195432708
0.475504687680218
0.475999157435678
0.478895471253338
0.473423234612871
0.474551193623146
0.472440213785211
0.482200305014046
0.477769424461704
0.483436871364436
0.479655257317632
0.473729973812562
0.475924219180934
0.472493893431138
0.475921620266264
0.474368199593987
0.473865473033109
0.473780799611268
0.470988057387603
0.466675486451756
0.46789964059092
0.463345634574526
0.461278335571393
0.456616829615339
0.457808658786732
0.448418435702044
0.449581123115622
0.443733360655264
0.439437187659788
0.433714103245969
0.433338149290459
0.429666197650482
0.426082717671144
0.426347547645794
0.422331928633051
0.421475620059079
0.421913523484965
0.417458787428025
0.41167746702638
0.413975961096703
0.415385772103225
0.414095089756918
0.409456481649839
0.410134451178818
0.409241797987834
0.415750481661328
0.411751547461093
0.412614073431632
0.412050086205071
0.414829297361532
0.415498869884895
0.416277780033466
0.416377259921846
0.418065553973083
0.420632092312958
0.423626504340742
0.424899557966902
0.424541079642818
0.426279426933249
0.431455188428424
0.430672045114308
0.433125845925541
0.433147752273613
0.435839952431398
0.438285242940846
0.437289050763946
0.438651452713748
0.437958941814703
0.437130366193571
0.437352428103864
0.436279788474057
0.43545655032722
0.436937951686697
0.435502575941271
0.435032337529812
0.4324544598541
0.432453933891496
0.432001830959614
0.432261651671535
0.431497529773577
0.428549110337518
0.428304439066727
0.429246585097268
0.428262157467435
0.424118269422089
0.424928650570896
0.425021314599594
0.417954053638637
0.417376423706753
0.415627450702715
0.417402197629705
0.416109468504549
0.413862416005226
0.412600695854202
0.41162322428233
0.412531157306087
0.409618571911692
0.407887345511701
0.408287265420323
0.405975250591478
0.404721956102636
0.401726251937218
0.400686857504241
0.401126645096425
0.398060120939169
0.399334640610921
0.399352140444566
0.395831165770434
0.393104463755525
0.389913633979871
0.386949608219926
0.385105406370435
0.384021130191966
0.381733547896288
0.375606126467983
0.373464629947817
0.372790555785303
0.36726193095085
0.365116365617775
0.362089951278147
0.359431107060838
0.35826170406073
0.353370883632354
0.353549670986455
0.352860067746365
0.350538917323398
0.348742562491349
0.347178656037059
0.349412099246645
0.347355536066116
0.344012211667747
0.341838410821704
0.339624948701456
0.337780530918864
0.336264551096882
0.334349800654191
0.330901076825313
0.327058607897813
0.323840508471193
0.319934666621692
0.318072621985779
0.313945704719535
0.306494198480398
0.305762135816231
0.305388272836065
0.302551631346373
0.304959480184196
0.305977370637984
0.310158457159141
0.314640184912416
0.320516816635809
0.33063652670011
0.33771613049537
0.346290763343951
0.353931125120874
0.369858244374902
0.383319332855645
0.394559049291939
0.409165353476473
0.424995973851643
0.439744393374131
0.453504620132235
0.46514623722701
0.480689131085026
0.49452755742476
0.510371921798
0.52347352079346
0.532083601100177
0.546915136729563
0.560142109881717
0.571171983148227
0.580626058415509
0.592548362518922
0.605673389706355
0.613392964409359
0.623152014445128
0.627461050305765
0.639191698141868
0.644744453916089
0.651623080948635
0.662586421910949
0.663909836789075
0.664568854953934
0.663055194899373
0.667256166936325
0.670778337307243
0.670474698996801
0.669760861798964
0.673518375318411
0.671504840709985
0.676580306676778
0.684941643053484
0.679820031044761
0.683699628629349
0.687778114956955
0.685175988528642
0.691986069496667
0.689908572305498
0.691766765401049
0.703156002197801
0.708358749671642
0.707244571047319
0.706442522071395
0.719601586137255
0.730317768601408
0.734101114986122
0.740469819168471
0.750853710870638
0.755773706012179
0.76781265253351
0.776265579670615
0.789915791443544
0.802424476753658
0.810885015109797
0.816465958496884
0.825951487183156
0.842094822134918
0.853980853840495
0.858450004724059
0.865497548751838
0.861976765957306
0.86518609219964
0.864700705447628
0.866295420983347
0.859934045785395
0.860024745987547
0.859217058100379
0.851273184230597
0.855308222379068
0.856751420891536
0.851826259966547
0.845134299629985
0.853063832695719
0.8692821840529
0.874783088116565
0.893314075008313
0.893081267476974
0.903984579435651
0.917062713649989
0.914020251202653
0.93102192633077
0.957657680782407
0.965186520044827
0.982929618093315
1.00220434729275
1.01973231268056
1.03115431690027
1.04132499210925
1.05852149366441
1.06362374916064
1.07396070964772
1.09726882716922
1.11787957278147
1.1424589707172
1.13686952041028
1.15676588320584
1.18417227396085
1.22540825943356
1.23931952104474
1.26791259508012
1.28669224419299
1.28381960687139
1.31142865772776
1.30294014016164
1.3341468896226
1.35385142418335
1.35027710285704
1.41243834891848
1.40216917196894
1.41341265834757
1.40041253449763
1.40983290216635
1.45432351147669
1.43489749528153
1.46848970049282
1.43565397530507
1.40060320738603
1.43570165661785
1.42487782450381
1.40511803682629
1.42276273153653
1.44497217690241
1.39906225550834
1.39578545221308
1.39612039499231
1.43243051287427
1.45499449596539
1.42629347088918
1.43126220320032
1.41592569064948
1.43675018907017
1.5053944307462
1.47921110508781
1.50051881237146
1.50278174607543
1.55006933404696
1.50116996587546
1.50571145501759
1.55831306077132
1.5707919900895
1.61819608623516
1.59257472573426
1.57934002190205
1.63561517061852
1.62605229686329
1.64400349677524
1.66658358056354
1.65719935075474
1.62011228543826
1.6767820362474
1.71071355477732
1.65157681104458
1.70220283843382
1.72899969579169
1.67267010039983
1.78867962663833
1.73265109593796
1.67532856544565
1.7097676477546
1.67556544986579
1.67532516773144
1.72479832557989
1.68840760403881
1.74275306363865
1.7327087468204
1.76502750606584
1.72642186949835
1.64413611955178
1.63907248755408
1.64735681343017
1.6076788265701
1.59939759081658
1.54108086090965
1.50956258484185
1.53179071572817
1.48496229444362
1.43787583781893
1.41069770911391
1.33881157512371
1.3148449993256
1.30995085013857
1.27918821011141
1.23743999352542
1.21517709495676
1.18286416436959
1.17941702603017
1.15860636720855
1.14431253531386
1.1618357806444
1.14598128634196
1.13379012283411
1.13393337123636
1.11084411516475
1.1207861973145
1.10373362865906
1.08885375666386
1.08651081206935
1.05112673481921
1.04117465782655
1.03933219090167
1.01818156241737
0.99788478240693
0.970491665346447
0.962251002523834
0.935301833819429
0.899055677596571
0.871470008559708
0.848137547917516
0.815551817844858
0.785448266224756
0.748933869850262
0.725166174383529
0.696159997149398
0.667253234951754
0.639116587319262
0.611112924770777
0.583372289661962
0.565527302740529
0.541047679805444
0.522366281159082
0.510005168106944
0.489578275278151
0.48109723220313
0.467134870958497
0.450061823665074
0.449010847896208
0.443364362399
0.435701298287514
0.427033366938347
0.424675421185625
0.420017526099438
0.416540055351308
0.420749239589394
0.417378729649827
0.411112316455526
0.414270820636569
0.417091305286897
0.414184159205031
0.410966448563402
0.409293031658205
0.415110823482126
0.419315764332533
0.422326332664899
0.426312246253574
0.41558364649236
0.415353785360576
0.411720816396536
0.404685684805526
0.400472716324883
0.399994517955718
0.394089266052739
0.392399820766607
0.389032031906784
0.387692490372972
0.384917754601533
0.384164214233096
0.378672192724506
0.379556255496197
0.381276345332097
0.380466446918664
0.381787257851712
0.385289603392294
0.386659693327846
0.38738878420999
0.393070783576886
0.385826438161837
0.388964721011013
0.400312041275477
0.394555687982519
0.395083007825104
0.399143754316263
0.407908835192905
0.407914550535307
0.413711199673858
0.410549545242626
0.401993812871052
0.40528748753039
0.407907449361731
0.409032660336705
0.404211006683794
0.402044345618177
0.41144716830699
0.414414050057005
0.415377100728356
0.419039173015956
0.421966762155682
0.421849034224828
0.432831434290913
0.439032545647212
0.440227974633166
0.450671529688699
0.46486524127934
0.469866328566785
0.479472750020363
0.497770460887458
0.505389268963167
0.515846315041314
0.526887060066834
0.534698262902388
0.543774646975748
0.549175692597263
0.543102599061433
0.534280215252948
0.5248652751664
0.525526420962988
0.528924030004563
0.518045479567094
0.507788636919658
0.497086511488197
0.492110424478908
0.490834673580619
0.488022718211936
0.49372839622787
0.494267439662738
0.489001551284878
0.49256442741797
0.495180475781262
0.492205844009115
0.495227136280642
0.496150057393037
0.500337279354269
0.496720520707851
0.483358677841706
0.481314028963905
0.467099107431802
0.469142693126518
0.463484222986843
0.454865536855342
0.453593330593202
0.455936682939156
0.44846758069808
0.446128591231874
0.442717313534625
0.439726494972801
0.441749212693467
0.435286899496989
0.422441278749938
0.427120315807669
0.435008011835874
0.434842591903892
0.422045957257992
0.429568262110456
0.424702892182066
0.422204614085524
0.421395841243051
0.422193579784538
0.423389256996401
0.4124172458839
0.395124718916499
0.407978811917808
0.410804000059769
0.406354666017637
0.393561209499852
0.400519314629612
0.396041463720633
0.392305317795367
0.393505457011676
0.397379508333853
0.383245630875839
0.379952572188437
0.384579076990568
0.398121585438086
0.385683949778464
0.373749453431779
0.39135240877192
0.382274289339084
0.37807252824082
0.377058533099277
0.37851977467752
0.367106373634362
0.377920872314031
0.377273753259486
0.38628478327161
0.381019676117966
0.383060503000964
0.388684357557335
0.39377702478385
0.388289980502267
0.382837214828216
0.387635149015114
0.385675466844827
0.386136723696198
0.381736277490612
0.39283960065978
0.405872480720517
0.389859174869241
0.39471768368821
0.411692145584252
0.416945512694371
0.408213607074449
0.405418928133593
0.412869494505393
0.418461626558783
0.425950938372565
0.429055691316148
0.438952933350006
0.438400884207453
0.45432465016635
0.45563616519
0.457352649494435
0.464770200385524
0.47156743909879
0.493835669559166
0.499092347227121
0.492949676003643
0.52824967591654
0.546063090413262
0.563071906673941
0.571744771940643
0.56256913464513
0.596855314221967
0.609829263898902
0.602301916087465
0.618335344381863
0.628091313147791
0.634057542530824
0.648692757370524
0.632825145868704
0.639402648857304
0.659679113395611
0.646894605061206
0.634268822505419
0.670347389370723
0.673778182333615
0.626848805028901
0.60307518149335
0.612526945297374
0.647163462054167
0.663660907477743
0.637899341294793
0.650259627195503
0.622374692774563
0.615833000229653
0.602355056144435
0.639306924745222
0.640008341220701
0.601076959961712
0.613989914778901
0.604903709480488
0.586448137558613
0.594260113177574
0.585459719755716
0.586223440179445
0.579429415811426
0.572102874463023
0.592885269072983
0.614501447669663
0.580657624183687
0.608292709131243
0.601897794411669
0.545567103905887
0.56521060875004
0.59755793298435
0.56842934325209
0.579804814760088
0.552255796234929
0.581643541664204
0.541667731413469
0.5578464160507
0.601785729960763
0.550046065092575
0.558105823705882
0.576951763568557
0.563141067643834
0.574639394207003
0.577999018925557
0.633677395411139
0.607513768661345
0.598797417202015
0.585911315400867
0.6333937717006
0.612108731865486
0.649949925532617
0.624586328006753
0.582673869718885
0.594956213306436
0.597603919845086
0.638463779291136
0.651670028415291
0.61827837761777
0.619027895151363
0.625704001601228
0.593905010221802
0.59946606419807
0.639426611364321
0.687844207331504
0.655745986718293
0.581381997141807
0.697434735320381
0.675504847315093
0.678081581583792
0.737236287081862
0.685591354460478
0.719134504068274
0.784989966770133
0.687574150313179
0.698994504912021
0.801566090383313
0.763280695929071
0.771617458579545
0.878679138793343
0.825093170501699
0.737800075087295
0.666669956795174
0.780769287120829
0.731975696106415
0.775396013627957
0.793695021669604
0.77624299951816
0.794040520946452
0.803825352111617
0.793704438375548
0.793412907213737
0.777081204965915
0.867135811324264
0.821168359600007
0.949150046433261
0.935051431587901
0.828552203403059
0.672205899912475
0.69231239351341
0.687901809634397
0.755606650988988
0.649930648020662
0.85498598991592
0.976527545156809
0.814463937870096
0.717017643946808
0.790946849461678
0.69576625869402
0.588395951442029
0.675970766852419
0.898338252816387
0.656909025124247
0.606512454427834
0.718949263627181
0.744667636676687
0.841410337586913
0.966383197506683
0.527007742705942
0.788307571257807
5
0.957178474108416
0.450257420134796
0.96894861991311
0.767901591517027
0.831704272644197
0.701689694916942
1.13544910914481
0.921387680413892
0.856712000336935
0.693935607172907
0.8810794623922
1.09174035476474
0.915006345365968
0.476108938314734
0.896197923703789
2.39197411040385
0.597292884867037
0.55715165556631
1.46018492530439
