3596
4000.36533379555
650.420452594757
1
2
2
0.0423275898601912
0.0410488570609036
0.0374582779461668
0.0356359597195915
0.032024680107066
0.0427587398171533
0.0462469199180823
0.0389635167768919
0.0211085967031707
0.0390059296052101
0.0380123569610292
0.036563480574636
0.0472959406813329
0.0388273682739502
0.0315169208984337
0.0410111055290525
0.0395616103318525
0.0313765474696397
0.0386134033767598
0.0364394713430786
0.0432028256580344
0.0439026032746286
0.0423043866104257
0.0437106188449615
0.0447474715632256
0.0326187996044478
0.0341636476458771
0.0363679293904688
0.0376968557896864
0.0379266489339502
0.0401515891540813
0.0459219433472775
0.032679046067668
0.0373297745282081
0.0475439417487396
0.0397448809722863
0.0382255465478301
0.041920536593139
0.0309220465463356
0.0423566765421974
0.0275125872923235
0.0384343071852231
0.0333343840806443
0.0445264081328185
0.034022940497698
0.0390511446795871
0.0424850780159962
0.0392356838110462
0.0331589870643778
0.0416139475700262
0.0305057761524798
0.0334378981300361
0.0296656552791246
0.0470877615398251
0.029187350069919
0.0283729123091268
0.0317031167277622
0.0306448384396705
0.0301251846444503
0.0432494859356142
0.0438541305637547
0.038496845236119
0.0294556149098421
0.0346265942714363
0.0320010994615175
0.0371978167878849
0.0288546704513577
0.0409764694637125
0.0432525775889794
0.0364122693851949
0.0317661923457715
0.0348068736746996
0.0258719279318361
0.0259624176413052
0.0381871805638074
0.0381268618579055
0.0298426531461752
0.0338465187257299
0.0298555537898679
0.0345855895576162
0.0398499159528074
0.0366940963321208
0.0406509848609569
0.0383528122838207
0.0445075197758124
0.0295894912500523
0.0300924917703191
0.0226658354967906
0.0320708097774905
0.0356548220245426
0.034073117533939
0.0299272874637308
0.0408722209543309
0.0246315565340242
0.0298258886799276
0.03702163039142
0.0399853720976813
0.0280911562459732
0.041747824563572
0.0206220328337245
0.048847399354566
0.0535324830343143
0.0211851980057689
0.0329061130999396
0.0309032122648793
0.0356547303524474
0.0128504651333456
0.0264434914996205
0.0238391814363835
0.023956448483954
0.0317761995326859
0.0301946835495899
0.0405033351833519
0.0377588913490877
0.0349900006863511
0.0340748263749732
0.0248476557473732
0.0197335671503807
0.0314108443086717
0.0255421967875032
0.0322943921106337
0.0170659901218203
0.0197545981969199
0.0403217087008067
0.0328806845786508
0.0340841207693843
0.0273042069034601
0.0156254089176658
0.0187960884011352
0.0331018065424513
0.0322580373617012
0.0249906769173667
0.0250089303335623
0.0345587579803012
0.0344499164096391
0.0282956145064924
0.0253932467091923
0.0309064198336938
0.0290306454028571
0.0331761102919525
0.0325404058996636
0.0289058096590557
0.0255620871963206
0.0356818352614899
0.0239130266187776
0.0263916076278937
0.0290499378452974
0.0240310956880541
0.0290966658333175
0.0259319660933376
0.0296737955292061
0.0321601977249285
0.030983544096525
0.0260363160590086
0.0286364780685944
0.030667439973888
0.0199031816298867
0.0530744016418423
0.0226284186467013
0.0310016248967008
0.0176259776455705
0.0283349449811853
0.0319161317257801
0.0236264997239555
0.028968192570386
0.0265574712767028
0.0353973645013549
0.0199763283500756
0.0233836689557994
0.0372395827134261
0.0295195812731995
0.0214181962013007
0.0377644457293232
0.019057505503478
0.0372287482693402
0.0306944658202293
0.0208224981039225
0.0265933814784751
0.0279614182248187
0.0371573460123016
0.025293715711568
0.0303187369271172
0.0289288669683151
0.0312000883864998
0.0284648071370208
0.0208392273846308
0.0319305725827325
0.0338087909059842
0.0289462194317918
0.0286264271023918
0.0202295379161417
0.0180898464027908
0.0303970585345581
0.028841261589406
0.0189393257411443
0.0385413689419775
0.0133585808862615
0.0336768199266405
0.0289982768753798
0.0254705697970264
0.03282455663934
0.0284441817475964
0.0315025738955472
0.0203818141880315
0.034929120541624
0.0300371139443973
0.0350797373272867
0.0333887788695696
0.0226434699890946
0.030996353893197
0.0246084518036518
0.0344128580304678
0.0150382729880231
0.0213444452423387
0.0353422156982955
0.0315704269851398
0.0281606175195374
0.0368969619763759
0.0236708223424308
0.0303751929492801
0.0368470796648832
0.0232110540689458
0.0306001955915492
0.0301507701405887
0.0211653045707238
0.0327762744976258
0.0259936765329375
0.0292095874008084
0.0243682141445686
0.038104667553879
0.0390020504812697
0.0242379806388772
0.0335916889844385
0.0326170939417132
0.0245070498845988
0.0393109528074657
0.0278668570723091
0.033450641329299
0.0290625088995921
0.0287979051705143
0.0281222330365487
0.0307246353385335
0.0271544104564846
0.0317560354534524
0.0340682796715318
0.0377982002339806
0.0217267965338159
0.0282038472021045
0.030479487704496
0.0293192819782633
0.0296350217629642
0.0329355933257985
0.0285126163927047
0.0322596637696284
0.0374688612799977
0.0363011186532391
0.0362601524198246
0.0271593479491561
0.0352439226145503
0.0351160512178023
0.0270711199896698
0.0288099781956044
0.0316430572572559
0.0338240768999857
0.0437838782661601
0.0496067775232186
0.0269890618957167
0.0336285458265255
0.035646040577588
0.0321007271570977
0.0315538857253609
0.0338439760269793
0.0439678597776808
0.00930911147263565
0.0289112333044208
0.0336656986029368
0.039272350510013
0.040604692598881
0.0387853549176173
0.0285399635221556
0.0347984822818372
0.0469928565577776
0.0426113886761579
0.0272079638616354
0.0311166342339095
0.0363126153518672
0.0498668250676701
0.0364675241365137
0.033790856436885
0.0363048756276256
0.0390570023728268
0.0361345176671544
0.0402578987306209
0.0394663551655001
0.0382556933582046
0.0360138118484479
0.0342169292517019
0.0445031417094178
0.0367264441421057
0.0348639593711572
0.0497257233513762
0.0379699926772392
0.0345411245271423
0.0516022444064684
0.0413860057226085
0.0358485875986971
0.0326951665902391
0.0360380662559706
0.0483534345667671
0.0462965915259529
0.0396289695926865
0.0431753448801065
0.038812097348552
0.0378660530781175
0.0523011908921371
0.0412944113488993
0.0469298613253637
0.0467176173187665
0.0478084238647811
0.0478094440348807
0.033389743213507
0.0456498340435458
0.0494422101885151
0.0528735114891701
0.0502840060273744
0.0555174995199132
0.0469583049749004
0.0451785717746713
0.0481887088404018
0.0525587815265671
0.0604125215677693
0.0442693702954435
0.0597781353972635
0.0588066704801273
0.0503961404003125
0.0560274216347637
0.0572743948075434
0.0607746538338996
0.0539058981709168
0.0659410337509635
0.0544218141233604
0.06337696036047
0.0658771298574159
0.0562375528426222
0.0522614495515902
0.0681325582345918
0.0678909708881047
0.0822550765944569
0.0525259265803325
0.0663074783205259
0.0630007909796482
0.0662724523586314
0.0847428682641761
0.0571885443122039
0.0819121535168689
0.0724233799443259
0.0781382937673641
0.073249528905679
0.0787732816896634
0.0737078005958574
0.084640498001552
0.081702782800262
0.0894722458759044
0.08151113710876
0.0902186275795333
0.0901053058763207
0.0948707834954471
0.0902861582023614
0.0996313376312357
0.0906387033341947
0.0970863246561653
0.0990842049349508
0.119637916930905
0.0987715609204856
0.100545045807901
0.109614298992569
0.107053432906388
0.11224678068695
0.0947159366663089
0.117224935153401
0.119598834128385
0.114691243532088
0.122026440621998
0.131351668130152
0.13333880965874
0.133347337692529
0.138415297809024
0.138093045092793
0.13553992991278
0.133962183405033
0.146557646019018
0.156121881403598
0.156469725565615
0.14661789302295
0.161025105644289
0.145060273586489
0.167699092903575
0.161697588289166
0.157994435741911
0.165404531399862
0.160517474998196
0.173327909090887
0.169688452716864
0.176212434070004
0.191135535622623
0.17553788448146
0.187496329378581
0.199618990705443
0.196952036259072
0.195446040330468
0.191486699315003
0.196858705586648
0.207197382699819
0.200461670336063
0.218417950234681
0.200472718246798
0.225928253291719
0.216594120042918
0.234369251254657
0.230594156295671
0.232318267187409
0.220671555801457
0.240578683185483
0.224319913471411
0.250557040604415
0.24637865816211
0.249239732316556
0.254140504451442
0.270643766551224
0.265858273057975
0.27117784832357
0.26542793180287
0.278345502857799
0.289289487562458
0.276988803535595
0.278510434216086
0.268623753494465
0.273602492017225
0.322659281002192
0.291106465126993
0.311572228607724
0.295697063883116
0.326194548187381
0.308549020725228
0.318983488377007
0.303133951087071
0.324653482611994
0.331384629549099
0.338662358707032
0.338701839835039
0.362155583241385
0.34691950079939
0.376429067526029
0.352635890441949
0.384096202709462
0.352816759922416
0.384619651233692
0.382896401573782
0.370069004512037
0.364918730388207
0.395431245364864
0.388188660199734
0.437104216585933
0.405584804529339
0.43978052957796
0.430424161669038
0.410702154544462
0.409327427498208
0.43579788548419
0.40452871371296
0.436166815410145
0.434284672511548
0.438693793513411
0.437859708588499
0.450162173925371
0.436030059702844
0.483524776800272
0.447641604821836
0.483321327013938
0.484493474685807
0.487483526872108
0.477210697965125
0.489241043809854
0.493396496744786
0.536427292446206
0.474552151459537
0.485660525964543
0.517610591464132
0.548954736510067
0.544889644452005
0.544832061014397
0.549138329221167
0.562788638638125
0.540218018864561
0.553765989164989
0.539192960684692
0.556929519771282
0.57383118772124
0.594541562275907
0.600426514836015
0.579861500412549
0.561852509738863
0.613468073080537
0.605859227603453
0.617350470167842
0.603033733044186
0.646141060720088
0.62035486242386
0.636521422820366
0.596497247152927
0.628484535863644
0.648900000393897
0.65827777923197
0.644578725632478
0.661167252776984
0.648220950254747
0.651116358457186
0.672959251289171
0.729413321095467
0.670699524337391
0.684089444726323
0.671067565465535
0.741751791110736
0.696119377929584
0.741608572779787
0.728921887100975
0.728758136163191
0.71840929281449
0.785040451764745
0.709081003812637
0.751357559728063
0.75733821656554
0.768490891954039
0.752586142079171
0.786860533144464
0.776505997312194
0.838905699383535
0.753171732309044
0.827727322364696
0.798308173335601
0.826145119456948
0.803346926401529
0.856772702961198
0.831378142123329
0.844917728819795
0.819600576564749
0.839979942414836
0.840320708622815
0.882365002022632
0.840663192905262
0.900020634143255
0.83142989250003
0.884814338134988
0.896503640306796
0.865659584935957
0.872058609523346
0.940268842416153
0.883567414355244
0.90921424590113
0.866955834879957
0.965252406189341
0.927866574702713
0.974110504466329
0.906461465165269
0.935259562646235
0.918673236763758
0.943484050988911
0.92290397851753
0.958425759721458
0.974131410375741
1.08023844448164
0.983171592097006
1.0647152994362
0.960229453629513
1.04549887011479
0.975553411572687
1.07650192560854
0.987423514010496
0.982825674193775
0.94274067178229
1.1773399555083
1.05971938734113
1.03097246650098
1.06718032954539
1.02943733358612
1.02979273040874
1.14176919718619
1.04480216052773
1.22212641378803
1.07394707168179
1.10524093660169
1.08328558563046
1.11287372656006
1.12469739267762
1.09740359027612
1.1098753602723
1.21625805255476
1.10262644916181
1.11913125505427
1.10675436797228
1.13408071651687
1.19057109623769
1.2204339435091
1.09846296657593
1.24358093481256
1.15015721369692
1.11653163853873
1.1364658151238
1.24939053375169
1.14485549083717
1.29270805875956
1.2326154010656
1.10561686552568
1.23334519005321
1.33381422018667
1.27343549825667
1.39272710899662
1.17946544839741
1.30586092152561
1.25976967761179
1.20275107912399
1.26029926420633
1.29321965800033
1.19958419324304
1.32778349819622
1.35225317714706
1.27896574154078
1.21308113289033
1.27915367420808
1.21662557143352
1.26069242913622
1.23491740572876
1.23798146576534
1.26670015745915
1.3634933697963
1.29038636077056
1.47332012586425
1.41298415283074
1.37226533989877
1.28825771079139
1.29531285134369
1.33810074353904
1.47079521847045
1.26663443540765
1.37156746493326
1.45383670379608
1.29009709816087
1.37602715100486
1.33078606611201
1.27071959581686
1.4341503330573
1.28908455461474
1.28828054138384
1.32082889802542
1.46747256913659
1.33906388008722
1.4166858014866
1.58542604763857
1.52407058494367
1.35212746190788
1.56805474166086
1.53904091324848
1.50120401343089
1.56049438716966
1.64730385715101
1.40458332655211
1.44387744549517
1.46212423159259
1.55737730180884
1.40058925236322
1.5184550253282
1.44046927654687
1.35520951558875
1.48015115082694
1.51801629582234
1.49755591801144
1.56696764444208
1.45916359765745
1.4811037454634
1.47912806486224
1.51457505852159
1.55609980351773
1.53227986009886
1.54210416932439
1.65810733067461
1.52968976266779
1.53018580086921
1.54829547295544
1.61228312894001
1.54278237066919
1.39906042567024
1.51140071114853
1.55975685224739
1.56216498967469
1.48004960395287
1.43955953384614
1.59092515275268
1.4702763537713
1.5938541547603
1.63989295538866
1.49551725021907
1.55881172283434
1.60514678274414
1.4836371408864
1.52922620352011
1.51432485744159
1.52471392881635
1.59944459958026
1.50060685330363
1.49337258808976
1.57579350815304
1.52919160816277
1.74025998307537
1.49482294304883
1.50146449199619
1.63695417318286
1.65878368878058
1.55924672073181
1.55493744594426
1.54916327042088
1.47654895856455
1.55264663051093
1.60398837743928
1.64633602192708
1.59825300315596
1.56546689828879
1.504363138976
1.51391944039816
1.52820579353854
1.55835127060532
1.52083497679153
1.5973428021429
1.62800720083028
1.58203325870837
1.56124047063465
1.55935520197013
1.64623793761523
1.56299108910167
1.81824807316317
1.6200669321081
1.81923467133118
1.92698022476958
1.39644845558713
1.4540288721947
1.49076373321411
1.5005269916132
1.49131061080355
1.48296248878864
1.64051478889589
1.69692714123426
1.62383763693982
1.63171602921723
1.62322931709237
1.57845703332104
1.52627475137108
1.52877067843479
1.75324560027865
1.68566611922167
1.42882844058739
1.63674857389868
1.57676655258733
1.47845342600753
1.46862795052554
1.5676791448153
1.50808007900687
1.54649001827488
1.7209554049577
1.58229214052339
1.55542343111723
1.67715448281401
1.64490664603201
1.59336893267097
1.51564991758857
1.53526130385271
1.49779838417827
1.69035293999474
1.74808977529669
1.52159249254877
1.46513341366841
1.63333496662489
1.58695126485447
1.73999162620913
1.48225832503706
1.45295783815285
1.54586542324505
1.44519748316699
1.42489697499298
1.5372977047774
1.49572724282318
1.56473724959663
1.49867527105457
1.46339824927275
1.51198890961582
1.49578177361901
1.64432602523315
1.70642985440869
1.43587618187104
1.50086330538676
1.86028857757642
1.5688619679451
1.50781200472641
1.55059085586492
1.47139335154898
1.68660978901901
1.46915881599323
1.46762479191923
1.36167542641425
1.39588813812258
1.41636133721433
1.44675172227945
1.43855827080508
1.49135646229481
1.42858752253116
1.55751911665062
1.51891969857435
1.54159850801523
1.45606784658418
1.40767296973136
1.43680364984866
1.42060836384408
1.34904295033548
1.50057582228838
1.52439432783546
1.55005345799903
1.44296371921888
1.48571388140254
1.49772815656217
1.64743848639526
1.5813266676884
1.4226398211187
1.35714910633632
1.36044633998993
1.41373999407434
1.42670760773254
1.32446505186958
1.48224724258043
1.44212445724494
1.34913623270662
1.38692838625687
1.42658111564928
1.37892628592216
1.58728507173699
1.38041442429051
1.38310722766444
1.40069112745682
1.38951179261219
1.44005433299466
1.40744055623499
1.34522336901548
1.30970320881595
1.32252251333721
1.42225788361085
1.2997527154381
1.34658152746107
1.36710192946288
1.37271052901647
1.31133765665073
1.32117115395277
1.32864215553662
1.39428265903536
1.29112492270084
1.3164619406804
1.32815825115184
1.28472229689809
1.30887783471587
1.2457630843612
1.17792395769159
1.31933846536404
1.22540958873371
1.26990482862746
1.25622480300617
1.20725564910327
1.27899164682734
1.29507146611081
1.24965996854213
1.29792479983869
1.18166411325405
1.23002164464812
1.20343418590446
1.22589407038107
1.17633616302661
1.22746189542368
1.21260138997399
1.19648097819888
1.23453840554043
1.29925036562879
1.16286328817636
1.23083326432028
1.23825600443453
1.1199288261232
1.15338975561888
1.19934756266434
1.15048853937348
1.17442021010467
1.12972898659269
1.16974156704604
1.1769483119024
1.14970439865895
1.14136302035288
1.19618717907606
1.14786112199454
1.1454848733776
1.09485398678401
1.13435500611997
1.0883292270978
1.1364887320538
1.06131192003322
1.10590010422241
1.05415425158125
1.11014088613615
1.10760633764036
1.09298246049879
1.05273902982337
1.10135207925786
1.06659118302488
1.05025568768196
1.03977756869007
1.04979923220602
0.977576506495028
1.03529533444386
1.07239195331096
1.0777277756641
1.01062195058358
1.02550851430513
1.00118168823138
0.993166139366431
0.979551363184378
0.993651256343829
0.965642420408625
0.994123691822365
0.972282125402846
0.979133091950924
0.932269719025047
0.956123816735987
0.969954723480105
0.983495991992054
0.931996036656887
0.947821013196084
0.919870603042739
0.95224204444081
0.931760145185111
0.950648392574228
0.91988841822387
0.918950244547515
0.903212429019206
0.938576114931989
0.912658636989879
0.893051427403476
0.854201180894253
0.908264997897629
0.889359422185519
0.870225497753984
0.891471136646412
0.898262879748578
0.85839611055802
0.873877724293382
0.850430764104568
0.846044154287986
0.838172710641316
0.868646044721164
0.81397782006911
0.836222008615707
0.830064205955339
0.836330778341406
0.805766545694202
0.809676942189369
0.821234762763773
0.840362004040555
0.803554505017726
0.819895702671462
0.788870029330089
0.802485459293314
0.793413349719889
0.801216440336523
0.768549725546584
0.777015539703244
0.761866214887079
0.794743853067418
0.777051329580392
0.765420535934813
0.734778036887389
0.737381019635584
0.757256171546395
0.781007589409276
0.73198646331877
0.757060343582179
0.739059042097331
0.760843078571082
0.742048722189158
0.730919726981721
0.728818577834958
0.744118615151932
0.714352091550646
0.72429139500722
0.694763144309162
0.71852036405307
0.698216422106116
0.709455769317626
0.673528098461712
0.696634566955343
0.688936766597405
0.675330853572967
0.658587141526451
0.694649445726654
0.672992050862085
0.679506078163131
0.659718542202918
0.670567854866934
0.656688385789408
0.657305344148191
0.642777569372184
0.666781842075708
0.649398436227489
0.653220320841939
0.635695549961948
0.637016464784198
0.633060104419628
0.638869627287541
0.617963792684746
0.633888622719652
0.618097636946534
0.625430147458208
0.602892538066302
0.608608592970039
0.591476535126222
0.62303044861372
0.596030931020981
0.620918128816592
0.585542539533133
0.589016120721839
0.579276201879885
0.5880231409227
0.576669250716746
0.577509125729221
0.579156712269373
0.56449660403457
0.565847462835677
0.580860942156536
0.558598892363428
0.564768760721395
0.558267767444782
0.559707055485032
0.55384473598869
0.568558665087259
0.53981217353651
0.545890551088784
0.550765694127605
0.554793373623003
0.526892012482113
0.541576017365489
0.532889229953794
0.53168273037926
0.525071772659167
0.528019640008231
0.513918333425351
0.535987985850423
0.523122756076712
0.516455982603515
0.508854381005725
0.537761171864501
0.509597517147064
0.509350935214107
0.511255489410368
0.500809387521035
0.505455599121291
0.499791870006809
0.498176583112877
0.511326789443964
0.502886620482605
0.500913755395318
0.498015528934118
0.501707153119
0.484996591389377
0.495600333112475
0.48965654962296
0.503541583463987
0.488720168139437
0.49357368248208
0.47336534944691
0.494960282565633
0.507009464400589
0.486153752004884
0.474827701490058
0.487079022208804
0.488418700320418
0.49000832595597
0.486598061205701
0.501753759414738
0.488686197784017
0.507204642272226
0.490988603926831
0.500941736603034
0.488292538768191
0.496042638164891
0.486914608499016
0.496252356751019
0.509303068741973
0.508139784149475
0.503756058628053
0.516730954373942
0.513417337677198
0.523917554844602
0.505616172274616
0.522958641516882
0.521795933636332
0.528570689139277
0.522038055836684
0.525272674738172
0.519270827724285
0.524502492756765
0.53328337590042
0.539356677025593
0.537856334236977
0.552603152755611
0.542202549985167
0.546512616322088
0.543198995497137
0.569160926647683
0.549372156679975
0.561129777802882
0.558531405747157
0.575718568723023
0.551948061076232
0.585613395925222
0.572459937777635
0.570036707335514
0.553664723057385
0.593044328502734
0.591127089628609
0.585097393831884
0.592792123419069
0.604256468037243
0.607292133743527
0.62870680721724
0.59416382560859
0.606787849475382
0.612629942611056
0.643084627256377
0.617408058134478
0.641749546584539
0.626189014730282
0.635528104395796
0.649538211504591
0.657020300273084
0.656384698803013
0.663270218432707
0.659779975086395
0.653016484173925
0.644168477086985
0.656637341011605
0.655857679928752
0.668330633806673
0.665470511406126
0.659830736498516
0.678638028833381
0.658887344428269
0.652411987093599
0.671003566730381
0.647835778686215
0.682034343076514
0.65259486956629
0.667855998068388
0.669426397540745
0.670804633178575
0.643817107086731
0.670332090906633
0.650790951469466
0.677345115215711
0.660928155958362
0.663641912184997
0.666541504050463
0.64285068804425
0.655400007942524
0.673408504226849
0.64759600700685
0.674004997062304
0.648366219354944
0.655417476132146
0.644928871783033
0.668426210474325
0.641550756673411
0.675890510366797
0.65466090630461
0.674099826570191
0.660472670564617
0.651349842922078
0.659129929988625
0.665280641763146
0.653455116001426
0.662266845113961
0.679755391931229
0.662832359805695
0.650737847735771
0.673070827154262
0.654012725470996
0.666941061995861
0.657048303822157
0.668012617877491
0.640015214270186
0.657625651229624
0.65959789322001
0.656966408941145
0.657661941480484
0.661879892022265
0.656488522314176
0.655221651799164
0.651592814438806
0.648504231497963
0.622429065746358
0.625743285270925
0.632969754446495
0.638997214879946
0.634313273650784
0.63070653558409
0.633208981897901
0.623678329368771
0.612929857395645
0.628773748747174
0.595789954304931
0.624627556923058
0.588370473180572
0.608896911222872
0.598222114047186
0.592570974647034
0.586112150029167
0.588753763949505
0.579557734638132
0.583847533202529
0.571969594701991
0.573040621315963
0.552850198333302
0.547608473250925
0.548176535499328
0.537310913416525
0.539799512343653
0.55166675702961
0.524019444516711
0.526212103317778
0.526946039151718
0.538337171133297
0.52985139473784
0.531964940513089
0.512193636940752
0.505858919190874
0.505576291298988
0.500882811429196
0.499649679372607
0.502356035059575
0.495511767292362
0.486002541405512
0.488262099378752
0.496240718418205
0.484289833416133
0.489307944497848
0.489507213515944
0.484086687371582
0.473076814131301
0.47929879158427
0.465957717828036
0.461003835160268
0.459179585672414
0.468215696498961
0.459140388955454
0.456353714273008
0.459107557682313
0.45196240767669
0.451559626568622
0.459998935958309
0.457575392609495
0.449910309411519
0.43374874180686
0.449063570447877
0.441533473144567
0.440261318425229
0.432882536318659
0.439988536716893
0.438565100009455
0.437459869427374
0.427865676027367
0.427180285505289
0.421549643813933
0.42119673021174
0.416010939442088
0.431579701254626
0.414211423860408
0.422692430213571
0.408904303300665
0.414379284827497
0.416726035930494
0.416706709401844
0.413419566152815
0.417219500604867
0.405333054457418
0.407596216057547
0.406556508737733
0.405405988225464
0.40258512162133
0.406688715608884
0.39625345738223
0.405719241063292
0.393685889956112
0.399256610001767
0.384467964102172
0.398523683158198
0.395409631263963
0.393063026944872
0.390827820615581
0.398896147336518
0.390512058259918
0.390172503488483
0.388983587228438
0.387363388452541
0.388758251171476
0.376893032778978
0.37666950483146
0.386933383693969
0.371459753478236
0.384996521897499
0.382863165540249
0.386072424951805
0.378399690023522
0.379848173008018
0.372832950468683
0.373590699554371
0.367419015761132
0.373564277372387
0.368670136471431
0.380387633441064
0.367443494815732
0.369095957680479
0.368962889993304
0.365695488819403
0.362499912629935
0.371264683304971
0.364422950718453
0.369687649279351
0.362634808450955
0.363633074034
0.35228428708
0.366200725538146
0.351598118050438
0.369551372690406
0.352820392827916
0.360547071584989
0.355548134508187
0.361989797284988
0.351707614337279
0.362089504878079
0.353363194605137
0.357215630983401
0.350548512567249
0.352649551462445
0.346317363105098
0.353089169372451
0.350411295011758
0.351986566503162
0.344597527023598
0.349501888218516
0.347193679637495
0.356540211890897
0.342893791567925
0.352429255462733
0.34169547965317
0.354450202733594
0.348457580494946
0.347290024455818
0.348860006247196
0.346609970043853
0.34517280816007
0.350988808539507
0.336579180202735
0.350073337421769
0.341527825190923
0.347738847994947
0.338922454699594
0.350833455040653
0.33957408876721
0.343961469917566
0.34524509148894
0.342092947421303
0.335488193308964
0.336641268067803
0.331097642981615
0.34074435633492
0.336895612796409
0.335879064671838
0.32624948065032
0.339054384877717
0.329538881614431
0.334151933856073
0.328943249464496
0.327618147073992
0.330347387137995
0.328485610418938
0.328649871631271
0.328433875908481
0.324162418888692
0.334212114678124
0.327135255359804
0.32619810978034
0.326985335948821
0.328159814830622
0.321135622054998
0.324442186731675
0.31991446583241
0.319462535170896
0.314688336283142
0.324128097089659
0.316508689023145
0.32348480339174
0.316955875386793
0.320564764725787
0.316553082902696
0.317713471749485
0.315400580685121
0.3071161672383
0.31734984498583
0.317822573417063
0.308843326359266
0.314000118248755
0.309407068765868
0.312065198539691
0.308902248693132
0.310862543537192
0.308542022289295
0.303878825638743
0.305300284443578
0.308955289079809
0.298310967138254
0.302443344457201
0.303973014239347
0.298682244367958
0.297966004330729
0.298760563510508
0.297467569636556
0.303940957812064
0.295520004976718
0.297295485385445
0.289971927853009
0.302808059588706
0.294254295152501
0.289535820947409
0.290584486910349
0.285001528777246
0.289359362161683
0.288575828041496
0.287445664909574
0.293602393360249
0.287900192224733
0.2840253318606
0.284438612998118
0.280214300314029
0.276461955235969
0.282163082451738
0.273193492947637
0.277973349721338
0.271420918133496
0.272286029222812
0.277609990787687
0.274735687700137
0.267081899835294
0.267193052361443
0.264330044563921
0.271024869419594
0.272761251364418
0.274578890562474
0.26347994719503
0.269245775252055
0.267333209549969
0.266163636034169
0.264620155163835
0.259101908854565
0.259974454295692
0.26076896290881
0.263454390829662
0.265860025388374
0.259804157720173
0.257645034619902
0.26120071612057
0.259469992060843
0.254585022590196
0.258322638024172
0.253191065919618
0.257209219271143
0.250349669646672
0.249489672196485
0.247804029655316
0.250464006051456
0.248951954544534
0.253721944340832
0.246561015970055
0.244292911725271
0.242939620147378
0.242924581402037
0.242857244442594
0.248361709000584
0.242637066407739
0.245263697063711
0.24253076879277
0.243762728382347
0.238264766863983
0.240999041264854
0.240545958049958
0.23528799471843
0.239971909980844
0.238552541394562
0.236915217994932
0.235849353110961
0.234198583356628
0.235662824778441
0.232220585424983
0.237266397840893
0.235884400838161
0.23984595896308
0.229449969987462
0.227670840538131
0.227686760212487
0.230427045572516
0.230444751247492
0.22804726846259
0.22998994796303
0.230023533573315
0.224400191669365
0.226928192893739
0.227240238216864
0.226297001603714
0.22577758848432
0.229172415022014
0.220310787431852
0.218938413594594
0.220087627473748
0.223880748963761
0.226894729859839
0.223216725102428
0.218806474879147
0.223355803474935
0.21895777221417
0.222850863627507
0.223299109406896
0.217813415216363
0.217724777587398
0.22195812666474
0.219874118352303
0.21975315222281
0.218192147733227
0.217511384012891
0.213994987052253
0.215869343304832
0.21771061974929
0.219972712840266
0.215393602301778
0.215765882866724
0.212612314243102
0.213886795240304
0.211295946621308
0.214811346896013
0.212298425871807
0.21062095096637
0.209774592592409
0.212083729003516
0.215618769389374
0.212274357329794
0.210338772185762
0.214194464699859
0.211927876147946
0.211930197442446
0.207038066098255
0.206258904371018
0.208862345677217
0.208370192133746
0.207805774665684
0.207641146284365
0.204644729034128
0.205424270068176
0.207349973775139
0.208797709424957
0.202697600215399
0.206994171391974
0.20148168373548
0.202624460854161
0.204540516663221
0.202856801386373
0.20185763335712
0.204426175775882
0.202198648082087
0.200415695953301
0.198929625638793
0.199921492268645
0.201698622584514
0.19999765332289
0.199916582566697
0.200766175442382
0.198891534832795
0.198739420125735
0.2013679311496
0.198661175661406
0.199993014379632
0.192659801562648
0.193098930283187
0.196804358865998
0.196253436867723
0.196928368961712
0.193476809997639
0.19682886024033
0.195491283757281
0.197307213991431
0.195551028400615
0.189989866179686
0.189855887430037
0.193417000839776
0.190086050265122
0.19084750275478
0.191972656706612
0.191280875153491
0.187606127645836
0.187976530635058
0.184219648329913
0.185299374614956
0.187588727813749
0.187437413708893
0.187794987672028
0.185796111563567
0.184739458206847
0.187629285950079
0.185139360398233
0.186692157898617
0.18535913944454
0.186359799075223
0.182052276072973
0.178185312047614
0.18042589866433
0.182077174243939
0.177883934477889
0.18001343841711
0.178230444463556
0.182151893178228
0.179391419878744
0.177225247369742
0.176032148053288
0.177994534934842
0.177531556151346
0.177612630145255
0.176031212719568
0.176113427641847
0.17255055530067
0.175585736026247
0.17285196969254
0.17111269963994
0.172614670836284
0.172488478227426
0.168112982646878
0.166354114791809
0.16853481064651
0.16738015137463
0.168455002565185
0.170383129864597
0.165285660142854
0.164758576369407
0.165653413528557
0.163808965144088
0.163469601563868
0.161850634660458
0.161903659567959
0.164588101241264
0.165330953201394
0.160310206944718
0.16264502562674
0.164609995895642
0.158750403413731
0.159450900132234
0.160080256300021
0.161303522364485
0.158037053723487
0.159205055385324
0.155086651171814
0.157970248500504
0.15766885872014
0.153599670064744
0.154693013785792
0.154223957668366
0.154025978381155
0.151454827799323
0.153786680077953
0.157247548501744
0.152055599980182
0.151471075907753
0.152039265124377
0.153258680208612
0.151643514622196
0.149233096578347
0.150107985837429
0.151241874686183
0.145165713157968
0.144302394104175
0.145937240725872
0.142503691203042
0.14503382414329
0.150881976790972
0.143254143002514
0.141245770566563
0.142535152843436
0.146108736108596
0.142441838973537
0.14281750867442
0.143268307969376
0.139818737247991
0.139547253712207
0.13945813720348
0.140650325877086
0.142996407501933
0.136595968702425
0.136687542887592
0.140667335555587
0.138832261496543
0.135770784811318
0.137763126836508
0.138107358263852
0.137591522612772
0.137713571075525
0.137345334137149
0.13669103518451
0.136422441017222
0.134641974227081
0.131686995447781
0.13344996017964
0.136022990956984
0.134596768142108
0.134802989944132
0.134931328233482
0.134250093120769
0.134205318237026
0.136210161421216
0.131573247268914
0.129553521108286
0.131638356567372
0.131505086821354
0.129002658170509
0.134111511926131
0.130019063673092
0.127593547838801
0.128922025258964
0.129463002690108
0.129005470024819
0.127868936101836
0.128715803298967
0.131917545195992
0.13265621280885
0.129469381482395
0.125705928252244
0.125808176587317
0.128044546230499
0.128557714501107
0.122139108913888
0.125459343375049
0.1283559513961
0.132118541935643
0.126236297020187
0.122109224538699
0.119638876294184
0.11795525008259
0.128799548815728
0.131566829032524
0.123115667656918
0.128284284351049
0.120665977692864
0.11938140793419
0.128589235987519
0.122017658752231
0.117990289941751
0.12245478997644
0.121909130562534
0.121993507622056
0.121529404767776
0.122632716890896
0.123019540653443
0.125498893749753
0.122609298484856
0.124256679813839
0.119158416828582
0.121934721010101
0.126916006985402
0.125113108072771
0.122416406019702
0.12469440673371
0.122273403628508
0.123332685571826
0.120810341340757
0.115819322167268
0.117222957029875
0.120723223014495
0.118362495863417
0.1191820085543
0.116455990237632
0.117166637457146
0.121435639979838
0.113928754919548
0.116613376713104
0.118751598470749
0.114537409264394
0.112064596954262
0.119070169410138
0.117641336753901
0.117429801783176
0.113496957345647
0.118819521554958
0.10979612325433
0.116112777760539
0.112350857579331
0.115807142344559
0.114410786228812
0.116293460569703
0.113748250616257
0.115164903546029
0.115114142491531
0.11401629898542
0.11609565114435
0.113708493572574
0.112021207600744
0.112230884608104
0.117800126904352
0.11457053890963
0.112295260234771
0.113465233455788
0.112765777254532
0.114503572766837
0.114204454296998
0.116010099783918
0.112084952025445
0.111014076360066
0.11086084261056
0.109677796638828
0.109514174762116
0.110686743471397
0.108882651565072
0.107752468222387
0.111001861119002
0.113322657815668
0.115190208917981
0.112252807637168
0.11323463503683
0.115554227917694
0.112143026173493
0.113549853742408
0.114709360425791
0.113665646371704
0.111559207748893
0.112783074200227
0.114531094977682
0.111176334618763
0.11091046835906
0.11209587198504
0.115129771542316
0.111881943247843
0.109901123015712
0.115251942968849
0.112516169483103
0.111870625311819
0.111500423491125
0.111105742233805
0.109613258676107
0.112182260995657
0.110313152971791
0.111614781041603
0.110655713287233
0.110873664961314
0.109528013321622
0.111869588798132
0.112861248755622
0.110858080553006
0.111451471179182
0.112445316329605
0.114086149826889
0.113828548923988
0.113832442124613
0.112234106912457
0.110915965947955
0.114315256484421
0.110075645356887
0.109375800076371
0.11152971431507
0.109775385343205
0.10834010333063
0.111559499810754
0.108823140385369
0.109975284626363
0.114932854872083
0.113274354365195
0.111833233325172
0.111715779516413
0.109006293406921
0.112610957955222
0.109662288480177
0.112590835927942
0.114615736502149
0.110677975947707
0.113041380071949
0.112254846089961
0.111182854714394
0.112775158263668
0.112327408748125
0.111380425315044
0.114113702453867
0.112519210150097
0.11381893759592
0.111927647544427
0.111058675840012
0.112691668467144
0.115288812676163
0.116033900282692
0.111784427588016
0.110190663713369
0.114002435791945
0.114439089827736
0.113948072140547
0.11158996934636
0.112725913891244
0.114385263315641
0.113808219681721
0.113175025277243
0.116969727601865
0.115514394301442
0.11446640880307
0.116209400506319
0.115556815391093
0.114062530247868
0.114519741870865
0.116864022931431
0.11571870019722
0.11657276867209
0.113223546978168
0.117901253039261
0.117707185038149
0.116776826772102
0.114758285501193
0.115033718577634
0.116495762203628
0.117940540160581
0.115933558223223
0.120638639023468
0.118297236375861
0.118676943665639
0.120081705703043
0.120381052575426
0.114202272929103
0.11885287345789
0.118246189369584
0.118609676020261
0.116429082423036
0.113656444711823
0.115919245753299
0.119372692872101
0.117290683140948
0.119484914478691
0.11708043465404
0.116367600528064
0.114989856737802
0.118937236443035
0.117919869461826
0.115549241093593
0.117969126585737
0.11911670078763
0.122185538204096
0.11988732822846
0.119571153762682
0.119489832558979
0.116971275319782
0.120724318844754
0.121838192466598
0.123830384493427
0.122032669879218
0.118931294404834
0.120099731975801
0.118830481001448
0.122597512343323
0.123489890753664
0.121204536946885
0.121661875537234
0.12167454706382
0.12137117637631
0.123234856295716
0.125842030879403
0.121765199477767
0.120174730347317
0.122663016806609
0.122728438667308
0.121615917951047
0.123648591074761
0.123650366077487
0.123362373713411
0.12055995355135
0.120680102855173
0.122471322692277
0.12204756047871
0.12086973857581
0.120672012357398
0.11927575806916
0.121109959301568
0.118863309977649
0.118858319396647
0.11973215843961
0.120843353506792
0.118817896538503
0.120349730455303
0.12003390056468
0.117080805184238
0.117990858936986
0.117296880942696
0.117008115765362
0.11866080661605
0.117523918941588
0.11971185518454
0.116550483428489
0.115975899070178
0.119362225894527
0.117790055431432
0.115585683432781
0.12047466114408
0.118341611830238
0.114514424874134
0.113107864787989
0.11419445344286
0.115332849716072
0.114848596038301
0.114473613333859
0.111777686360616
0.115690635098863
0.11659585660265
0.114070406858603
0.114196350938208
0.116514534376786
0.114666467999412
0.113144100694252
0.114942395233388
0.112000833965031
0.115501569268072
0.110525119087374
0.113061279744105
0.11475901329416
0.113205292287488
0.113870178016441
0.111575789457652
0.116881010544156
0.113796552005481
0.110109966203735
0.113357623151159
0.115549421844938
0.111974847674295
0.112612388001326
0.111727886376322
0.112899412366101
0.111117248063449
0.109052706233507
0.112319388560167
0.110489453587263
0.11348343471774
0.112304265049287
0.111847471932288
0.112511058184256
0.11075912482005
0.109298232315217
0.11047865217142
0.109816581328241
0.109122432601805
0.111430521481432
0.113634881708826
0.110511857654956
0.110333056400925
0.110441336231158
0.1080873115445
0.111940806172855
0.113197102500965
0.111948478870028
0.113202550256658
0.110866132290235
0.110434767107541
0.110882782451737
0.109510917211227
0.11232066696639
0.111977258549176
0.111567048312826
0.109161810059536
0.110574390205363
0.110611098337503
0.107483497062146
0.108716233143619
0.10748167814965
0.112701293191823
0.111438636651394
0.108246245775881
0.10641717252455
0.109338346601135
0.106267129577018
0.109139973018528
0.106904357331518
0.107477857414821
0.108218073377881
0.10733407539688
0.106567344718635
0.106837225782154
0.105693774216618
0.106869273592818
0.103957960896142
0.102898684732006
0.106268097175993
0.106116630868756
0.106909660415721
0.103980993238654
0.10575341545446
0.103700340543888
0.103769849124423
0.103754312061304
0.101426728013496
0.105221268983631
0.103119523084152
0.102358196772166
0.104406920479206
0.101396955171123
0.101815374664312
0.0987261871721901
0.100190304460467
0.102081095492169
0.101411656388581
0.102131299079489
0.0992664819532439
0.0992687335776225
0.096767644332414
0.0993572888988932
0.0987480864456436
0.0994776988365928
0.0980843640839338
0.0957948523127316
0.0979989251568116
0.0991589932191788
0.0977930674655544
0.0974702288008335
0.096102121529921
0.0962902205034536
0.0949685194418797
0.0949923248693874
0.0938455566363572
0.0954900201698692
0.0954179908851689
0.0948984909085737
0.0953018173794072
0.0924572874072664
0.0930237585324081
0.0938424507497277
0.0916234161157853
0.0894380561756276
0.0906814592063539
0.0937024434599999
0.0954879093158937
0.0879573580028172
0.0898156310487463
0.0930414414992321
0.0875883758656683
0.0866348206789472
0.088803220316456
0.0883407680453169
0.0908112323943148
0.0903479765724814
0.0916584227174875
0.0918909471901191
0.089276868563078
0.0897984712538789
0.0905125347617889
0.0901911055960167
0.0880501198379754
0.0911560033153238
0.0871992557924
0.087632421625804
0.0878284062344338
0.0889762961631988
0.0891773977274209
0.0874671544098101
0.0869181482151368
0.0881656578770442
0.0872479908952886
0.0901468252531911
0.0864771811966181
0.0859462100264713
0.0840241243382712
0.0865473350355797
0.0842603128397161
0.0875285874941735
0.0850156555156134
0.0841737734902456
0.0852042351758986
0.0913519427740206
0.0837916824642848
0.0824093828133759
0.0846860991596803
0.0842720247157522
0.0861992967344774
0.0868906207787708
0.0813158800257785
0.0837560946466499
0.082434849791646
0.084389174516521
0.0816743071827669
0.0841002142369049
0.084408250371448
0.0828054694071686
0.0835956598608966
0.0835131267875076
0.08420775578098
0.0800534645383129
0.0822822636988139
0.0828117401062035
0.0806446074108385
0.0819483768994213
0.0811463509367671
0.0803844907132634
0.0777714487858557
0.0789994695389243
0.0838466245229468
0.0814874043294523
0.0808718425537223
0.0787261595448061
0.0827047532062851
0.0782593140165387
0.0810018621052718
0.08049477624458
0.0787987365710075
0.079260640077878
0.0788112132597878
0.0806946302174464
0.0801944812510526
0.0808436267282528
0.0784275246535143
0.082005954759652
0.0808294700537683
0.0792964555817474
0.0816714734581124
0.0799000716512656
0.0806932108104648
0.0786468643816109
0.0785025287020899
0.0820879597487061
0.0793943186733826
0.0787131727138973
0.0790314879897941
0.0800336676987159
0.0793459990634178
0.0813497116186435
0.0809034719186
0.0802229264754387
0.0758822673627057
0.0811051516538988
0.0767402197574169
0.0819634366004352
0.077610998989743
0.0794839359634036
0.0782943400590369
0.0770714418401212
0.0781392218596524
0.081350050963829
0.0820424939253886
0.0829228097402916
0.0787134712177266
0.0790066309370502
0.0786048136834243
0.0803571189997681
0.0774298432448493
0.0794819539635407
0.0780583280795445
0.0814090781087827
0.0778237309766465
0.0780074712156509
0.0780139448942833
0.0782815775735151
0.0803673274852062
0.0787344423261532
0.0766405952625558
0.0768806979029428
0.0805277638290698
0.0763233881470551
0.0773474564996397
0.0757439506700752
0.0758891715703656
0.0795001372819014
0.0779984765133766
0.0761493679881629
0.0826292085999264
0.0775780283372532
0.0767442322665164
0.0810636169897158
0.0789880348696698
0.0802115368858958
0.080658900404357
0.0753060939535256
0.0772401960273951
0.0792268565959198
0.0800024329719452
0.080362316776328
0.0782990843038755
0.0778220086965772
0.0785057592628835
0.0802273030536434
0.0776928411356621
0.0783865062884844
0.0763241609111024
0.0771077136582613
0.0757256153906916
0.0777937395521697
0.0813147535411245
0.0762681810573407
0.0782258746451139
0.076430482219091
0.0780889910290219
0.0767528066050904
0.0792555562402961
0.0803246770260866
0.0816581233690349
0.0820240664120263
0.0802017727712088
0.0807564719445479
0.0799316021706713
0.0818306634240858
0.0814711141384552
0.0793872732159088
0.0807730498262287
0.0783050564912824
0.0809603540327678
0.0809544907932407
0.0797887109728774
0.0780822968284028
0.0781033581674823
0.0798945449763458
0.0820351484096316
0.0804848833395619
0.0806179697955692
0.0814872275920417
0.0822932023850214
0.0876116201546096
0.0853058626708229
0.0815197448524081
0.0809342696664953
0.0804439727523991
0.0845712151799174
0.0848941242591314
0.0840136489801596
0.0831472692370644
0.0832568070869261
0.0820376534600048
0.0818431351793998
0.0822720379158834
0.0848447674957363
0.0876209318560742
0.0797991486043845
0.0867345503510537
0.082835433512799
0.0854286951050259
0.0841217347457773
0.0858093185467731
0.0869389560421359
0.0853547534449056
0.083703550221712
0.0872577913380952
0.0887725542225273
0.0859751862352839
0.0883146357605924
0.0889517127478412
0.0865003168155599
0.0899706188210746
0.0880130168907943
0.0908556400736799
0.085423703600625
0.090829348946652
0.0911923247818839
0.0894252940143783
0.090414549276514
0.0916928972019121
0.0901185086059296
0.0900885221548822
0.0911624086085123
0.0905885167716443
0.0923627131825522
0.0933460224247742
0.0934312083714524
0.0889736524566052
0.0959488221403663
0.0931146164947025
0.0965722989984339
0.0947649806539218
0.0967830040017994
0.0936474302940766
0.0986239801542805
0.0936185048672501
0.0957236689977062
0.102733658861446
0.0977646142452465
0.10090098156602
0.0982950441024454
0.0956870447015712
0.101045975815885
0.100264027110255
0.101551313285686
0.100993043890017
0.103256195999049
0.102087849275114
0.104938467505017
0.104878210318594
0.104277942100845
0.105140096931289
0.102740697039367
0.103785262854989
0.10860640816638
0.105651423729729
0.109527792770637
0.106678987555525
0.106224853974365
0.10887635053219
0.110572414131242
0.110202973227356
0.111483944379365
0.113275491879238
0.114020364534745
0.120597817603189
0.116277652070522
0.11658662945973
0.117998045109884
0.121734443948577
0.11787882771703
0.120195440365389
0.128268818493901
0.128192222756245
0.128300139044741
0.127588366226494
0.133697253184168
0.134822636483508
0.141815051630739
0.140518509125431
0.144605494529406
0.138511240443678
0.142840795747395
0.145952213916708
0.14461515782227
0.147778606851161
0.14889478882236
0.150303130142967
0.149669627246798
0.154536696038345
0.156711457558289
0.158058797123412
0.160443410347401
0.161457063720847
0.162113156034651
0.16229766472039
0.165531030921715
0.17243941021751
0.163825907912612
0.178875382029743
0.174870045792261
0.17406858816242
0.176225286460269
0.176033811288488
0.17801618430362
0.183119929472312
0.18315893387368
0.183287995652734
0.188894680328478
0.195868826822866
0.195589685431191
0.197033504795433
0.200618501940373
0.201959962602833
0.202012831637265
0.238245572323987
0.219594880415971
0.220507121265641
0.227448425388845
0.236170917772937
0.254066567360595
0.243677394223833
0.25572863196751
0.263476856480733
0.270153035406675
0.276819703636167
0.282845694347709
0.2863470101325
0.301319086691438
0.309232278598777
0.305789477560044
0.333541943908992
0.335554998820591
0.350347210544551
0.352159804281391
0.355715928321832
0.364585855678926
0.378516020726167
0.382307878973386
0.392676053486821
0.400373631177745
0.417378832232025
0.431974057047079
0.435320361570628
0.43539031194066
0.451744985342892
0.468972287304148
0.467413261608609
0.495796610320547
0.511770346480263
0.4983826728815
0.515991714443115
0.521943672240052
0.532777233739942
0.534111851540479
0.563489814019506
0.555342113550315
0.569633262366068
0.566780723567585
0.581159157736178
0.584569988600363
0.598554495715599
0.593795475569926
0.60122550574071
0.614621698566853
0.633633718211192
0.696012852691296
0.629071781227543
0.610142177485637
0.627523217216529
0.610462086207012
0.650339764586818
0.631333524961722
0.658170129987451
0.65469063580509
0.63954749765136
0.635406278192104
0.648375127403613
0.638041140888891
0.649232692930746
0.65854731030334
0.64202383745713
0.643002686826547
0.651969390114615
0.662200584560603
0.710201881804441
0.645557836140293
0.656954234115019
0.653165112854862
0.648873458513029
0.634863591088132
0.654627709365643
0.647783425173301
0.671063835249526
0.641865549636492
0.634545799608814
0.630195676560738
0.657557161643556
0.65787437927548
0.621472031424554
0.603591411432121
0.605826080907671
0.589281522866078
0.584002581014939
0.611885003684842
0.633235521309919
0.578976122251772
0.572946951596694
0.569040101840364
0.5711467925652
0.556655491170389
0.566632583330543
0.558595223860789
0.561780028944256
0.547344047876222
0.563069287513221
0.542857913949661
0.538934583500446
0.538754433671751
0.543783506163514
0.539849826067563
0.534835461414262
0.528008491158772
0.530155152738799
0.531015193614016
0.53090819491982
0.523250623319227
0.526003576596336
0.521936540946786
0.535301789731117
0.533742853318955
0.527299474965418
0.517197164715463
0.525756092291142
0.52040416125237
0.515713871669991
0.514472762749292
0.524141086571524
0.521803360744102
0.521811867767368
0.503857312049873
0.515303123307405
0.512414452473735
0.506035021869019
0.507937016880118
0.50517021107874
0.503169149414921
0.492936494572895
0.511535800978915
0.510892175115708
0.498737164913956
0.501614230206857
0.492395701026663
0.485956562533306
0.479255122429092
0.494574957536406
0.491145945460617
0.48240280870636
0.46950768130709
0.468546085857152
0.482566068844495
0.478611197340997
0.45929448971862
0.456240467504442
0.453665378360774
0.466628039939307
0.482482828069987
0.466077037560314
0.493682765364444
0.45792534659533
0.445585473352873
0.450375728371399
0.462464425455242
0.448027101204157
0.43636918888953
0.43530098303283
0.444731933036787
0.446471233332775
0.437468493401853
0.436824941934492
0.428282558402716
0.428746412195316
0.436144365878611
0.42166300800867
0.418139725885492
0.424973182112661
0.411883640818058
0.449738705640596
0.445005035239948
0.41750398072446
0.406016779885772
0.407926010654121
0.400225038527578
0.396300418384954
0.408347548554199
0.395938945463892
0.392505150639336
0.387528657527824
0.380968442163756
0.375291860562652
0.374262798052004
0.377650244898246
0.375197272417382
0.381301248179412
0.362617828287252
0.355693008106527
0.369141071302636
0.385368303372746
0.368570878592894
0.359486052736063
0.35681818742907
0.360083991171684
0.358636053551989
0.350117929077078
0.353738156966298
0.347961877960347
0.34421455104748
0.348799565927776
0.339295070762846
0.333754708939319
0.333727544583252
0.323853875311509
0.332045575576117
0.338896709441884
0.334644731635322
0.332204346684649
0.323339293275848
0.330464553326709
0.32794836890533
0.3245156504045
0.319759293654576
0.322415948461954
0.326949307536985
0.323257718877414
0.338761982710942
0.332880055777115
0.333487069064543
0.337359850880976
0.339215965373858
0.337389707682168
0.338762413677286
0.351021678690206
0.347462092086726
0.35245000305418
0.359233972766348
0.357709501063593
0.362363453440216
0.368399226738869
0.374406322857579
0.374832164207035
0.385934393781715
0.391619599747077
0.394019476730485
0.404459502219626
0.413590274893147
0.418624951852667
0.435254726373721
0.428840913647122
0.447613033584084
0.463779297536982
0.466737470648325
0.474224653146968
0.475741073560613
0.488444156344969
0.496697991070462
0.505725766391155
0.509238742682059
0.520273900783881
0.538497633007833
0.531229074185071
0.535672771456953
0.538031300112618
0.539715963712519
0.537186171999768
0.54948312793014
0.565237379125215
0.562467680053702
0.575528538011716
0.571022509444083
0.578831442478639
0.580477486033386
0.586369723624066
0.585577472539826
0.588291754390206
0.587632942896532
0.594140988794897
0.611532810464378
0.590332680233676
0.596098298008338
0.610016014296604
0.612167608764928
0.615231795042928
0.622393988392751
0.631581252478399
0.62099596654159
0.625615321291594
0.636402292575223
0.637493133679761
0.671513277962781
0.649679621392118
0.646080465119228
0.648303745004072
0.65299187951891
0.664059138057644
0.664555165059272
0.682937266983724
0.68185448344713
0.675802370271278
0.688007357802993
0.690848024092408
0.692494664050109
0.701959063842165
0.712855005290078
0.713404863913734
0.71435733713046
0.713749650082004
0.742718909299367
0.762922814655843
0.735758492378264
0.734964409025146
0.738560799514494
0.742354871714614
0.746483263644719
0.743636151900625
0.745094939833549
0.748961679826584
0.748940993857415
0.750378258353661
0.7467705612865
0.747177294705718
0.749173478190881
0.749696052710378
0.753636306676788
0.740027770463513
0.748816787744834
0.766977625041606
0.750996745241708
0.741965454263905
0.751675339362971
0.75813466475544
0.748580312627231
0.746844220177162
0.743930652017198
0.753703970836998
0.761692519579634
0.756773247841776
0.766431147933496
0.752578382249712
0.749978565319988
0.760053156300975
0.754632630422825
0.786031226028139
0.769422248058577
0.754608315220933
0.773453545692713
0.775204611912333
0.76403963913083
0.786015477391402
0.792035084708656
0.784222775869786
0.791366188543997
0.79480772979741
0.798791521224641
0.796573717059287
0.794139272718638
0.807405020713544
0.813717678346555
0.783498932997638
0.787516301528938
0.804659993282209
0.796924404053667
0.79528858905625
0.798490610894831
0.777181678188884
0.77077218004351
0.767458467974845
0.765336706589199
0.767932200169968
0.744733928054353
0.74022470354155
0.745360348034192
0.739373140445936
0.729135847398851
0.734546348237698
0.730477167095691
0.710004469983334
0.72115649276269
0.71579506240692
0.714747641234585
0.718053915299614
0.70652562973126
0.709585377048532
0.710785427546066
0.701867293968976
0.699764946789045
0.703906090363325
0.695917346998868
0.705651447062094
0.704416171836661
0.698713921952813
0.696908754630108
0.707286578280559
0.69081203954746
0.692372245786853
0.691686443237646
0.688139829752939
0.69808179670945
0.692446654537075
0.694131830181194
0.695575956197358
0.698117115020887
0.689268452469546
0.687555004375692
0.691297217674094
0.68955510861536
0.682957010807224
0.696305169597338
0.688062385970065
0.686104382198258
0.687945225739155
0.694046147543502
0.69157987354761
0.68282431279799
0.680885021004129
0.686325001116261
0.691360991390775
0.689175412757418
0.685885501690748
0.68946338977904
0.689091629306765
0.693048242805777
0.690082279754025
0.691198265701553
0.686286179037238
0.689681628669994
0.68620617292941
0.6921338904307
0.686756123557984
0.687319206400265
0.693620442633869
0.68847372484137
0.682717094338317
0.679161798952982
0.675410864655273
0.665837236023158
0.663588708307962
0.671803840712553
0.664513765819344
0.651139986272176
0.639541064369782
0.638442682008909
0.634335361647105
0.631970480980062
0.626622976085845
0.626569493533626
0.617573065327986
0.613564248748774
0.609000544578255
0.612349844878969
0.609361779797307
0.60647679720416
0.598194722842729
0.602037563215989
0.59815421992947
0.600811005788
0.600112094410272
0.598307663808413
0.594954629751802
0.600150384800712
0.608224544832692
0.608825597402696
0.598805759970222
0.606591427051515
0.607565015622076
0.608569904121072
0.61163317694243
0.608213956953655
0.61880219927523
0.620105506731399
0.616596291458506
0.622220487596314
0.626288118722331
0.626880876703255
0.633447310478969
0.633073768161468
0.63420939843489
0.628727312276286
0.634953725535041
0.640024720991214
0.642319928895589
0.634958914462367
0.634015990763597
0.630963050167325
0.62976553070445
0.634934813493769
0.62967163428198
0.636220232837523
0.635517302674819
0.633648492049448
0.628012110598868
0.62971151116728
0.628968906023253
0.631280833277559
0.633340265699864
0.624690800569359
0.619536296946608
0.618394761833444
0.612505961366795
0.61625439994425
0.614988458929183
0.61198012544653
0.609229819800997
0.60731017775124
0.610490119572293
0.603991834252552
0.595657819531437
0.605800143211342
0.601871291730865
0.598216269028306
0.598761369417947
0.596405083348482
0.594085007679055
0.595349940790031
0.592818106681794
0.590578222072173
0.589420184285878
0.582810857057299
0.588531334733196
0.579546643781725
0.579532237791281
0.576177743788308
0.573206255699332
0.575975826242735
0.567920694476062
0.566737817017812
0.565811010943883
0.558408527840349
0.553455290019411
0.551565953783856
0.545762402233836
0.542707142722186
0.536048531570044
0.534473631605643
0.532141403106407
0.529276670750962
0.525725093464893
0.524486216549929
0.524316378214506
0.520324593918105
0.519178116887806
0.51531585711794
0.519994724236152
0.513668317023417
0.511763996314856
0.514059221135507
0.510044252421611
0.504352013375834
0.50036305709449
0.49271135109953
0.488556683689015
0.483870570065876
0.480951841103613
0.469253942270406
0.469378013456325
0.459330296765049
0.454263303933936
0.456356492061402
0.454125193160672
0.454852923276194
0.456844855572886
0.459565540284734
0.463664915602137
0.470479580596686
0.483960813510062
0.495671650033281
0.506144623959237
0.523277042035286
0.541535522677181
0.553850877829994
0.574173288745085
0.596846350793161
0.622730276850568
0.641656569882166
0.659942955372957
0.676185189869851
0.69444324919185
0.717439470425782
0.739111071720364
0.758935262791072
0.779743337798548
0.788178312329157
0.812319405977334
0.829476505402728
0.840563083617589
0.874390789222163
0.89060835687677
0.897247251225646
0.899483241351465
0.911359630248457
0.935474319948743
0.941585438142371
0.947699633875831
0.964210196378269
0.972893438610107
0.972847020667542
0.978467669162252
0.980304757494404
0.971880918434739
0.998257677067441
0.995649931116033
0.992404797275932
0.991669195105906
0.999846247665718
0.988019272970616
1.00554718499495
1.00182611616956
0.995444312056276
0.993395793767001
1.01201383930453
1.01492716139803
1.00456989858386
1.01702329631992
1.02920445500164
1.02453958573154
1.05041773288696
1.04339561675719
1.04538004883682
1.07024306562169
1.0752030308739
1.08198480118075
1.09971425435416
1.11841475242537
1.11648656102751
1.14011443553018
1.14251143187222
1.17332852631994
1.20394637401816
1.20792171877594
1.22325757660293
1.23896696490265
1.21566416308435
1.23174567783369
1.25354804218944
1.26902510050307
1.24964135896635
1.27107716262045
1.25633966167153
1.248660321754
1.27796229942717
1.24740281010489
1.23330353190045
1.24396538593416
1.21495601545842
1.23305587774244
1.22625386854639
1.25804792620613
1.2560496179787
1.24645961009434
1.28470247329701
1.28955016768671
1.30693635912966
1.31370896246674
1.36283924740372
1.36279538774334
1.40598305178223
1.42762797535485
1.42008221335404
1.41720213442585
1.43489071014511
1.48795366392773
1.4851979212743
1.52789205159276
1.57369648128194
1.54364992636945
1.60133960478052
1.60826736142717
1.55550073732066
1.5828774896554
1.67912341811865
1.70033702492676
1.77706127620279
1.82592599340679
1.86228365845922
1.851523312199
1.78876261615497
1.87220561429512
1.82044331816609
1.93708676079562
1.93091973667499
2.05047986623796
2.13203449102294
2.08869142242054
1.93713197563347
2.01758256297987
1.93178438946282
2.02132462915918
2.14096417479025
2.15758707562379
1.82791704663038
2.05389083498348
2.01788891837794
2.25451755378065
2.14015074580499
1.95985423053409
2.03890128682896
2.2335201625583
2.02388683482641
1.94585767010352
2.1872296818426
2.05412540169202
1.960385036263
2.17231845550898
1.91356981914593
2.00786575524602
2.10782228387913
2.0788993190742
2.06539377455027
2.20278220608992
2.21271309806105
2.44082691654547
2.16501726671292
2.36923548461506
2.20901445330506
2.19304333530131
5
2.35684320865171
2.19822134863546
2.48719300319261
2.38583222315283
2.39689940016212
2.38577344062099
2.46153094050384
2.33591892668971
2.81301980199543
2.29511983587436
2.8528369282689
2.31013422134704
2.131997381174
2.33084530725662
2.22362294845875
3.22087831935265
5
2.39622378970378
3.11184800125454
2.53796424139248
2.00427394210816
2.99248208003208
2.24598441733553
2.93983101921458
2.61053478218148
2.37181822741233
2.31087612505761
2.2574093145079
2.61743888644935
2.42320006679347
2.02721666592179
2.01854958430435
2.22896585744691
2.28843547831034
2.12995190347535
1.80159011839005
1.96643061458402
1.96465414283191
2.18078320641471
1.7687940138067
2.13031472365539
1.94326809967756
2.06822040009259
1.80783197827648
1.87715752958489
1.65833680204859
1.78800068578401
1.733695081709
1.71307862256885
1.68062942089991
1.71697889085111
1.61288734489558
1.77848030967609
1.69042754434741
1.82109123153126
1.58476893778892
1.71079142207207
1.62624952093697
1.60944970714423
1.57829177644263
1.53964415681936
1.50194116441071
1.49024333713354
1.41754844179678
1.38412594529462
1.34047366874738
1.32798417654058
1.29002066864958
1.19755219383383
1.16689569154292
1.12546566555909
1.07137923117914
1.062654508581
0.993198753166942
0.963879803671373
0.948270169113232
0.906126116213848
0.87657323590497
0.824882107552942
0.820593628789515
0.795617170686348
0.779777306326651
0.759307348874538
0.740701685229595
0.726591399577692
0.716361858867302
0.716152599909597
0.691714159545351
0.694878856367246
0.688614151864078
0.688029128751666
0.674686254371459
0.687216687928662
0.676039076561615
0.679599208630971
0.695687532806494
0.686069974927222
0.677985190161902
0.688901856251244
0.670454185047646
0.674746000461617
0.679255815028873
0.692582477321428
0.669816970907436
0.676338658417253
0.656093018613463
0.656578745928623
0.655691822215531
0.655845691748067
0.643121995354567
0.644121080701373
0.63520355567482
0.627263279908005
0.628506279226009
0.629573119904284
0.622637288644046
0.626147722881038
0.628808575159025
0.619669015555878
0.634807868525358
0.639252890228251
0.641627375293776
0.636194482197664
0.647234900721449
0.640828444959264
0.650214145732021
0.662626540201634
0.650653516919171
0.663096926018835
0.672430648652953
0.66703367658139
0.68275019359014
0.684655072798176
0.664451134788175
0.68437971641037
0.675462631106111
0.676438558114785
0.671035963168247
0.681819072303085
0.680532936831763
0.688419208332985
0.696745169592069
0.700686868679139
0.68683113205096
0.695900844923385
0.72492669968002
0.728707271461651
0.729982385585232
0.761518832864753
0.769523555221159
0.81063840119627
0.802799041381513
0.82073259293001
0.817905125585979
0.857788497051465
0.867546365611822
0.861284123296107
0.88179543651553
0.900284498249848
0.875172762455514
0.894145603923895
0.831323604793599
0.861743954134212
0.80791840997067
0.842841137044558
0.823438891054526
0.81299147970611
0.809513282660451
0.799940636949648
0.80507916780049
0.799889882790627
0.794316269470546
0.812825133528768
0.790403309192122
0.81780712854586
0.787236658358001
0.836595413239141
0.792478410465503
0.809748756792082
0.798960794514725
0.790117878880255
0.777075670987435
0.771982934240238
0.755803662739042
0.765372353980432
0.739061101705642
0.744229860904413
0.729365987538655
0.734714839987614
0.717118479480249
0.717993023660001
0.69619743737217
0.702287880044827
0.682684728383027
0.700122774170031
0.720423817713445
0.706699907919447
0.708316154790305
0.709999836977659
0.682251155850988
0.669312758606081
0.679934116702662
0.693123627297988
0.681505162496555
0.684765326681137
0.667290117105646
0.675298206279464
0.647606402357308
0.674314885483281
0.652988886481363
0.667910524929928
0.641483673725682
0.662942381837923
0.626186738135213
0.6379380062102
0.622126647849737
0.653020970654176
0.645101684781801
0.627490044923389
0.635459421098357
0.655822351581903
0.627671078528706
0.624068496879794
0.622569250263046
0.623919805751579
0.625604321421936
0.630584407090797
0.592967954824841
0.627493180969454
0.620027015037108
0.612771057123545
0.617675099139621
0.645576304530869
0.630921789322955
0.631082780560489
0.632058320110606
0.619895511467731
0.592614470416655
0.6311386257978
0.645806465250802
0.694774889543927
0.624937149285883
0.674097801053726
0.654807708444218
0.671025354757001
0.674191898482502
0.68480519657737
0.6554816671905
0.681410324012227
0.665719751938751
0.686349742323844
0.693780236464292
0.699704346042295
0.696943931414495
0.71135531594981
0.69808296117802
0.72385262150009
0.806256444156693
0.766034839770371
0.793642614631698
0.778524602640641
0.803818875637377
0.850607859569653
0.844265009812571
0.895766714170874
0.89801624519929
0.88622431703676
0.894043707341107
0.972750343758468
0.974543016523059
0.958818850991565
1.05303498503242
1.01456170972958
1.04855281641281
1.10663982274329
1.0372049736164
1.07329913705942
0.941258682159691
1.03447738226974
1.08300092192629
1.16780776441792
1.05515295006506
1.10002920303724
0.981737369319266
1.05469982655534
0.987218566154052
1.01413777468622
0.976584608501428
0.991384802658177
0.929800589495702
1.0503599454405
1.03967065908509
0.935253345242773
0.925654186106451
1.0309711472514
0.905969637818734
1.04350837988198
0.992175362073293
0.993542771932532
0.932228824383167
0.953684020390146
0.950402507157635
0.982301877282894
0.92914620469679
1.01542506771281
0.928485635512663
0.948522719916206
0.892649768993567
0.970344274319678
0.92575534474338
0.962763279800753
0.883426171358043
0.909122364712351
0.872133337586852
0.941691207267335
1.03232733950446
0.984973973021705
0.953154046231834
0.98948904382574
0.915599590651363
1.01035658599823
1.01125662513271
0.911221662993963
0.893276159266072
1.09487280105619
0.982000278525634
1.08431370981695
0.939584756808784
0.965205900075776
0.933667658254371
0.903503870536957
0.862517271197737
1.10634803957464
0.905293788221081
0.971386603361119
0.989825963029389
0.995080201705796
0.986041914107524
1.00133822477813
0.893917222807575
1.07336277565634
1.04637253082741
1.08915069700655
1.07755084114353
1.09608295239213
1.23575822186069
1.07969651549446
0.965953032520921
1.26569880909586
1.13943744034493
1.15313093422409
1.0108091111342
2.00422978335224
1.01759573013292
1.21056024913632
1.15158332223633
1.52277127976591
1.54020632087901
1.40851051058924
1.10204202558255
1.17636038664712
1.15404754307525
1.39079479981565
1.10986364554216
1.51416639110348
1.03984390470641
1.35766044592821
1.15674181959727
1.50836341823088
1.17755453351997
1.13573859911358
1.03874257868044
1.23362834488521
1.15013876439053
1.37742528051846
1.05295491389961
1.45806471527092
1.25687868309716
1.21148062375953
1.02604487009695
1.21435386385063
0.924615695582343
1.50021573908911
1.04511466620421
5
5
1.41132061941942
1.05075391882238
1.29222886492823
1.09570716287333
1.13735823440273
1.06894806983495
5
1.07686218877781
5
1.97658559526515
1.48863767817366
1.98269743511405
5
1.59926416521112
5
0.825300715057526
1.34271751847497
1.52660986647402
5
5
0.829626919371407
1.08396627123503
5
5
5
0.583622686755593
5
5
5
0.615171560274966
1.67824614794662
0.38414600820576
