3596
4000.36533379555
650.420452594757
1
2
2
0.0190012517198494
0.0280553785998447
0.0137258144310188
0.0149231824641501
0.0094830784918869
0.0248999958059196
0.0223021391267998
0.0235431091257406
0.0163972325266915
0.0285649285235559
0.0170573536219167
0.0172634140453577
0.0214025231201704
0.0184777347317718
0.0100906561943595
0.0203285585182063
0.00865508975872355
0.0130818027744313
0.02428146823672
0.0187603197839081
0.0206858670412011
0.0181797533085202
0.0178029841189286
0.0232966389644519
0.0121775932681036
0.00989652407683107
0.0158514021453146
0.0259719014550347
0.0234802710047939
0.0229243387222332
0.0217368629740063
0.0261432907837403
0.019693271419272
0.0177804270102005
0.0278220738383826
0.0180288967679686
0.010320873974981
0.0253701573580468
0.0119811760555363
0.018471140954882
0.00802447350145268
0.0187651408739512
0.016654968441374
0.0190774654837493
0.0170274238975091
0.019985072419791
0.0243464898652275
0.0156552460760734
0.0153226455317109
0.0227990992093947
0.0159691086473252
0.0170115782965559
0.0144571199066692
0.0198393688283832
0.0190597556952519
0.0105441673849602
0.0227303176583677
0.0133595283557837
0.0078666356913336
0.0267122267244701
0.0234194792612113
0.0173903552750226
0.0203473246797877
0.0111628713767618
0.0115513869376637
0.0181338517630514
0.00397059522631114
0.0219745765005041
0.0247033172702226
0.0206449898363004
0.0145181674172771
0.0148804283336885
0.00943314007075825
0.00488219466458414
0.0205102940385189
0.0182825198138407
0.0156814991223975
0.0225933033033148
0.0153305970642006
0.0193813423548997
0.0172666694023029
0.0134889758104087
0.0131980809393754
0.02710937489406
0.0190188533191133
0.019169856935615
0.0155374611019242
0.018268374778807
0.0144622250382932
0.0178204053253976
0.014303675967692
0.0144382156980565
0.0128886862080342
0.0147378973341343
0.0152341419078056
0.0153298759935578
0.0162740129095273
0.00833672070844293
0.0205456197198529
0.0101630356767007
0.0248187198564262
0.0250901879057396
0.0096374049644846
0.0108741189636149
0.00670532846705478
0.016217139811379
0.0107138229951578
0.0151334977667208
0.0200785213891409
0.0162704252592936
0.0204874477262708
0.0167807128462866
0.0286007650972009
0.0128333328648377
0.00304810806938957
0.0211415111242812
0.0263224812873849
0.0258065097975732
0.0180984513531199
0.0113479900878164
0.0068432727369958
0.000683296939889981
0.0113596036019584
0.018641219342963
0.0110417267227212
0.0106482669017004
0.00435755270369481
0.00329808676703707
0.0211884570318362
0.0201276746849078
0.0135598419989795
0.0122851349759584
-0.000566794809878664
0.0114894032012828
0.0128828768085044
0.017550787817224
0.00641665064658991
0.0109704735182896
0.0150142804866236
0.0134156764363328
0.0203991538027231
0.0109286310008224
0.000604553622202852
0.0170760108566583
0.0129733000401355
0.0128297941384865
0.00982935513726178
0.00936532968007833
0.0159913798694747
0.014370918935311
0.0169738065239672
0.0104491752657352
0.0116046589405768
0.0064259947180971
0.00156083983766339
0.000171939347228363
0.021403632667471
0.0297336422420549
0.0192248714269555
0.0130385410615452
0.000857467881069046
0.0136075154429649
0.0116449670391779
0.00884724181113443
0.0164271790729786
0.0153006702267659
0.0150029040348132
0.00871983612829973
0.00988969450840902
0.0149126599635766
0.0115073174348901
0.00369503461728999
0.0044865254512276
0.00866818991325251
0.0236576199965696
0.010617945605264
0.00458845531016392
0.0143898622883607
0.00721363055707678
0.00676767273978511
0.0159269167700668
0.0196732548296898
0.0116376620819043
0.0105057647736815
0.0151386910758083
-0.00370094447346681
0.0106503453715549
0.0153024397578995
0.010948948839464
0.0153533375269384
0.00530602817901429
0.0178172596413306
0.0168998725671492
0.0179722672631926
0.00735195855276183
0.0171972748686023
-0.000619267655656871
0.0189070398342801
0.0132225799541654
0.0141485416621603
0.010477817721332
0.0163930544749115
0.0168755473447003
0.00907008944058705
0.0133089889576967
0.00534124328125714
0.00477466423636232
0.0119146614386339
0.0118465731297267
0.0137218902931261
0.00485256943688067
0.0134994352924297
0.00494331787541219
0.0100402253518465
0.0210513038835607
0.0148288260660489
0.0148787968507767
0.0189822891416061
0.0109840883582488
0.016843260831505
0.0158831530589475
0.0116654892946644
0.00937636897684489
0.0100034983962261
0.0136613779020138
0.0122958543962655
0.00876281960176319
0.00846191164755426
0.010908600766191
0.0050636950794867
0.0219741384875048
0.0164265090757375
0.0100359567057884
0.0140482317720399
0.00355813284980084
0.00900843137064835
0.0206363669971251
0.0172970685174482
0.0120253226326454
0.0106669507337586
0.00986781543120061
0.0183741203698259
0.00607478141357125
0.0103176140709421
0.0092169096836107
0.0125444377953059
0.0138296208678852
0.013401229564619
0.0187520521945299
0.0111531028355873
0.0148251831395305
0.0158339190825222
0.0119354763179016
0.0152625714732806
0.0109308512921205
0.0181983744797841
0.0170790179997556
0.0182260391693113
0.014520005018375
0.013137118165576
0.0125791285487462
0.00780086348180179
0.0147459791970432
0.0100178171614856
0.00592912255274657
0.0299731519073652
0.0162618047656475
0.0206000270065622
0.0197900669307968
0.0190564867408792
0.0146898028135794
0.0106527216032176
0.0104063936508762
0.00976240699188517
0.0109374952972385
0.0136205691827924
0.013489235913179
0.0230249814996112
0.017769372434431
0.0108565695951525
0.0114894224539751
0.0208964554612792
0.0136998448230332
0.011729655009453
0.0165226233256807
0.0133184851051109
0.0193686348544163
0.0262807743589374
0.0193600306746174
0.0187604622379982
0.0170750042327065
0.0112492497188749
0.0178065633354762
0.0147295667250177
0.0224195964493122
0.0112728121516044
0.0122293690758289
0.0208956321913104
0.0193493173422967
0.009952219432077
0.0196880450063047
0.0191788319207869
0.020947691625172
0.0217325495554815
0.0175578290348276
0.0194322363964198
0.0172901953334467
0.0172426047752264
0.0218885417706882
0.0171852697025857
0.0165058081757024
0.0217411699953343
0.0182979530932905
0.0127317712395026
0.0207762240054213
0.0178159083308847
0.0225781842722107
0.0169280839233116
0.0179084056521579
0.0264301351472568
0.0251282699894498
0.0186136636009924
0.0196437066091305
0.0188591450170043
0.0225711492172119
0.0249848257432765
0.0221246525879563
0.0290276229116717
0.0187079280800042
0.0162772987594375
0.0304250715339155
0.0294160453803502
0.0185401982045681
0.0357349381552987
0.0366966953780778
0.0359091068691179
0.0288667135511951
0.0247406137264817
0.0240049440666563
0.0279035426732145
0.0292245529596502
0.031057714843578
0.0285505107615075
0.0321915467532629
0.0252453953553759
0.024030283192254
0.0371550587553252
0.0348425299816706
0.0294157886212177
0.0407154207294334
0.0276747211777962
0.0198829538940961
0.0481781844057467
0.0343493735494674
0.039366910664326
0.0323469469849391
0.0367482380725183
0.0340463085921839
0.0419545512057171
0.0401188978482928
0.0440794480905733
0.0391339439834786
0.0493827613208549
0.0463754540247628
0.0496556466314005
0.0493783353151706
0.0377427691888423
0.0402168262188121
0.0568986827407452
0.0538808072226399
0.0524219268927013
0.0532512548456206
0.0600658021401247
0.0547289512384341
0.0571210702257959
0.0636422094640145
0.055183074841621
0.0583509429100538
0.0566102053660516
0.0654123414295198
0.0681120062630126
0.0666824589066587
0.0759149433064894
0.071425240116308
0.072233225824784
0.0802745126260488
0.0775436713202575
0.0836884913941473
0.0782017416132409
0.0782862215392293
0.0785295490995153
0.0924240960399665
0.0881863774978278
0.0848771663707817
0.0930958405286749
0.0867165360940534
0.100948464384322
0.0907460592764601
0.0981679715268067
0.106529333218986
0.09636117672185
0.103213910068639
0.103191865534576
0.1053074571407
0.113418849761954
0.103440785448355
0.117588663776062
0.115726838263524
0.125309599942379
0.108252167222345
0.111363898129919
0.109998329942026
0.125975121940854
0.130295455281389
0.124756945189312
0.131379323775947
0.136438828151289
0.115213318342324
0.155311630380279
0.136483638059797
0.137340895909355
0.138789785640281
0.134518291043829
0.13131458023357
0.155351253315752
0.154303139967782
0.163929459305166
0.161882267867522
0.162520304309653
0.16700684214641
0.155997250058361
0.159814087775471
0.167391376692684
0.169512019555618
0.174159132938853
0.171265019710641
0.179530888253954
0.17839600143482
0.203793868068817
0.180703366272234
0.192863846164854
0.19869566906021
0.20941865386728
0.183479471016287
0.188965898610581
0.185870891629653
0.211214527582548
0.209339857377182
0.212395736188321
0.214462803488983
0.227827267668121
0.225207218342828
0.214223097046415
0.22066919986826
0.239227312515132
0.227192930617147
0.235799784786963
0.238889757851715
0.235166929785508
0.227626100251652
0.247343063811827
0.237290082116521
0.26021106819649
0.247419206950365
0.290798146475852
0.236321198658538
0.26232120826603
0.267122770730175
0.281721300397981
0.255376977331558
0.288239431532373
0.277708205581312
0.274814244216768
0.288387957396308
0.282599565003453
0.29244122490517
0.300829271494521
0.299395035829919
0.29149234592572
0.309153790487612
0.308283085568982
0.286007020737428
0.329180727302736
0.311533919922972
0.328141919454288
0.327159927004191
0.341156516942628
0.321682157011081
0.331876992716236
0.333594704667716
0.358755360276614
0.335690048090167
0.353198614494337
0.352499481746389
0.345373664253664
0.360657882668576
0.382896990503614
0.367340917724232
0.386187835970662
0.366826764838223
0.386907301915381
0.363784929933934
0.376078560641707
0.3695778093521
0.409601830252518
0.367176168740693
0.413958886998103
0.37696728328459
0.40363003110286
0.392869435092511
0.410617722771013
0.412760318685126
0.442066496939299
0.42605050667148
0.457943715936676
0.433804628564264
0.457062019389038
0.43537216363998
0.429928932291539
0.451435036184684
0.459383125544822
0.431955299646735
0.466828006530031
0.46365095971753
0.482275646530604
0.491295512696118
0.509159785715808
0.468320291271286
0.489545931406643
0.459870398869878
0.473905071586762
0.480135668740663
0.517090536980128
0.498158806351731
0.510200226423853
0.504774031210089
0.526251210121587
0.51892609144967
0.528339363299875
0.538457339597642
0.557526807059999
0.545800523645283
0.562064883419203
0.543295704021249
0.549239065650868
0.515506725209071
0.549224196469775
0.543314253554107
0.567446567447844
0.564288976182048
0.570125927387267
0.575069586955675
0.588990337314822
0.569496114734223
0.617354307668907
0.567056597456285
0.605456185896355
0.572556875672454
0.634242162691724
0.627374728526336
0.632853174587207
0.603999687858741
0.627391087128955
0.624133395438939
0.632128142603971
0.606090750487579
0.642979203590639
0.617632060199019
0.647262008092708
0.65608008621495
0.683610935493267
0.62808703825022
0.663837531345922
0.666121796448892
0.668960272923241
0.668678217695952
0.716000454061457
0.671378719961346
0.692776188104858
0.668713146713554
0.695771452359692
0.678581979284389
0.710340313806939
0.700861766802381
0.721648381847382
0.710961554828838
0.729537704861826
0.680130441963774
0.711831476475206
0.698315544093545
0.757226984168317
0.720231829873593
0.767087632514624
0.716949324360378
0.743321551277732
0.754278888230855
0.798417405388551
0.772339420297727
0.807932744758209
0.764015220330989
0.749978802858352
0.716967691381768
0.771932170419592
0.782771827566765
0.79654918391124
0.750768461079856
0.812979944338919
0.735721172178577
0.76954244589123
0.755090395588213
0.777303732418356
0.782056053014747
0.824262963195189
0.791743153737737
0.84339878885859
0.809877566561215
0.857605148541699
0.811128496197597
0.792137401057077
0.838805626021028
0.89224309119327
0.826317804568775
0.882536425585907
0.812572180857546
0.831744988644016
0.827268699021198
0.839393219808498
0.793218429558087
0.87888482620506
0.845533136158559
0.878008660973932
0.85070058386249
0.827461919683215
0.821750747790192
0.865118252579711
0.839037360528018
0.877727031249663
0.861319554880634
0.853055721847097
0.832859745400577
0.902427129731096
0.862128161434505
0.891507245937663
0.896791022379594
0.945150418346644
0.893165594605993
0.941553782634305
0.914587074053921
0.890291382119143
0.882185502914961
0.942297975518636
0.925210544748194
0.924746543732257
0.899652184668783
0.913808321601425
0.918459661065843
0.948979670200601
0.913753752927093
0.900307003724031
0.924607422093902
0.952014125812157
0.902747875033755
0.957323455954271
0.970591281303205
0.97205043059924
0.903638993492313
0.951729424345672
0.918725254904081
0.926295616202335
0.988433673679637
0.943787536568096
0.904904399141775
0.982876937627685
0.938863601810446
0.941157703074487
0.963318900619404
1.00008842730618
0.979766786044064
1.01414127321717
0.949510061686654
0.965094960337613
1.01897781758322
1.02770888991412
0.964361086992157
1.00407403592398
0.998999688805594
1.03667640328806
0.997121669446205
1.00169256084622
0.967372023328733
0.98131610369948
0.952638899235494
0.939844242377065
0.99171360912331
1.02634819940564
0.950642280601518
0.977332623956543
1.0053396773405
1.01398101039311
1.06356166730845
1.04124563940831
0.947838904008109
0.977145411568031
1.00542022714718
1.00558032477607
1.01123342805229
1.02999366314346
0.980216934953713
0.97976636711746
0.984109962378791
1.00298030548479
1.01887784646702
1.13208793213406
1.0995544758134
1.03697031311395
0.974588606467968
0.953817661005013
1.03067492235708
1.05304305245702
1.01579858909918
1.02872105236589
1.03982634493767
1.06750240902847
0.982921984365544
0.98091803009263
1.03228442762514
0.99510986056401
0.957713312568106
1.00112840429043
1.00918059640454
1.02432149056466
1.00135732470995
1.01442989662304
0.995679006584284
1.02312545388521
1.05712337971479
1.04775736708387
1.01280662318237
1.03872626953282
1.02390123867401
1.03011455846011
1.04812830697869
1.0278308459906
1.02281009897082
1.01077185793012
0.984062881350973
0.972534854582419
1.0379233786874
1.07438868145097
1.01820925874854
1.03363668054905
0.978897717579743
0.998480906215253
1.00934327596206
0.98465753620769
1.01881932865231
1.02179654108773
1.00908368627326
1.00111540587963
1.00305213209516
1.03956471665001
1.04336422006062
1.05108203140498
1.01804049894238
0.975697083356406
0.991583920989875
1.002619310618
1.02015789784116
1.01256054856416
1.02960989126738
1.0354874184004
1.00756629984446
1.0163264222713
1.01691530145577
1.02514603568042
1.02386433019741
1.00031135365626
0.944056616569391
0.976135422779462
1.0683756141642
1.01365104793657
1.0000809692491
1.00000187163422
1.02167697992908
1.00946635330264
1.0191262257919
1.03460878431772
0.99949042664353
1.02590335638541
1.00788797910175
0.979037437931584
1.00604945963156
0.999594361267302
1.01703675457926
0.955127467597842
0.954649916930991
0.988160111796937
0.993076713875832
0.980177942546586
0.961123562377838
0.952191554299985
1.00939645770352
0.992025772125552
0.995940008768127
1.00495989765927
0.951810065231835
0.99313419072782
1.03089652004941
0.986314319764557
1.00047197648054
0.989778060458602
0.971298215404096
0.931557258168531
0.959248859052749
0.977252354134588
0.966529883584431
0.93085866788713
0.930421874792562
0.92790619967447
0.924611762846149
0.933928182695122
0.942137570634966
0.927439662323162
0.919093925185485
0.925308354714273
0.959540577352378
0.902691017088697
0.914905615200809
0.92996338868299
0.9540058945862
0.950497739096899
0.949011163423703
0.90930085629007
0.921782691474901
0.935132369810533
0.894953440490548
0.920603268868912
0.913212536177661
0.882113220895264
0.912584188963073
0.887385837634373
0.875141209346562
0.859144854666657
0.894995520868275
0.896441974168357
0.882054970317399
0.874039229464782
0.892508170935648
0.895091791304945
0.873658308550464
0.880400393783964
0.877432133819739
0.866868480773859
0.880443436572045
0.836505503013367
0.854709285942343
0.845469695180577
0.838656739803797
0.809152783422186
0.833340013982777
0.834357115973655
0.85279067240899
0.845432848946642
0.821912449254266
0.832967529916124
0.862740364591488
0.844306219634799
0.844213828590747
0.82514358206572
0.838936347111162
0.836797093270249
0.853652220606492
0.780054338966785
0.808386976481789
0.777909999087155
0.788636161852458
0.799934108827257
0.776606574217399
0.795723572851769
0.787623191079675
0.770813728151327
0.795233210454897
0.764738449566802
0.763241981007345
0.761846492262271
0.768288749092669
0.765436981357599
0.781950865813829
0.746963173769401
0.754020933412199
0.726621157194507
0.73790142267441
0.726346088650698
0.754643060508353
0.74845425753292
0.734978924110251
0.746010263568016
0.7379185613962
0.712808584339451
0.728268891329079
0.725589699499807
0.722439356324899
0.711729011397794
0.72661962226244
0.705495765786005
0.700451195167115
0.682579834038058
0.702564208151679
0.687553077726885
0.703045699948271
0.672775792622231
0.680542189942375
0.682540537204235
0.697196489054144
0.663000387484867
0.663221897995818
0.652900966977967
0.677255174375517
0.66739393368237
0.659663422572868
0.653046820532477
0.647590655878914
0.639874063592281
0.662393447039808
0.636892436969645
0.625510470764007
0.642082275994108
0.656051581660581
0.647602716403768
0.650642093902625
0.62203148368787
0.621749997283331
0.599601221380998
0.626770737206588
0.596286874718083
0.612394382859202
0.605508638648187
0.593842885653558
0.585378814538687
0.598157074950909
0.597557074180966
0.591446335735334
0.581143227558197
0.597612553323748
0.592547582412886
0.600378459648959
0.587670323495847
0.576603788292816
0.570273058223923
0.582723104110532
0.569051124340294
0.568354159981804
0.561522626704671
0.564370412811176
0.55695727455465
0.563135750370021
0.553566468053204
0.54929525594865
0.546161575204701
0.539205171757304
0.537377810739075
0.542150379310652
0.526292700101916
0.533734512727239
0.517981134096212
0.526791333046606
0.53120181315303
0.548090857509124
0.532152332287145
0.516499813915174
0.513967834379313
0.528902673677184
0.505417366322685
0.514750152666936
0.492620683306614
0.501889889310949
0.500078353529398
0.513327150526983
0.496675852127475
0.503074809532903
0.485135304994843
0.491072269742929
0.482415311475598
0.486521550169534
0.497034419317001
0.492872959098941
0.474012684801529
0.487544474182102
0.48680901481406
0.476497078290161
0.47057943631919
0.470450248263741
0.465453471240877
0.457298888145143
0.448288800212337
0.460380319042141
0.457686147821222
0.465160085520048
0.449005222798272
0.448128409050182
0.453651429905462
0.451933178496976
0.441213405664801
0.446686847947562
0.443720434523856
0.44489352532483
0.440643454190482
0.439686521994162
0.427972067621742
0.435587745497008
0.42760473780568
0.436733996044794
0.424437654665605
0.420798554902455
0.417707465947703
0.429768275052181
0.41475730980226
0.418204619529193
0.410539726260086
0.405094662256358
0.408120888296812
0.402512055578319
0.397081879199322
0.407903764335983
0.398460090072113
0.394817693046539
0.395539917877264
0.401613011139648
0.397205763273252
0.400213703183674
0.386880112011
0.384297934753439
0.382529826636482
0.387970571650824
0.386011848995511
0.378409822824383
0.374899702829518
0.387301973375851
0.379986769972122
0.373613612709877
0.370557437309798
0.381476517873838
0.361743053153944
0.372310842859907
0.369322929163959
0.371523530329972
0.356538374851888
0.366873396049053
0.356405793459151
0.352718256310759
0.363302831482512
0.356291454186764
0.350486094483071
0.345507790399095
0.347226534563314
0.351817277636824
0.355627402302955
0.340420336133139
0.348413284583253
0.343886259396879
0.336553102100588
0.343522858530802
0.338347799581589
0.343736973868952
0.337488466696378
0.341052938538511
0.335162499658716
0.337455312653167
0.331913849108765
0.330109868253868
0.323683572461532
0.333220357623219
0.328329123596313
0.328947543613623
0.326207026816805
0.328630715776027
0.324701307393553
0.325818340651741
0.32460894795053
0.319704085160614
0.322654014759207
0.333661594925142
0.318520060881115
0.332521870257223
0.327056272958086
0.329269651828131
0.331745052929917
0.324429275703213
0.327847149447295
0.329648700417132
0.332470898942458
0.329123742684136
0.330499450481612
0.330861654687992
0.331189417687316
0.32881009280015
0.33028288522347
0.328712012447912
0.330561744138825
0.349918745862498
0.340729776836063
0.348961208435688
0.343470479902838
0.350425278638651
0.336095348255607
0.354878910571433
0.350752994172273
0.344612001224962
0.366026976464062
0.355688131693498
0.354632460876286
0.365294728636672
0.354013293434024
0.359343357968413
0.356160759486043
0.356411713533872
0.361517673911526
0.36936906131732
0.361672575624753
0.380652139771776
0.367065893411858
0.386823736110945
0.371671573400289
0.387565041656505
0.372291810927887
0.389107253910082
0.384091507319639
0.394915302614017
0.38992779545813
0.39829521590275
0.395955992207949
0.40942540902309
0.407897445932127
0.410952615946418
0.403224687717071
0.422090159065755
0.421739500203775
0.415797790021373
0.426481430058056
0.420998489703597
0.416768108925905
0.435877336011872
0.425382240876386
0.443103794917857
0.438010004014078
0.439003759344639
0.435676798664733
0.450573363068453
0.437013208156934
0.446811638288285
0.442822179021659
0.445302299538745
0.439360850630329
0.45137993756612
0.441852002286988
0.43036449879962
0.444303476216847
0.444659701792004
0.433464005399816
0.450851598713699
0.439289395162703
0.445166104077234
0.44362501719404
0.450125527974711
0.439980198490214
0.440278284361576
0.435126647348503
0.441501642172751
0.434491747298477
0.438792302763401
0.428243438697266
0.4448802231414
0.436455820684849
0.452686595878188
0.446648796906754
0.448910117496463
0.439012090497214
0.440512571647227
0.446788101615406
0.457214666525535
0.444032303487213
0.451965833600602
0.446018586012728
0.441476075607474
0.449504196015076
0.460181517300178
0.443502568850227
0.456079322927332
0.441273448429238
0.450790273332655
0.458083428395985
0.458232336052161
0.443851925892321
0.454836518559502
0.438912544146211
0.448743295657026
0.43765791728256
0.460100452016052
0.434059239093817
0.442511343559082
0.443849338887647
0.4528753027406
0.435347254031246
0.445144331668679
0.441979392226271
0.445563876656328
0.433834934946178
0.44495902712457
0.430567904442493
0.438249353327371
0.430634140094545
0.439839627281995
0.426153584553479
0.427453718555844
0.423234173885826
0.428642096998831
0.419076255106646
0.419422824630864
0.410511696043149
0.414590233209638
0.407028825555413
0.40361666916435
0.405595740787747
0.400209790186467
0.390395148627514
0.395257207808911
0.394504126415816
0.391383991074659
0.392667169167562
0.383177981913014
0.373886672703432
0.380926129843801
0.369322548983709
0.371784622543567
0.371733484229275
0.376703496786707
0.361659913295397
0.364267488464154
0.360691322881429
0.356058373087682
0.347075519979658
0.365802877967286
0.342079601784051
0.346690164111204
0.340316722868172
0.347015270458713
0.334281679473785
0.334879626412928
0.334574411301011
0.335544486634797
0.323845125344989
0.337884605732367
0.336502372057885
0.336636018537545
0.325273365182131
0.323922683617685
0.32578829444015
0.32228812135517
0.312841978860417
0.320645634174503
0.314302714847158
0.316522996409765
0.315573913002742
0.311080427828839
0.310410685363739
0.306911023077729
0.305532172180485
0.300836172664787
0.312134664454079
0.306274891647151
0.294813245030497
0.303986351990238
0.295961538735216
0.300528445227202
0.296999569367878
0.301813690223368
0.292937946505924
0.285685416490254
0.28980791235942
0.287493824368045
0.287711139808156
0.277907051601019
0.283574941987571
0.284765741777592
0.28198097938408
0.284452283517458
0.279390414044229
0.284322140211515
0.278939463519161
0.286696321054971
0.273696696819217
0.280130418585516
0.26966196278354
0.277614531198145
0.274325762751527
0.279487133640546
0.277671128316516
0.269961063446856
0.271733742231447
0.273440801445887
0.261922357122825
0.264811490433643
0.265506405369735
0.270315040977164
0.259600589101141
0.26074840774697
0.258296839521561
0.261836933805822
0.261839278581857
0.261048005249559
0.257777895766308
0.257665039209893
0.252964933704337
0.249202987358176
0.251241211816781
0.25709970125421
0.251190548527976
0.250706266444401
0.253148625280273
0.251107709787739
0.248933315292208
0.250669838815413
0.249442445500344
0.251770024950947
0.241311582508873
0.247072606575592
0.24507007231719
0.240937855621354
0.246131512670375
0.251614227837824
0.239256639785335
0.246838693787294
0.238710675850496
0.245824914270326
0.241376219695854
0.240117780989858
0.242095210850074
0.236954570145882
0.23697596337528
0.236372481310501
0.235044030558088
0.241524446650746
0.237362292986707
0.23811424189682
0.234568153069372
0.233786546395723
0.234709084671644
0.232402575421179
0.230671064193572
0.23407158980037
0.234090435833005
0.233148112419004
0.23160519803916
0.231555733104422
0.232303648103962
0.232110660106127
0.228161814253481
0.232296785933668
0.225690927237558
0.230874175811253
0.223785259427587
0.229478410405022
0.221161096408641
0.226892823404481
0.2256338413387
0.228853160154355
0.230045059850981
0.229952730867694
0.224046593317512
0.228757389842649
0.224139275685933
0.223579149581813
0.220360748911921
0.224982596453062
0.215764267735077
0.223858416923991
0.218886444974599
0.222321529545199
0.222553446822118
0.223190276874474
0.219515782448712
0.221053721273053
0.213587495229621
0.221830383774681
0.21268116572997
0.219947829228179
0.214258432168242
0.214723604861212
0.216849843816669
0.216657745854409
0.216261184279627
0.218798013868143
0.212950446029616
0.210855896397465
0.215058234969553
0.211148615519738
0.209836531926121
0.214305660044999
0.210799141108563
0.214333454975441
0.203063979526055
0.209208809145816
0.210693503249991
0.2093827101344
0.201719239083578
0.212868757559675
0.207597209645499
0.21151756665546
0.199074955160579
0.210726036074268
0.204833967996762
0.200331897318199
0.196762234369858
0.199244356528701
0.202930009886392
0.202268366664888
0.199897196328302
0.200827326522307
0.198254407753383
0.196393401736615
0.200393143942505
0.193506507456126
0.194292879269077
0.195532285774647
0.194792167605331
0.191481043540646
0.193858072969247
0.194784843011472
0.185601987688954
0.190543659842766
0.189733498667706
0.191375424202267
0.188706725041269
0.18691523724616
0.186007759102887
0.189806574753701
0.183023921008178
0.185849172334318
0.18221267038979
0.188691583234095
0.179350535367624
0.182840859137114
0.183352926615307
0.180534067135915
0.174549003510547
0.181010408576168
0.17955482881244
0.181997207058309
0.178262828917866
0.180532528082324
0.168963710221737
0.173010198859924
0.171206907318912
0.171949003659718
0.172519957378854
0.173506401290648
0.164268730658227
0.167759522344844
0.168879814784447
0.170056993159206
0.165880851681222
0.166072132739636
0.165247147463406
0.165266569543859
0.164663351863919
0.164904009856377
0.162217733554896
0.166131367289699
0.160116248867947
0.163566170026883
0.156506365142088
0.156817063863755
0.157289774763542
0.157551772343536
0.15352724371993
0.160746581266163
0.154537602776178
0.152719088712993
0.159510144889852
0.154757663242433
0.154706441359698
0.155965301620603
0.152098166509321
0.155972685558453
0.1506825675477
0.149427311152598
0.146587965434581
0.149259052584037
0.146357527572648
0.150601825313632
0.14698225137032
0.144806484811647
0.140406357615193
0.142249840327359
0.142800061221405
0.140896972623441
0.139809062662394
0.143073988976897
0.143748027033849
0.146162764987205
0.138082115215374
0.13907110695256
0.140888319849849
0.138427178966582
0.1386797832788
0.138448010529497
0.134278288653855
0.135769966776339
0.135527715569647
0.134751851422684
0.135121421489424
0.133780873918719
0.136159942365693
0.139129245964492
0.133990045379386
0.130694258837353
0.131640604202572
0.129415982467637
0.13092965852252
0.129051485199805
0.132166355740315
0.132237462798263
0.12704994238873
0.126926452372853
0.128967131359237
0.128721820436192
0.128150388763362
0.126269291663817
0.124427811212912
0.12583083164045
0.127792344353368
0.127829622712753
0.126837579295543
0.123945161772989
0.124464426644268
0.126003893738592
0.126234054058365
0.125452560407315
0.124674142080033
0.118647536040935
0.12497505088931
0.128439415183293
0.12311983466619
0.122941028801416
0.123039842753303
0.122002245145699
0.118251473737903
0.120017499988569
0.120745632355201
0.123508086672396
0.118978849571419
0.124886832329392
0.119786418547965
0.122118636582443
0.117790530379294
0.118788435480717
0.116804373727204
0.119291825583214
0.116542417618143
0.116932216244037
0.119032799662845
0.118079396015473
0.115292086035518
0.118985104639771
0.116957694309851
0.119825065081315
0.114903114987085
0.114462789479537
0.116243257985189
0.111664932280124
0.110126955415035
0.114303767038198
0.115540016096398
0.11433321800222
0.11481603157313
0.112550780909215
0.112134307193035
0.114922573106435
0.114346939090466
0.112493167912902
0.111041627838822
0.113856437552923
0.111147165840061
0.109710024224252
0.108453918489309
0.109029285160157
0.110678453560189
0.110298605183258
0.109911897128151
0.110203238969384
0.110222540523689
0.108697088241366
0.108594189074441
0.109620642955229
0.106017303145069
0.10964072407235
0.110068031990842
0.105763636086817
0.103448001580162
0.105564712336846
0.107440043757342
0.104026719501549
0.104780127038858
0.107454544482193
0.10362630763083
0.107680008630017
0.105763684562202
0.103521623352831
0.102479133367345
0.105167991932468
0.101340136562209
0.103073337722208
0.101154985320487
0.101762268657245
0.101475383570939
0.103475956616395
0.0990511427929164
0.100370538536741
0.101484128212576
0.100143095360922
0.0983317867974551
0.100596657283361
0.0997372114825131
0.0989778609668433
0.0973708808252994
0.0987141920533835
0.0973633631572185
0.100440383196666
0.0981382593266194
0.0979451668603686
0.0956253571387112
0.0972783430290709
0.0949319173982088
0.0936023022753078
0.0950724110684516
0.0978498588792259
0.0918686349915071
0.0923777281947419
0.0921865574801901
0.0923252241614627
0.0938488746497651
0.0954721367157632
0.0914576656744876
0.0929406395390549
0.0910621640647489
0.0906500833836134
0.0905732035426585
0.0890501979472636
0.0901011123887001
0.0887581198692399
0.0851104633574429
0.0860664587978346
0.0843882444944379
0.087205439582934
0.0865737139117025
0.0878948644381231
0.0851703086080197
0.0840504171284377
0.0860646090746637
0.0841892037513393
0.0840185993850114
0.0869084835671822
0.0820715034839155
0.082771372393507
0.0842658396114718
0.0838301716039531
0.0818619088788356
0.0832197411183531
0.0807105276841908
0.0798354431704521
0.0798108500858337
0.0814374923140856
0.0781742629563585
0.0820637128579367
0.0790006910231349
0.0790545288236478
0.0795736577709153
0.0795516937134864
0.0769912588199151
0.075161054973334
0.0791857793083512
0.0783383241010221
0.0760535268854679
0.0762019890750534
0.077255001808656
0.0767277779282522
0.0755749304352114
0.0762095061289285
0.0748364591889961
0.0754937260453945
0.073399000013031
0.0732991026378969
0.0719992797639689
0.0726083187740099
0.0715200578283534
0.0723279671567513
0.0696610652993745
0.0712016837001371
0.0704423840779883
0.0695715502062548
0.0697371243134284
0.0704570288873956
0.0715753604068113
0.0701383507113906
0.0678306918787886
0.0713608036670105
0.0662264631787021
0.0656418740419164
0.0686086613971239
0.0693586199209787
0.0675731706748163
0.0690990064023085
0.0675204848213719
0.0674207698873628
0.067402362859887
0.067049615545673
0.0675447540407022
0.0681861022772958
0.0666451341977437
0.0658357763611647
0.0622232147267223
0.0641039124014993
0.0649664396279443
0.0636976286306953
0.0659167638206285
0.067321925519913
0.0649418206899441
0.065520482257718
0.0644478628737881
0.0644307510145009
0.0637174521623749
0.06727908916537
0.0635035362200823
0.0611145444223892
0.0629257064122612
0.0639465362311602
0.0641417133570215
0.0667673528885324
0.0607154642784714
0.0641013652124574
0.0644799101336797
0.0625855127495664
0.058059924742113
0.0596722430096881
0.0625150947492697
0.0625433858571668
0.0609705627427287
0.0588494853812648
0.0609409607727139
0.0630571248025269
0.0573694792602153
0.0607483216768419
0.0597482658515852
0.0593965717554526
0.0580890268064595
0.0614620817468362
0.0581171714710714
0.0585616147939165
0.0558083644915491
0.0555209103026208
0.0584708536922926
0.064357592257085
0.0601798347319717
0.0628516492620044
0.0538313745277586
0.0554119842503196
0.0619416304120115
0.0589668350182459
0.055038456769388
0.0585974838371158
0.0576869844033201
0.0598251612861364
0.054669819877201
0.0586581325101998
0.0551863164422691
0.0561328724917999
0.0551580606394343
0.0592940359217023
0.057931455598269
0.0584551428527647
0.0587759503282533
0.0654673244100062
0.0577464797527378
0.0588790901952324
0.0565789445781699
0.0587534850202942
0.0554681555137218
0.0585751194254866
0.0552297190350019
0.0597744859765776
0.0601650449561449
0.0584892292928638
0.0508320935698627
0.0533181500630643
0.0553070344610831
0.0515356720638732
0.0567484135730326
0.0560256480998504
0.0548700833007878
0.0522647312257692
0.0568872494150359
0.0522351457956062
0.0580330008671738
0.0521981450183671
0.0571408282655003
0.0487395201464772
0.0587283048221728
0.0468846237436392
0.056067354420973
0.0496764503510056
0.0550519735496912
0.050428604713491
0.0544181159161757
0.0515839204170654
0.0552694241618827
0.0559053581599526
0.0511443218161136
0.0505926991480546
0.0509457461804347
0.057347133373616
0.0561790723779509
0.0539748272609778
0.0546572506696296
0.0525680745245963
0.0537011393932322
0.0535971973465144
0.0563007938454542
0.0524877581812409
0.0502977456828393
0.0504875684219509
0.050193985735794
0.0520710511874476
0.0516887697537298
0.0508955737811628
0.049904062182744
0.0498406523416967
0.0514620262319241
0.0530939011643219
0.052123930188092
0.052076304832052
0.0530972127198297
0.0505549337273064
0.0509570453241804
0.0539873011945154
0.052470313703264
0.0489373865244305
0.050869245644886
0.0536754815233678
0.0548898543684219
0.0508600264742919
0.0517362535165657
0.0540370994741749
0.0515778665289825
0.0516322551637874
0.0547949950952672
0.0526696234944916
0.0525723435228867
0.0507757111484295
0.0513108000331386
0.0518416252405186
0.0525742187148006
0.051252630305871
0.0517633734572423
0.0516554365362696
0.0528420802391519
0.0497198276707468
0.0517439212155646
0.0528369067161172
0.0531413117824998
0.0537147162765709
0.0532483558858435
0.0509826567614345
0.0538242362715298
0.0518688606482234
0.050440808350319
0.0535099169355563
0.0527023278913537
0.0507380785925696
0.0519085884723326
0.0527195232991683
0.0511792088533482
0.0515047989105009
0.0518139171840204
0.0515649008038939
0.0529370833052757
0.0535277162549917
0.0539725339897198
0.0537063406909742
0.0524771485062974
0.0496952887497367
0.0529208640431272
0.0543468723086847
0.0548993719260035
0.0540450927962383
0.0509340442127685
0.05363491595693
0.0530251083406488
0.0542329567685985
0.0551652601309032
0.0534990960597389
0.0546719255108977
0.0537178524273268
0.0535287131231903
0.0532653340392189
0.0525352804507419
0.0516085863358024
0.0535887039683134
0.0541425783309453
0.0519444103348615
0.052968979974524
0.0542032368133087
0.0550865925243055
0.0537021048346364
0.0557845087066582
0.0528682730152074
0.0543862439684183
0.0541784202187709
0.0520756187784765
0.0545982879144345
0.056191495720709
0.0559992338586581
0.0534570258389658
0.0553088001658026
0.0563452010824428
0.0534796356319726
0.0565346629198983
0.0557265777187033
0.0538696243678045
0.0537969783844805
0.0559902492684972
0.0560972014323096
0.0550291547942668
0.0557051980886517
0.0555163685973782
0.0520997364289572
0.0533776544111201
0.059519817478648
0.0568169201153416
0.0578736927152731
0.0575043318332029
0.0563575156684869
0.0579126288529906
0.0577171119221327
0.0532415430698232
0.0557556343531281
0.0570087980749587
0.0563544460806307
0.0552151288285301
0.0550555766372449
0.0538375074452945
0.0568031431249291
0.0570260683310416
0.0589121004708492
0.0570477771577628
0.0564932693534913
0.0565298736114763
0.0573045404452506
0.0574610902982807
0.0593677392919928
0.0569843255591816
0.0583941195623114
0.0579105391410969
0.0557677174336674
0.0582191290633623
0.0581597709237596
0.0550050041145348
0.0584352213604466
0.0560860980862045
0.0611225506543226
0.0601565354576137
0.0575209223686342
0.0580852724214991
0.0585052676256456
0.0604701346007843
0.0604194273760229
0.0601815030072019
0.0592084057227223
0.0606441773458196
0.0602211132669427
0.0571657250109197
0.0604516465323202
0.0594816319285342
0.0593259116755545
0.0581269399801279
0.0595050456695129
0.0598727380732367
0.0608749469238467
0.0617757186614784
0.0586041903018025
0.0564991370675791
0.0593194190583822
0.0577108927767454
0.0606843836582883
0.0595133829530912
0.0590579535188385
0.0594907082524978
0.0597013066770201
0.0597179333799546
0.0582984949214972
0.0571822608183988
0.0599078628120116
0.0587718002499085
0.0584553026682201
0.0599706378253699
0.056416140166868
0.0603493368969221
0.057938929636482
0.0561626874584574
0.0559904392428523
0.0604974025166765
0.0588857308068826
0.0557026970624486
0.0581065571801986
0.058570071324192
0.0574984438295543
0.0576767532783747
0.0604750280989101
0.0577848106263166
0.057211372327837
0.055185295519791
0.0565104360553624
0.0571690841171932
0.0541678801019816
0.0548828342257313
0.0529092515897972
0.0567725205220068
0.0551480831498603
0.0592278402184986
0.0558664857802223
0.0576347903547494
0.0555012978882549
0.0548791877146504
0.0562349501665875
0.0550523379049169
0.0535186940130161
0.0572652494209397
0.0580906125080527
0.0570495774825786
0.0558841717028199
0.0568026894937773
0.0544016085020324
0.0570508531839478
0.0556079255461385
0.0533994796643278
0.055169387343507
0.055923278956683
0.0546890017701116
0.054911402563914
0.0549194276604783
0.0540376301977602
0.0568171410329456
0.0548456074261304
0.0541844272307395
0.0514730530206882
0.0562557754786215
0.0548332188082735
0.0508963289203179
0.0530209690104694
0.0551367584124886
0.0565825107999898
0.0542876536393754
0.0521636925308276
0.0548152853910394
0.0542706663104928
0.0575732434451101
0.0530223373868789
0.0535287326199471
0.0546635613284714
0.0536023869035205
0.0547228147997622
0.0571910692909955
0.056746075606926
0.0576492401152019
0.0542646331757149
0.0546577561407999
0.0565471805647651
0.053235584814689
0.0547440053481237
0.0570052129291604
0.056742007725016
0.0544720387417602
0.0570744337289291
0.0555514964152869
0.0554427650461757
0.054847311504166
0.0539376898764268
0.0560294781347377
0.0576375341076322
0.0530426055235922
0.0540236673374722
0.0564782190273013
0.0533214891021125
0.0537818769039746
0.0542294166255767
0.0568307354585895
0.0566972912374816
0.0529329954384321
0.0529440785976365
0.0539676846954662
0.0521473019777485
0.0539668622468868
0.0520846443466454
0.0552138696475453
0.053759568014966
0.0520244976808193
0.0528502768812758
0.0534991206429196
0.0543062440316993
0.0518301770665992
0.0517731688514248
0.0530126234916755
0.0511099762400069
0.0519516917737184
0.0508567526277473
0.0504640888396451
0.0511693988085658
0.0528008376417097
0.0529167988971891
0.0498717734085357
0.0495092595239118
0.051232354202938
0.0510034416185743
0.0524239507978675
0.0521578838894763
0.0491842614483097
0.0508451865238931
0.0497023818565666
0.0488052112523266
0.0517173640240378
0.0523025657153996
0.0485400940937276
0.0494499133262832
0.0509967016679493
0.051823589215522
0.0505414744708976
0.0486603237413065
0.0484301767181078
0.048031091710453
0.0472965216350463
0.0471849375724094
0.0471811402173844
0.0483143590100701
0.0467861540740464
0.0494098221229576
0.0477470163782842
0.0478166777945293
0.0491620152715726
0.046378589991637
0.0462682004116739
0.0464949642860308
0.0483804903338362
0.0474580447317712
0.04761611975501
0.044473312776628
0.0460689364624524
0.0433682061812984
0.0451805499385603
0.0462427992762408
0.0438877613541698
0.0457009315036582
0.0454433721265551
0.0483305317831642
0.0457169368001088
0.0455431940067206
0.0458802460251485
0.0447236977247885
0.0430875635470371
0.0468106549222881
0.0478943740307478
0.0459784374783244
0.0447665211624695
0.0422534966561023
0.045518903071935
0.0468519656491823
0.0472088638617288
0.0433308332547652
0.0443517444826189
0.0441271507703916
0.0451726406628615
0.0446966604766477
0.0417089083113002
0.0463876440252354
0.0482219416296896
0.0447674225147179
0.0456074154679287
0.0469101426742604
0.0456552702105066
0.0419199688870039
0.0449391317455077
0.0446017398743521
0.0435239471491261
0.0438162087840026
0.0455616370703058
0.0426779695849793
0.0447083000434734
0.0440644788209342
0.0435581190764886
0.0453335753557009
0.0446766674688925
0.0412035069612503
0.0418036899131135
0.0429772412888434
0.0429601849958541
0.0455899292798241
0.0438401560188881
0.0440649802147598
0.0413495300566379
0.039919971709401
0.0464526293180442
0.0452426622019002
0.0417041017039106
0.0440908685389121
0.0404002382454194
0.0414324127156437
0.0408830802850209
0.0453388604729711
0.0426916785631806
0.042306842375333
0.0439086415353139
0.0428475003967834
0.0408305273046912
0.0420134540548008
0.0410833729474481
0.0416253484892068
0.0431252662275803
0.0419820045247474
0.0423377865540226
0.0427246797513126
0.0433877722427612
0.0413463924007807
0.0438924908627907
0.0422830042142825
0.041624683727399
0.0434431252116805
0.0430726047401743
0.0428789789071391
0.0396848831562704
0.0418711789550799
0.0449853990867239
0.0445004548529067
0.0404535087455065
0.0413806359987994
0.0439164388459497
0.041360182808248
0.0430071262073752
0.0425051730182383
0.0435974933555843
0.0379776175361472
0.0439646159108241
0.0424799447246372
0.0442537851470711
0.042303844264858
0.0404748992879213
0.0429931792368137
0.0432641239235535
0.0406444819183246
0.043521932102006
0.0456838239392877
0.0438476978929581
0.0428645683936057
0.0436943861026687
0.0437513505964713
0.0416756711214842
0.0402492565065246
0.0423474470831966
0.0416811853946828
0.0439816928067944
0.0426090054245863
0.0434626699128706
0.0426952046658269
0.041764282990282
0.0437984454114292
0.0421648809516661
0.0409443078865461
0.042167486206758
0.0433488909302928
0.040063818762053
0.0410274521143288
0.0407866017117061
0.0416565614273786
0.0423951825251224
0.041217978061039
0.041350112822101
0.0449962830824651
0.0422760020078944
0.0416578662713302
0.0384108936260997
0.0445620110346329
0.0436719266190673
0.0435752294766592
0.0425037809137192
0.0411733991715782
0.0454233219872566
0.0435296830115185
0.0436525951420951
0.0411811907444865
0.043157751779771
0.0423965893249649
0.0426529490836143
0.039855312810971
0.0434804869033806
0.0431874251429565
0.0425533776685364
0.0436328580197242
0.0414956003878963
0.0439963689232707
0.0417587865275509
0.0429745384544294
0.0398912390414298
0.0437803299623491
0.0410187819974565
0.0414376705207274
0.0418811616840733
0.0467333203642665
0.0445756626936375
0.0427237852686909
0.043153413885608
0.0429710388431101
0.0449581427191082
0.0452708190599057
0.0441179615935438
0.0428558741777523
0.0443093007112471
0.0449540306216577
0.0426744348127195
0.0421247495754208
0.0439017479112961
0.0406888967068416
0.0425350301401304
0.0454750399545618
0.0450527207842707
0.0436405751818712
0.0440852734004527
0.0454396182072868
0.0444055064185137
0.0467541069437299
0.0424872651078472
0.0416771760308035
0.0441496835686608
0.0471974583695889
0.0482240669279513
0.0437630155586642
0.0472758350171865
0.0441307195290536
0.0460523407323277
0.0440764189601961
0.0450684758813064
0.0462134761696935
0.0462893040667547
0.0427973357069669
0.0484640095953938
0.0443292437198435
0.0461101430519353
0.0440769235058735
0.0451788889429866
0.0472719942937243
0.0480725121342077
0.0458036833455229
0.0478588443283877
0.04852309933998
0.0460151097816256
0.0489721905773952
0.0478559954980456
0.0501057176943371
0.048393529449687
0.0475941130105739
0.0495162541450942
0.0447247793449419
0.0463033783334768
0.049443124483571
0.0463446103648196
0.0522766644575661
0.0498587680002951
0.0493556296193054
0.0496394640463861
0.0500640702676943
0.0452313389143453
0.0524024479767355
0.0497048931429518
0.0493729665852946
0.0494308205099607
0.0523399935373627
0.0523076959701733
0.0532706810244482
0.0490012731253153
0.0533503332924649
0.0505993478897932
0.0557881500139773
0.0507971304368322
0.0525466680241165
0.0553298720957138
0.0493470473704182
0.0567852209860917
0.0518055845485786
0.0532049321015756
0.0546353789621399
0.0530700585102496
0.0582041801574779
0.0527323268117307
0.0577638728506795
0.056096238823154
0.0550173723100436
0.0597254346216742
0.0568834104583672
0.05838793215378
0.0559363699030256
0.0553212997472148
0.0593690891224742
0.0609966427580206
0.06095062456125
0.0591484133538366
0.0583107395308696
0.0566254646165563
0.0642141150437344
0.0586988652201546
0.0577215243526181
0.0647876777128132
0.0645318854268953
0.0645039011768203
0.0634954927330651
0.0651693993067814
0.0630702449114344
0.0664217451006303
0.0675906702656593
0.0622028090122517
0.065909916134972
0.0733340250685304
0.0702976026398658
0.0704123200807592
0.0734758535089767
0.0701126428770736
0.073715169675567
0.0795650436962882
0.0801331519471562
0.0795078773920862
0.0769207661155271
0.082210828364886
0.0817421490869926
0.0809141926991022
0.0853821485882368
0.0839329315011376
0.0833487088100214
0.081795404135456
0.088169041398386
0.0855251946469845
0.0886476496390697
0.0887985132989107
0.0866845881884698
0.094912068910711
0.0932857064503351
0.0963932791953407
0.0882426682073753
0.100297380508423
0.0955418478486936
0.0973734629919808
0.0983355888803315
0.0974855670910954
0.099783504985455
0.10289543697112
0.104265261256248
0.101091656963988
0.112292496486849
0.107986502594336
0.103967428960699
0.111455173694063
0.110511631153093
0.115324526739622
0.109424522221123
0.161423687537786
0.127064898818056
0.124025251831542
0.129392603134337
0.126046872745263
0.134202429632026
0.139487883079527
0.146508433076945
0.147279128114206
0.155017580312648
0.161243668371332
0.165296843640673
0.164168561715653
0.174985277513154
0.178725523468762
0.177353621323835
0.187421674655027
0.21100442188834
0.203286369961163
0.202187803434138
0.207739717539767
0.219564523900349
0.222188217337472
0.221282936364655
0.233517891376415
0.233995992985196
0.237882978035742
0.258879054244228
0.253800310602136
0.254537853321578
0.265771711657729
0.276442964954209
0.276925743949226
0.298416521668702
0.299448929303876
0.295257090216134
0.298028091792585
0.307319349170797
0.312973652606238
0.314571873511034
0.341964816062706
0.333511549867486
0.333178376955296
0.337091986774419
0.345294741358738
0.350182071015312
0.356780767369565
0.353660429734149
0.354281668958717
0.354197670070594
0.378282867639133
0.408254316539723
0.372919332456394
0.360818735091663
0.363301858321461
0.359051627492772
0.373190564967997
0.360013037208941
0.387995487230686
0.380884107771094
0.376470143204839
0.379887392230693
0.377823153966311
0.374306350611779
0.373947741879783
0.374323068341076
0.3729031200902
0.378342196886041
0.384806048319197
0.392024657599843
0.412332387147945
0.379515382916681
0.382806605085637
0.378423466291875
0.383835341198582
0.380472539358337
0.38040593181865
0.371458715118172
0.376343521404868
0.373983028623344
0.374872898925419
0.359065426962868
0.379134671331629
0.367431339107041
0.360955594977813
0.355630343423564
0.35489401197582
0.356083920869637
0.348209273699044
0.345055866045969
0.370627867093075
0.344625998963753
0.341296919102331
0.326935231430056
0.335796827154515
0.330356967183647
0.336153836838927
0.337804951509536
0.333596937613478
0.324162899336905
0.327423985743405
0.327273607735489
0.323213811232381
0.315684366764342
0.32123930093788
0.314517099920798
0.318317770587434
0.318447384006374
0.312415341790537
0.310707214049384
0.318191552581355
0.317697154145022
0.314265267845541
0.312542573739013
0.316197150848458
0.31326387098543
0.311627927920559
0.312814372141804
0.313626547048639
0.307728716149706
0.30763151521332
0.305496000585883
0.309410825438934
0.307955859747398
0.306282332574672
0.304477929585718
0.306106387798008
0.300641790203338
0.302649013807079
0.304998146377581
0.300653300832172
0.298609858184772
0.302247719904341
0.322551803762481
0.301625585675333
0.291997406954034
0.293957023754894
0.291238967981651
0.292011616237093
0.288785024829634
0.298340862941788
0.289480044498882
0.286388466631754
0.278460404710626
0.275474385291306
0.281027451000988
0.274836875905157
0.271548923561534
0.275260974073035
0.266918189521561
0.279721232600748
0.278366829315185
0.26926453907615
0.278188297499913
0.261758281973236
0.258491602279742
0.261539609028385
0.262126274551279
0.262297086841045
0.260608839422548
0.259845831795361
0.264094525852552
0.258594823299384
0.254873360890396
0.255486857292138
0.244669223518259
0.248153351813035
0.254085257977857
0.244680185957258
0.244451387225598
0.253080575614019
0.244247893369355
0.25793861582158
0.252306137583004
0.238584366373758
0.234633124565092
0.234601581517212
0.232470169694554
0.235719922292552
0.239636192965229
0.225688234077551
0.227516146043479
0.224347949699151
0.222661547404573
0.22185217004124
0.219241374504874
0.221665802212625
0.220324168617713
0.228278456942626
0.21044094579409
0.20993727672968
0.215648761876769
0.226894539911923
0.215503161082953
0.210933581299537
0.20733696604815
0.208701865569957
0.216844642005691
0.207417004581953
0.206976295702097
0.202069945634645
0.200254586819116
0.202616680289706
0.194975056903922
0.193284849281074
0.191232964337888
0.193193449789294
0.202110017803295
0.195164044277294
0.188870617617264
0.189318198325512
0.187612955875846
0.189591833093493
0.191697177834583
0.191987367289768
0.184043280444175
0.189983421213496
0.190045931326108
0.191526935392947
0.203529818837671
0.194125238358977
0.195755917210833
0.196960892643471
0.195568457684463
0.19639181809548
0.208223344657607
0.211122445971077
0.206548497978055
0.207101822448199
0.216829871691511
0.211506535589609
0.216165746258583
0.220106754188295
0.225898395184293
0.22649273097439
0.230463656154536
0.236931976731716
0.235883084152498
0.243707021397338
0.249833329674318
0.252565414221421
0.269097935564521
0.264751288946714
0.272964000423538
0.275015920433815
0.294251468270699
0.29412724798749
0.292932598206606
0.297409313063577
0.300547108529383
0.304894086738544
0.30415903494114
0.317325940856064
0.328405871971084
0.317765118136793
0.329155270164771
0.332072333118205
0.33343206396542
0.332457381623665
0.34096376143688
0.342672633414447
0.351247767471952
0.357661534658001
0.346435077179435
0.356360562046227
0.35392161804961
0.355342058453437
0.359053829781054
0.365667778822948
0.363689741025831
0.362451266555746
0.373602321695451
0.369587453589712
0.368444895895598
0.376051862751043
0.37519868017631
0.382179702529466
0.380364320603999
0.382237105779831
0.385111040379519
0.386598603713219
0.388430315911218
0.382399490011496
0.421411107435638
0.404885584490706
0.396345913028349
0.403260757319201
0.407794262727294
0.410454390397679
0.412213101974607
0.426370952055324
0.423194696620664
0.422325372442249
0.431167973151258
0.425791094929445
0.427287696747774
0.435820019205256
0.445191630914077
0.443291384585051
0.444065701778539
0.443898797710792
0.464108834768987
0.470731017518701
0.451731971605817
0.456840934288629
0.451025104236046
0.454612261746582
0.459276525209765
0.46317881802416
0.464420826551229
0.46835072973176
0.467846376231106
0.469537262005627
0.462716982978871
0.465868328358583
0.468910945495315
0.461064288969888
0.463223388138608
0.462603505073663
0.462699736593735
0.4714372797561
0.46768202899161
0.45903571548982
0.466249900543979
0.471847620521967
0.460759749533994
0.461538633683049
0.462321001339707
0.464810636476866
0.468472089750688
0.464162130862051
0.467116330004232
0.466244369988425
0.468122416449536
0.470817849834679
0.465742759181113
0.479321650643104
0.471121193284047
0.471921360251026
0.479125541019541
0.482458239667504
0.47733087361323
0.480395864423638
0.483638124710508
0.482920774328972
0.488796071046434
0.49005303340373
0.489098069690202
0.48958317675267
0.49044068805181
0.49257724270373
0.490228169343599
0.484041604075177
0.491610163848137
0.489668217462343
0.488605045527458
0.488604044192723
0.483582883896549
0.481222068637637
0.477692170142944
0.464880686180333
0.465830151813937
0.475553093800194
0.462080570484599
0.456187230082261
0.449588389892849
0.450975923790881
0.448587483167275
0.448808197330699
0.444965544116146
0.439392111602653
0.443609543196334
0.437132669254356
0.435558809988465
0.435853015649277
0.43205323314539
0.4325010357423
0.429531325619302
0.427797066064614
0.428637752133334
0.425640049832068
0.422206631024177
0.421649230636119
0.424502699290717
0.423287243056907
0.419614538550842
0.428037769976314
0.426998451882154
0.42282646683187
0.430599796280075
0.425474355792424
0.425702818035468
0.423484101829912
0.427639460413029
0.424919597534603
0.424298527992511
0.422007983203852
0.418357399978177
0.418139015823903
0.422304890289973
0.422095215339919
0.4203312705163
0.4189123806608
0.417735848527916
0.418150797632585
0.415805553016722
0.419743016272932
0.419693174389369
0.415992383601212
0.421051072756351
0.417570685160913
0.420200941905666
0.422680717731634
0.419035703724351
0.419606956892751
0.424181727331938
0.420571114648927
0.417193100028907
0.419736562699942
0.418588365210012
0.418078195767042
0.41837472391977
0.417085265174067
0.419168981394239
0.416233008109403
0.413852801777658
0.412656668167186
0.413430744928734
0.408106258232766
0.404946775387878
0.402451405339717
0.402229778201783
0.395497619634846
0.389085840250277
0.390164750414253
0.386548844616574
0.380214531049226
0.382304646673342
0.377712971411604
0.374405080089721
0.371125568868587
0.372577919156941
0.369059876754042
0.362732211639115
0.362716812904824
0.366972867308689
0.36127872859399
0.361518468737504
0.359187876996424
0.358409458034309
0.365240199142317
0.363162807891852
0.358552990098971
0.363050118504306
0.36354431753248
0.359845686070324
0.360630450335908
0.361537821285754
0.367075563850388
0.367807356685709
0.368654484785396
0.368239132924775
0.37308249366752
0.371023298961437
0.372120717549694
0.376086309738894
0.374659765693897
0.37464703561913
0.377446000145097
0.383327950699951
0.381084021803975
0.378812125648275
0.383047048772492
0.383058095584122
0.387607450293695
0.385766018351339
0.385101928458971
0.386378805299607
0.381805656660737
0.383494963907811
0.382464463541205
0.380146192729845
0.381761735155643
0.380773443982069
0.379579311073874
0.379122350386509
0.379102294384743
0.37714159103376
0.373712740177823
0.370434708902277
0.371680713922821
0.372065517917211
0.370619391837394
0.369917800763741
0.369507267884093
0.369423769589018
0.364220375298944
0.363911460940157
0.364120333012986
0.362588161043346
0.359303497814841
0.361934645632996
0.359853399989766
0.356450741280905
0.358896987665985
0.356276320134259
0.358541052272175
0.355881254641613
0.353887722538945
0.351903150280164
0.349415836148551
0.352076917984464
0.352772828610721
0.351495997059102
0.348879773847862
0.348895639230364
0.344367372021217
0.342715475498899
0.339671228076098
0.339467382179721
0.337772399331235
0.337448178593422
0.332561829558242
0.328585563931868
0.329600701112611
0.323246783626892
0.322999637116993
0.319455297936555
0.315652945277959
0.319298402748038
0.315569170837568
0.311375591118913
0.314614883822045
0.312462534208867
0.311901431911401
0.309761987693348
0.31101179139167
0.308737535353955
0.306018496886403
0.306513961965598
0.305961403216913
0.299166892357603
0.300879072617025
0.295554068699447
0.291675894713608
0.289978650152804
0.287810943504332
0.283943045650696
0.278043748679839
0.274580963922636
0.273530529068174
0.27319983764859
0.271765469694808
0.272347514823677
0.275240429757494
0.277848705159935
0.279315920884967
0.28685813142728
0.29319778654449
0.300201398510889
0.309172135889083
0.322178857251952
0.33122524328465
0.341011883091978
0.353700158945201
0.372371212439691
0.382438327685618
0.394924483377225
0.407330712786825
0.422501981163261
0.437245566838374
0.447518892826062
0.45740707086078
0.470764894395597
0.482947972885691
0.494394413514755
0.506399455622471
0.520066605110113
0.528715100734236
0.542519908037914
0.551170243198746
0.556440871382364
0.565412386179047
0.573923060132786
0.580499898815512
0.589639787020704
0.594363247783488
0.603347226809784
0.607457167212117
0.607133455380055
0.609181907173667
0.612835752761588
0.609349811834662
0.61631694171581
0.618279837044779
0.621677731096864
0.619677372545282
0.619613986639125
0.618620148198644
0.619007165999537
0.62621241601656
0.624596002864726
0.624699414743605
0.630254249791854
0.636173408006132
0.636846343874417
0.64155172174796
0.646645432876158
0.652477529268851
0.656781101438336
0.658973301562199
0.658176720567292
0.668315324485619
0.679353551931846
0.683162110395686
0.687304106061074
0.701439732753783
0.702365633537019
0.711526688777252
0.721977788197093
0.737493104393241
0.745049902938196
0.754298294098762
0.76397257002811
0.771014184315673
0.776179261338846
0.786856750183388
0.784725715369848
0.795202576703746
0.795187992994359
0.788230432115339
0.793302273883181
0.794223567399629
0.785663376143528
0.788848503622743
0.775302637838831
0.776651962831786
0.776492554904762
0.782094693070796
0.782891646370194
0.788103555175426
0.798049197414343
0.808122283514701
0.815249745790559
0.816999671738714
0.834918256612957
0.841381128889574
0.856068947515219
0.873504121980356
0.88713787571101
0.890235216368846
0.906847202516929
0.920490846070211
0.940586686132668
0.948374087211286
0.978514811512968
0.978263665527921
0.985405894628551
1.00003523595343
1.01030597191294
1.02938305207725
1.05306527267866
1.06149707833436
1.09593743204037
1.08319685032225
1.11476991048008
1.12524297797023
1.16922941576552
1.19203813163739
1.20538188943858
1.20445793242339
1.23187114406525
1.23964713043979
1.24569641586873
1.26506564591708
1.2761464842471
1.28579214609007
1.28470005010725
1.30002461960101
1.33320157287496
1.34878676443887
1.32823251324915
1.30632429416631
1.30567920344533
1.30556776676378
1.31837068992037
1.30253666156659
1.34639159364389
1.34296694731982
1.31497178155245
1.35001368496608
1.302123393143
1.32090973922368
1.35062909402468
1.37369938174905
1.34185455797075
1.38424601336234
1.3731034372391
1.39365566859154
1.38627659675669
1.43089648904663
1.43568593105138
1.45008212948315
1.44822931415234
1.46033376531194
1.45210905042939
1.4602689344325
1.51799722458072
1.50294826188424
1.54321771199877
1.50638932071192
1.49932836610333
1.59285045833393
1.53163334032323
1.61010901071444
1.56410951458101
1.56871638956686
1.53745559242686
1.6287544129145
1.63553170704646
1.66562165267497
1.57823924538443
1.60919748764728
1.6315479270364
1.62918011338246
1.62101058822113
1.60646892074348
1.62957979862822
1.62709967059911
1.54150484886158
1.68791268974517
1.6722310604761
1.65891272290941
1.73012187737378
1.68714030680544
1.71397923321937
1.58556044944292
1.55097231701156
1.59238481868186
1.52910087170663
1.55277671980651
1.47969185117816
1.50029567456521
1.42934069563337
1.38201844516293
1.31012197876421
1.26555359286137
1.21281147980381
1.20490824207784
1.14829308360947
1.12599029355161
1.1183141990362
1.12319432133756
1.08250945784007
1.0903778671656
1.04938234314071
1.05065754978986
1.06418898932811
1.04816271577723
1.04247237669019
1.02562889528762
1.00992061560897
1.01140967698371
0.981223412963632
0.985945897847468
0.962897009809336
0.959036567271956
0.935709005539749
0.906544434568478
0.878468167528186
0.865055687441612
0.836216047103573
0.817210666940679
0.782829968245577
0.749142851711388
0.725221356375279
0.694607138882272
0.654154998522727
0.621621294543646
0.594051489602707
0.564516178313922
0.538503149123003
0.51603809393138
0.488187264191297
0.469732706941356
0.458005093676269
0.438402425216731
0.419961204511813
0.406148831327732
0.395492375112408
0.37492714149893
0.370146216262355
0.361570663367058
0.354884375133967
0.34857788913656
0.342862199721248
0.340401861168611
0.337055387124436
0.336513279617591
0.333225953728491
0.332236341987265
0.332338737123601
0.331049471084618
0.335684149284164
0.339882608381982
0.332109957939528
0.336072990527871
0.33690881541981
0.333462953348985
0.334510950306289
0.336500402038504
0.33032351378689
0.332198937573164
0.331683762677089
0.329756350229541
0.327610521163168
0.318310701492496
0.322975421926835
0.318329496238574
0.314542321729701
0.315776945313116
0.306711115179767
0.306492187344931
0.309966232983435
0.306322618840824
0.308547050062763
0.307692881795958
0.313857732125528
0.314409331859123
0.323304964147916
0.316252464691191
0.321670764203384
0.322353242292765
0.32226605942506
0.330907079639536
0.337282767806785
0.33473946263136
0.335800190236481
0.339982469714788
0.339590643569231
0.34313950113777
0.34118389914388
0.341221243219577
0.351208266453071
0.345943784158284
0.341561993691602
0.347972210387942
0.346548601454864
0.352037293187909
0.353800264232981
0.356533643042885
0.35722104209257
0.368000355727028
0.370201402893906
0.369266531818172
0.376493880638326
0.3849173835169
0.381851961509052
0.395079143974063
0.407954609427925
0.420609095980237
0.431392861619818
0.453329276484702
0.459058609641479
0.463805377596545
0.465281769998286
0.467118666225556
0.470493662457212
0.470378167198736
0.472371624750559
0.466516980913905
0.457625443443576
0.450973477152288
0.43343768826795
0.430304799671867
0.416025693393559
0.422287192076863
0.421907715654758
0.42355728738921
0.414992250317621
0.412242981693561
0.418078787040562
0.407932646553134
0.416197363309071
0.416137786048241
0.419604535451826
0.414068666908919
0.414595080234835
0.410572101925632
0.41071960908061
0.400696213218058
0.39381588719232
0.385950242498425
0.397402276246541
0.387483171659707
0.375110417572834
0.377725391110942
0.378901106623212
0.362666858149336
0.354124552026439
0.363162425138644
0.356705816108587
0.354849419416438
0.357507464582489
0.356471063059143
0.349924271958864
0.347494161127806
0.343742481495402
0.354412183224844
0.3351762797924
0.340066716738538
0.338680768162413
0.336330005205996
0.34018029357953
0.335442086561641
0.324735329530531
0.329457104368184
0.310090732273774
0.329039196266438
0.317735283116965
0.322616957656015
0.311100118753167
0.322593167547895
0.304970993135925
0.308779336270396
0.307281767647589
0.304464840056805
0.31268313092995
0.303565344519584
0.300648452446857
0.307979072976531
0.309740479639621
0.303450710693887
0.297577019348738
0.294771843647751
0.296770715806908
0.310575763410594
0.28988068385968
0.299658264991965
0.295747708570987
0.305077223777236
0.292564292589838
0.305172268120399
0.305170499867027
0.293915613781186
0.29910031842105
0.300694537241617
0.30985343000916
0.305953318028368
0.309323476529435
0.319030922004504
0.304477873130389
0.307537538093433
0.321971507673697
0.324003693808475
0.307157131012117
0.322940105581065
0.326533141306464
0.333203477333246
0.32955797130749
0.337785825955687
0.324894516472151
0.330111444934888
0.353933177785306
0.366723784056037
0.363508983142461
0.375199604989892
0.376756216494717
0.376907565753722
0.401347546226512
0.411975010675827
0.412858953949075
0.429523776734096
0.439508927980796
0.462630204357547
0.451537540700134
0.488300056797964
0.491889988589925
0.511568678058303
0.512170583714726
0.541256967906898
0.538624482151134
0.524307484206754
0.573093549449647
0.538502621086003
0.548606489176655
0.556870112550376
0.53729239878025
0.551225303557955
0.537516791201425
0.532847195368931
0.531504696011171
0.543383293983079
0.541310160694755
0.541461459950344
0.520856553927174
0.579672046085712
0.511426482209258
0.542551764255134
0.519061808853803
0.546292251186964
0.506862168912305
0.492283488147596
0.497144430471079
0.527993165111245
0.491307258710914
0.518485309645943
0.494466156394995
0.501179816291771
0.491911020008085
0.490652321518597
0.482199433001312
0.512467749102273
0.438006703597031
0.466079194611641
0.427652612744636
0.480680029757954
0.444816657083598
0.453138049107664
0.459568875125439
0.475023607709517
0.45375433837257
0.448616432798444
0.425625522202194
0.469211424840777
0.480663829307624
0.497302961407747
0.449415608016203
0.468545816551161
0.4525652905263
0.439849122276165
0.493720836641276
0.468894133842626
0.455154378368817
0.459917000692002
0.431772038922842
0.520983444748621
0.495811855510881
0.531620560126733
0.48146549928845
0.461489620525521
0.45338315277703
0.508991935869784
0.494629797928298
0.517898427306712
0.491228966700993
0.499497136702647
0.498279189652425
0.529428577214187
0.522014357072521
0.499556353324765
0.531485678503494
0.574145764259147
0.488223442076233
0.554721058110074
0.569765985242261
0.56220650167002
0.505504144198398
0.646671656316937
0.584222966519659
0.681978628151609
0.637977109701544
0.615995874596221
0.614282472182692
0.671959674604341
0.668699346538741
0.697910941493746
0.61766043959924
0.684984686262203
0.644377626201766
0.677890384298243
0.628443660423616
0.702461998490154
0.701263321726275
0.685815920462823
0.66804478658062
0.659223522899841
0.62807284394783
0.6801723475549
0.629216786376886
0.555963426427581
0.59306085852307
0.787804692225478
0.57053245309638
0.638028122878515
0.728715947063761
0.694226979789498
0.472487619032955
0.569315726222013
0.664101680330758
0.643855079167053
0.684366962016697
0.813714953495475
0.574404235128126
0.814437349318351
0.662108996189434
0.598560505153675
0.521161154903542
0.715564444228027
0.515588922345564
0.816577437034391
0.674265642210386
0.545800149061301
0.565549131933614
0.884901400111959
0.720112742821687
0.770356621628967
0.637160524583407
0.410599787916726
0.519101950397422
0.683792617696693
0.581888599283021
0.670064213129841
0.627839589971859
0.662347844487718
0.513953123967631
1.17217075485284
0.566982589040464
0.355772514947407
0.708479330539622
1.39841460402389
0.834236833433296
0.987841650784238
0.758480569572518
1.40107467365762
0.699661606502398
0.591871826234548
0.684565998393614
