3596
4000.36533379555
650.420452594757
1
2
2
0.039463163771343
0.0479733836753266
0.0518363950224378
0.0466352594787237
0.0402430150909143
0.0474232536452534
0.0495508612306722
0.0436879538011899
0.0359731581770669
0.0573072138619823
0.0371142881311839
0.0445998850710074
0.0471061737753546
0.0502646306960909
0.0449916680606433
0.0425082318847539
0.0422618983229339
0.0444050239058932
0.047057269992598
0.0419251466630933
0.0443418076345961
0.0457641091189125
0.0411760102176325
0.0392754470606254
0.0393318828492703
0.0318697733787307
0.0406784522584883
0.0524588194552869
0.0361032846109555
0.035006411846392
0.0375726567635973
0.0414606300901663
0.037011900494161
0.0368075068715337
0.0424198819343942
0.0428992951435741
0.0346270903493363
0.0416889285730973
0.0340532617450484
0.0469764603972202
0.0395753207491533
0.0462562224574955
0.040007883624732
0.0430145960683734
0.0419929097893322
0.0455213890356308
0.0495518862983941
0.0380895659415315
0.0359197770795013
0.0508404275696128
0.0462757962127352
0.038412640296619
0.039989023776735
0.0485698274307813
0.0428504954467137
0.0359452236476071
0.0416940837241884
0.0403383962146712
0.0418665949262801
0.0485480693331236
0.0468867310411961
0.0386179740799387
0.042456380487785
0.0388408196123941
0.0403571147380837
0.0371868591511475
0.0319217655899638
0.0408991000819539
0.0450608495139978
0.0430107372641156
0.0367895717940463
0.0398972828172807
0.0297005433081651
0.0322206959918617
0.046423217321742
0.038508251050702
0.0296547332446622
0.0448663213413591
0.0315250121973472
0.0413013966334368
0.0474853611932204
0.04009682088205
0.0447604408217802
0.0453068168275005
0.037458719761105
0.028109575950122
0.0286384248336905
0.0324629449083302
0.0405789592277709
0.041432264116787
0.034311953036865
0.0394643971521145
0.0451408782575634
0.0329773225909463
0.0301605662221767
0.0373695650295485
0.0412162095326458
0.0306404717756667
0.0386918845007966
0.035939496779974
0.0433986106321703
0.0567261373047454
0.0328734854055522
0.0409164418941398
0.0245737957291261
0.0327811078423221
0.0225060268250223
0.0296540279543706
0.0404970302192172
0.0291232672341858
0.034789990770713
0.0397515631953496
0.0399708115266002
0.0355205433884684
0.0358791506558726
0.0434010106665011
0.0250828383014704
0.0408394366297261
0.0292638365568349
0.0313181300857569
0.0415745326340053
0.0244493788635908
0.0378069342387217
0.0426311806533275
0.0343185029565007
0.0327114768184327
0.036660950866138
0.0220011768508635
0.0382212101394742
0.0366266639230995
0.036129002873199
0.0385091412851049
0.0215357107746749
0.0320127727051611
0.0291161648757657
0.0348765076125929
0.0298027625485176
0.0342574057626471
0.0196740165123492
0.0348062715120746
0.0396109180131305
0.0344964110673629
0.0299237578096177
0.0351232979679737
0.0316154414123077
0.0377636704781887
0.0313044105443731
0.0304054763814988
0.0325239020452363
0.034622249067323
0.0338636381461498
0.0321329410628169
0.0344629469161643
0.0236788134865777
0.0355219581476117
0.036123823777353
0.0280282078428025
0.0414963749648944
0.0230642200995808
0.0389420919813481
0.0224447306881152
0.0248101986543226
0.0416002618248381
0.0291926516897902
0.0300499851782109
0.034416777643456
0.0415779547784312
0.0236368051779565
0.0253274093551995
0.0394936620184003
0.0367655507861434
0.0299312735334877
0.0202550177937334
0.0261409199925063
0.0425486409710857
0.0338012348291816
0.0195415805554598
0.0325432750761022
0.0257941553698845
0.0372497329849669
0.0287638707026071
0.0384731102011593
0.0207094342915218
0.0401717429577323
0.0449874083466914
0.0234904492526681
0.0332310822234149
0.0228100858139586
0.0275779967794969
0.0364215418172459
0.0213000374559663
0.0286604578219455
0.0364038857163694
0.0340444285594719
0.0209647587785829
0.0444272612856216
0.0156390942319903
0.0324646030479826
0.0299287148917059
0.0354132945986646
0.0315875699752251
0.0248914211428737
0.0390738094862712
0.0316850534357673
0.0349328028904949
0.0273764180343439
0.0233651840256072
0.0352710818497236
0.0287084571659554
0.025544379167348
0.0322507559101396
0.0408796114729636
0.0207290974216852
0.0222193594772443
0.0366816517926405
0.0339543735111499
0.0334899501743637
0.0333466432582397
0.0295762717067515
0.0324583251440683
0.0331163087756726
0.0307429386317085
0.027003057255816
0.0327848211426938
0.0333704018831439
0.0391333108900348
0.0306551876727146
0.0337399467559746
0.0235072864050723
0.0398707708549936
0.0405049675037244
0.0317691753322747
0.0343251012910714
0.0337316595741532
0.0293177084049146
0.0281426040914212
0.0433937939956528
0.0382167637650657
0.0303600353064145
0.028075236356751
0.0257150460705684
0.0445683486059323
0.0311701456890717
0.0347544692964396
0.0314443662111796
0.0422973436502032
0.027495391667468
0.0271980616619354
0.0357296479953714
0.0384579352745791
0.0354385707017947
0.0320339078510112
0.0299158839871574
0.0307956790223776
0.0352644548184908
0.0347540474327921
0.0488047291987161
0.033432944279381
0.037910448049472
0.0349553823597046
0.0288744901853763
0.0389877279354578
0.0344286355960072
0.0265857836825731
0.0415175578930017
0.0445309929027324
0.0368859266705798
0.0312220299374129
0.0337634314379398
0.0404192582195714
0.0254127268848619
0.0451525546631767
0.0403800428136468
0.0272796931840593
0.0282321057777186
0.0342327434667912
0.027024832587996
0.0390289831284513
0.0343480987604361
0.0358066818521844
0.0438826478621449
0.0428381738424829
0.0392358446788129
0.0416165380922879
0.0315080951201375
0.0407579184416071
0.0481080284883088
0.0418519535940081
0.0389490378888405
0.0384785749355823
0.0324486476495847
0.0380064104127566
0.0338991847790185
0.0424059961124687
0.0501905089024062
0.0372051055757036
0.039919413230207
0.0442067025679726
0.0429052380002311
0.03734661852672
0.0505526565657201
0.0424312889269231
0.0469073901930745
0.0522213211662875
0.0429488384348654
0.0367620499021034
0.0361336183076928
0.0328357960337156
0.041358541296294
0.0437534325420716
0.0491787065302717
0.0353230040566785
0.0430255071338617
0.0408640703783904
0.0434361930579057
0.0443971840202733
0.0516590661224672
0.0369803366422922
0.0486258085758735
0.0448687247519608
0.0456669370050665
0.0475256153006715
0.0430473396032629
0.0468152119644954
0.0535735920886309
0.0510110602796534
0.0451161586692321
0.0504649937797975
0.0454580692995441
0.0502924991746395
0.0648402901766284
0.0506659182594173
0.043850368572917
0.068875857882372
0.0517798006491924
0.0593268345335817
0.0576081162694042
0.0549281195296003
0.0477224020858698
0.0604116039133024
0.059927728675324
0.0571554636746514
0.0617276770841915
0.0507019880258682
0.0602403319752548
0.0635153159135879
0.0695945241116257
0.067976414863201
0.0685701871081696
0.0707743404936419
0.0638470517414964
0.0646603466783423
0.0873407457007537
0.0570812852986932
0.0814731397990751
0.0698573864060111
0.0726787453309157
0.0683398716369369
0.0727239127916408
0.0764890270258731
0.0778694964565066
0.0829620915968306
0.0867212331405964
0.0728561859810139
0.0811168497985528
0.0882826551290509
0.0861827044485206
0.0860237236532579
0.094367221905052
0.08636060970724
0.0921373829933279
0.0925267829848321
0.104125090524367
0.102739856656722
0.0940585159037905
0.128765215482108
0.0968177884902926
0.107066516169797
0.103229660067455
0.102439890036253
0.10983912750735
0.111963458904521
0.119605308131905
0.122408881280528
0.130661688895493
0.11945370647433
0.122810676009969
0.128605646003853
0.128061425335445
0.122721064668294
0.129713594338422
0.136147576914298
0.13923236941865
0.127231765148487
0.148768639589752
0.144546586113284
0.164881839434461
0.151374905822405
0.147448581539726
0.146054597783935
0.149582821135326
0.152095279849107
0.161607882994562
0.152990310926342
0.17187795914894
0.163224616703665
0.176284963064685
0.176997191076004
0.192579952406862
0.177005741604976
0.18082617977968
0.178230671581027
0.183506314246605
0.180033510100703
0.196177408895623
0.185739471201327
0.193245428537195
0.188189278095159
0.219102916415176
0.212946812010524
0.22021128634162
0.194553110964176
0.214358369668427
0.207151855859822
0.229275609161128
0.21887323558335
0.233889077551809
0.226935323635257
0.235280951673836
0.240452893009814
0.232306255862091
0.24524207861116
0.239022537037552
0.244787099278678
0.259156857488423
0.267882901267741
0.266388087747484
0.259156203686304
0.271877060267212
0.25303881094796
0.279445310475389
0.284221151028026
0.299821535882911
0.286544667679054
0.283157452145776
0.278166932944806
0.306165349017785
0.283128204613223
0.311073027931286
0.299274259338967
0.330393597502505
0.322914414038486
0.315781552426855
0.312085405323237
0.348067270515341
0.329194893365578
0.332352634304323
0.342440664795928
0.352885642201663
0.334679744687766
0.356036166824855
0.353498528558738
0.382841788755577
0.329837612484924
0.420970263792424
0.348712285444755
0.376260820085977
0.390027921466912
0.393257544372999
0.380975614776803
0.414627962132941
0.419973152105386
0.398198056724524
0.405239573965809
0.426451870747194
0.420064139738303
0.425006313029509
0.434400793902381
0.437751213617755
0.433414078881331
0.438150209939014
0.434214609308045
0.474973793297586
0.438942255789307
0.451738597332969
0.471615742709793
0.494711336105704
0.4792336306247
0.475747188707167
0.478034657593515
0.499643880970426
0.486093585773055
0.488939881343881
0.496074490036172
0.528691893643249
0.499006410942287
0.538171832240598
0.51741238751732
0.572496025352717
0.538896887624399
0.550806395113011
0.536979596033649
0.537985442081084
0.533822221816048
0.598444044895408
0.550320873386822
0.575601649996592
0.569849451648893
0.604588166981949
0.598359187272533
0.663619486541477
0.615199422698103
0.646709843148246
0.594782194308584
0.611091561153265
0.588932107355583
0.640064924612403
0.60935554874801
0.6724026353821
0.609623734558264
0.64049177699462
0.642190436960716
0.685841977812185
0.669441198179587
0.697637346627316
0.681534312108023
0.72678643075118
0.673076296861955
0.708853100385775
0.69637515225699
0.717848723191661
0.68868254555963
0.743288412505008
0.69979479997364
0.724669365679926
0.750330565166451
0.756657854961496
0.693373279514426
0.741550468548564
0.719289387312434
0.798155570760843
0.746875569831662
0.756725387586732
0.700740028705696
0.795516818457405
0.796137287640967
0.815572280076728
0.760679774341226
0.813054710199471
0.835870142928537
0.80132706206589
0.763773336636382
0.850236728200617
0.812246431306159
0.931231494535162
0.794983901419498
0.867180376833145
0.83002395821047
0.853351942198509
0.828960318869954
0.915535402644615
0.916617963509972
0.911286192495645
0.839770004152072
0.925288222191733
0.892153918485892
0.941654347210246
0.90711579334743
0.905366668690637
0.889575014350001
0.956865661716117
0.907849216270382
0.965156702993816
1.00750780572632
0.983639832100279
0.953927430499992
1.07211184703834
0.945527549818732
0.963560234363641
0.954218796635717
1.03579910169754
0.969121865388499
0.980780929372957
0.968123111239683
1.05202008805186
1.00522023684193
1.06264449732275
1.05162966561179
1.08973444996936
1.02538754825856
1.13418262928682
1.04378634702172
1.07597538483488
1.02694297246991
1.1473046237719
1.03773214771954
1.10273128472887
1.05690247374097
1.10707250152651
1.05012801632102
1.08973722400651
1.02521132134755
1.11686538306513
1.08377485565076
1.12739270571307
1.02527316836931
1.07059793556278
1.13761111448488
1.29614280459697
1.15621684950886
1.19530257975861
1.27013365386225
1.25175092568286
1.09091488424164
1.19171169030231
1.24566027115751
1.19309569476357
1.10665373309725
1.41001471852736
1.25787689972319
1.24386461907621
1.1290793337549
1.28211456321093
1.18832675738901
1.17517812948622
1.23079324082759
1.19716441032718
1.24360944001914
1.20617022887753
1.28798570841674
1.39125825447099
1.23207386859868
1.36222037460962
1.18210434541121
1.21974233802678
1.24656677440228
1.26069434488029
1.18301837156706
1.37688129677274
1.24248943538156
1.25497022133902
1.12776384921312
1.26247021889176
1.33029229721714
1.34557225284176
1.29519941691579
1.39705127372374
1.31140156356631
1.24435730448646
1.38945462273978
1.62826599837003
1.26497738919931
1.31057870807641
1.42719909515985
1.40891730003005
1.33896550758009
1.45395348130507
1.31138555894901
1.4119874025824
1.39118493536074
1.35274348127768
1.28311885873569
1.42860003512445
1.40142106528519
1.51267460111077
1.49386605313475
1.36413630313799
1.29953634287702
1.39403808696379
1.38896079393693
1.46562289524231
1.34520955940812
1.32304061597704
1.36482934527339
1.3582453935342
1.3550140984642
1.40303003290255
1.30570853887816
1.56638942497274
1.46779566621738
1.41452195844284
1.37356094282343
1.46178645378292
1.46979735949274
1.56327842872916
1.40168645446178
1.4530406581909
1.605914428889
1.79553979859478
1.37246935696863
1.29043728437768
1.37113612114469
1.46315211237717
1.35064498863839
1.46972669005247
1.34224996464559
1.48184376690305
1.45752061955784
1.48578101711507
1.56355395668967
1.43293711739587
1.39064410324013
1.7732022396832
1.50499525491559
1.54522892368687
1.51426903740857
1.51794416345205
1.45262490620337
1.43514619206038
1.45473595232442
1.63036235011589
1.37580727078013
1.52645020782494
1.56572543612986
1.49593464915373
1.54870262136289
1.65435554790144
1.48161506784306
1.53376590959088
1.48493426638388
1.3613200970522
1.57716562862948
1.45209179206837
1.3982402065382
1.59496463716544
1.55998754483554
1.55487421353361
1.53660763980098
1.47486486734056
1.36902484245307
1.51798373687413
1.5010457368597
1.53274346316611
1.53679819471909
1.48281556644808
1.62996450650164
1.38989778430837
1.37123413562862
1.48784923162494
1.43780343593121
1.40052438364818
1.38295053203355
1.47271126322568
1.43871223451348
1.44260263079818
1.37158709158166
1.43003687226839
1.5566752398884
1.70050695540878
1.79435443884931
1.5966241483133
1.48851879929427
1.35357116420448
1.43119458372709
1.48416877086264
1.38763003757858
1.4920020395289
1.38304340702456
1.41299757367644
1.55953481856968
1.48291099791917
1.42750394361521
1.57585476088472
1.59386211786168
1.44411263431973
1.47270717633415
1.44975781684639
1.39048755738897
1.563250226455
1.62387123777761
1.54284990774068
1.581589297297
1.4577761145214
1.36582004099603
1.50947405266083
1.5464942372132
1.4499792940769
1.44036342428033
1.462251158024
1.49785141278802
1.42994890437
1.49489784285263
1.4552636087093
1.4989653409804
1.45196912795639
1.37387504032541
1.4481688186037
1.41707194082356
1.51501886291285
1.45485543784002
1.44829271758338
1.49220095955208
1.43269601994335
1.46429796205238
1.45788263604348
1.50272932521255
1.353582686792
1.34741608427169
1.48537369276261
1.54542307864989
1.3520968267471
1.37585546601232
1.39561670797621
1.35168990084287
1.31822322562354
1.35542535087932
1.43804508896888
1.44755043823398
1.35443845513613
1.39770065266115
1.35234260381044
1.44274582375584
1.46532162097003
1.32573845435211
1.387572916111
1.44652936679132
1.29305813481158
1.3730353504078
1.3503250938834
1.27983156988493
1.27884793905013
1.33112353832736
1.30673273937041
1.35212055865994
1.39260338514909
1.29552312584231
1.26494700645345
1.40160642321007
1.29715783710619
1.34488076147279
1.31366874944914
1.35665895414853
1.39425429973235
1.30332151798449
1.27909655386621
1.31301576532326
1.31188489086485
1.4194811476536
1.3620667250989
1.30543094681088
1.27622263024703
1.30125669697077
1.18340369858167
1.21442122504918
1.25766061976588
1.27772849439827
1.22941714177407
1.22928707299484
1.24863244114543
1.29477591905881
1.23666059575206
1.24005026445229
1.19844217444027
1.18542572861746
1.24188973458695
1.29804734239941
1.14377106006484
1.24278989788907
1.17056393468671
1.13182814875151
1.22247547247315
1.21159675235233
1.20905458703602
1.24990289759886
1.15827869946483
1.13881970822424
1.17622446782234
1.18468326700407
1.1281044798971
1.2016525184316
1.12124365204003
1.1324662341077
1.14045185158675
1.11794447514245
1.13192765352306
1.17233663590635
1.14542119566471
1.09860389294931
1.08972811406569
1.14276513294091
1.10780104037242
1.13551624494958
1.12659845835566
1.13063669015149
1.05139153339552
1.09249298872077
1.10109115568202
1.06657761978616
1.0480532641699
1.07179682060392
1.04615962814624
1.05070182863892
1.0083686150925
1.05251291635633
1.04642178486496
1.02839871139029
1.00877302811359
1.00712904520587
0.984128235540464
1.00346525606024
1.02994814500768
1.03668894565913
0.993303750888679
0.99572774266324
0.969691836009287
0.989435409627742
0.94937441079097
1.00546438049784
0.971794187873455
0.945128346215282
0.937294864694653
0.949228566989582
0.922808501577458
0.922503009806018
0.952980575215058
0.969022095531
0.891320209864407
0.940753321047193
0.910516692295655
0.902375561004734
0.926734475697059
0.931062901680402
0.903950593947939
0.914854151872143
0.910162931141538
0.912767333172627
0.871636160518719
0.89688494645498
0.881628832628249
0.881720857890776
0.878454987279599
0.869458460050022
0.857143617315541
0.862361958484335
0.875137370695909
0.850434327152464
0.828534937363762
0.849835897912034
0.838646033192151
0.847126346923619
0.819627234498797
0.815145673011215
0.793811969517731
0.817259170098635
0.781417611569106
0.795484941595195
0.795914241699783
0.808816428490949
0.797204144693674
0.789997237989764
0.801761007314175
0.788749238809218
0.774918010580554
0.788848313208475
0.762100305894375
0.771994484488747
0.752542061119861
0.76057403864178
0.773225759465711
0.761861021490728
0.742005869674598
0.764078500912482
0.733772345326826
0.738396405757085
0.715738841516834
0.711161430418114
0.737706416083563
0.745729922314264
0.718581577887845
0.734427278814045
0.69656400671231
0.701269174781888
0.702650156760983
0.69953483873708
0.697921168632323
0.72362539639211
0.704125626389811
0.706622844351643
0.694057364751106
0.684665874461831
0.664117995716424
0.695865894016052
0.663966003660024
0.697359242159781
0.684281097303746
0.66439843524518
0.656088915830259
0.662349069881603
0.657482414626098
0.654562682594867
0.653211526454114
0.653792612070393
0.645268772368814
0.641142793137492
0.63344618792579
0.658801698461922
0.638040885721889
0.634193502346384
0.623067892900534
0.631959642321853
0.615701285032246
0.603719586852578
0.601408501693285
0.622066006002879
0.595877850958743
0.616829721175864
0.60770188089703
0.590387019433266
0.596244812633347
0.60752966731395
0.587397164949643
0.600146919452219
0.584754684787294
0.592072534246508
0.581137036158819
0.585892448242741
0.57033264116625
0.58179531707066
0.559574998647173
0.57668161362023
0.567629241683008
0.568201892781875
0.54884804447285
0.565533851908463
0.556040718015036
0.556311136293786
0.529675905783087
0.553655576753211
0.541782010368916
0.537227042611544
0.535476589849368
0.55090110665517
0.529394567994308
0.525647847974075
0.522120508948313
0.520390844895635
0.525629155840628
0.523873141164207
0.525520986497978
0.514080894234468
0.503351743184842
0.514005477152069
0.515048880244698
0.505857350446808
0.499166346707746
0.511405053474826
0.499379147578305
0.500732487566765
0.493252426425943
0.494642146158433
0.486436508424683
0.494679207089762
0.492826271242277
0.487962243563401
0.476334207002305
0.486596480267768
0.473438510580368
0.485045292844052
0.476689817640237
0.481135763454923
0.458600761879464
0.468612629347502
0.470115872434262
0.46949274091623
0.462349197722272
0.469695829403986
0.463249256391385
0.46294669077899
0.455876239725276
0.463058623015663
0.46324750824377
0.46042983725922
0.449081595561286
0.449647126044113
0.455342659001901
0.460871699289182
0.462666266788317
0.457424202537122
0.449490720911632
0.461888752171944
0.453262317795394
0.461760542173811
0.446041098537713
0.463652143281144
0.457678636619465
0.456629927804111
0.451787391946418
0.460841740834323
0.459064495702054
0.45998510044366
0.452641453181566
0.468514894621155
0.464501446864683
0.477987663976261
0.463655495325685
0.472707119188978
0.475164685782234
0.477725520550787
0.479036913408082
0.483993723202731
0.491042959286173
0.482978771035025
0.477982634427148
0.4905365791118
0.484812239341502
0.506425491144684
0.486786226458102
0.504606518595243
0.510262436457804
0.505290324123858
0.506904784127683
0.514221086312901
0.501796393400739
0.523306433851193
0.515383854170846
0.512516048505803
0.529741716049141
0.528182155097103
0.527944251257841
0.534817443500234
0.525613452551809
0.545068499179999
0.525944555166432
0.542110990535289
0.521649962978967
0.544726306127327
0.54550018360737
0.567114547399826
0.555903845284482
0.558037787158911
0.546449843971104
0.573810549071488
0.573814092768823
0.578366473805895
0.572422621176462
0.58298628554643
0.593009491081565
0.589088755715313
0.596660637017431
0.607574899601679
0.606818450956502
0.610389247733839
0.614024230242061
0.626302781273603
0.602786451884574
0.609798770289672
0.622909585535591
0.63719873902825
0.599135391402453
0.639598870392893
0.617052676490073
0.644564043530199
0.610298536257242
0.626715054635542
0.620850870387446
0.628736220018153
0.629631746182441
0.637287113396081
0.614218425504213
0.628266699190098
0.614684923337524
0.633800004154063
0.61985043662051
0.630166395248811
0.599688898721655
0.623951224566543
0.614536002556544
0.622325584431856
0.59889477558008
0.635697725279624
0.615072860614626
0.621721832135708
0.612050899109836
0.628021358002007
0.604258683359142
0.615771548815657
0.629351872361864
0.623143289892405
0.612045477949434
0.625700980171211
0.597053261372698
0.623254230463194
0.609333396721253
0.623809356545458
0.628341652592402
0.626686091027641
0.610490941643251
0.636503440671228
0.601681364476939
0.633885729927597
0.62129663243272
0.620883609666367
0.613735703728616
0.631374807486853
0.609544080543601
0.619603066799263
0.61397668640705
0.628736179708245
0.603704384534544
0.617146445039203
0.605491935997594
0.616549853136085
0.607254490291357
0.609889817903035
0.604267825949748
0.601008128759876
0.601336241693121
0.601815853698034
0.596837186031819
0.602693805273896
0.59866989879919
0.606451149453945
0.595940449665189
0.587002893157222
0.575135765938346
0.586060621691102
0.578906969424512
0.570157876278679
0.564992875385336
0.560000995932402
0.545485447981186
0.569433843538418
0.556770291051432
0.563185919681163
0.532123973796635
0.548535444849766
0.529602890804627
0.54111002881921
0.526170097743635
0.523557880957456
0.514860009868686
0.520293532041661
0.512449018745522
0.515351473054695
0.511223962483911
0.514279590222413
0.49598180338427
0.503568111109165
0.487293948561761
0.49357444928797
0.477408243114541
0.488468292603924
0.477489837559573
0.477241728985129
0.474282401606889
0.478860756433249
0.460796570566669
0.460314158755703
0.455094711763211
0.459914256010565
0.457876970521965
0.45334491860899
0.450246103238676
0.462019294953581
0.448680593080012
0.450838432647791
0.434158808004126
0.437291228686745
0.443067816116398
0.432229841987745
0.431428373203681
0.429092658807758
0.428697088760381
0.436252246679667
0.428892782042442
0.432553843841798
0.424962329903504
0.421137617611671
0.4177173532082
0.416103050597604
0.416251133718554
0.412435735282157
0.408556824197985
0.407080418233088
0.412548365499105
0.417313283372858
0.402343681292624
0.398899054654067
0.398452893631317
0.405589843887737
0.39553002566591
0.398399106251906
0.394587169655958
0.401450361929061
0.396126034947199
0.393318592171424
0.389234696500366
0.400418731013026
0.394753761194928
0.386482772784292
0.388288122237
0.384566809948389
0.383932473454011
0.377239714152038
0.384894303750464
0.383508810120111
0.381172729959985
0.38043751015098
0.366046662900986
0.377525681243063
0.375195592038332
0.379517065358478
0.365187544858913
0.378938106797557
0.370887269283647
0.370587632053619
0.369129464902085
0.371953019878834
0.373924636957829
0.375231529427329
0.372286361706015
0.358929280978821
0.353078592395313
0.362517281988441
0.357047845306317
0.357087299677236
0.354469763039361
0.364211996462914
0.353134591937004
0.364780811922186
0.352438871829395
0.35561342692286
0.353966046849841
0.354912870424614
0.346726783971008
0.353829626378276
0.346302364519979
0.350998400876893
0.350817489640702
0.351060404537849
0.34854270122548
0.345655405473312
0.346354004139307
0.353431818714682
0.344142518343465
0.353513997783659
0.34731264584345
0.35039263432962
0.338721973243861
0.344991011956011
0.333939850911193
0.34457174939739
0.342287041803667
0.339281597519843
0.331187832838498
0.3371460403534
0.34212881415182
0.339214226769302
0.336127257920598
0.3406735406355
0.332636621517324
0.344392604355341
0.33343267817952
0.335692436979798
0.336476446815025
0.334827391523909
0.337699292330399
0.332602230867111
0.329703177462245
0.340156315277239
0.330390956080262
0.329351606301127
0.325618731307895
0.328972169397665
0.332040909305715
0.340043124025628
0.329268530686323
0.337156985046106
0.327029497184085
0.335430781234235
0.320809995508266
0.323243439217775
0.326974227524821
0.33121784180299
0.327106630066251
0.325008650379001
0.323851004820743
0.326587067788994
0.323324872122245
0.333607664488138
0.316460524024169
0.325160039477183
0.319876854301438
0.325874286273638
0.314139534299478
0.323306187581731
0.31903382122327
0.318566623414301
0.321118356234438
0.316782398185977
0.310124678324769
0.321361804525215
0.306485628459358
0.319610112321333
0.316288671905814
0.31727096364513
0.314751073548992
0.321595823646448
0.308803906216008
0.317860906404801
0.309824840090136
0.317088571952173
0.303609300262585
0.312056897410717
0.303547949868828
0.313185502367811
0.308526926078463
0.309928023092176
0.303995796711696
0.310098250053349
0.298836309040507
0.304368040175962
0.306290918982234
0.302193709730274
0.299008866711553
0.299461233718304
0.301706441521205
0.304397977507938
0.293890235734551
0.304129262194344
0.292828976374357
0.30084576296444
0.29363047627587
0.298177294807502
0.301682428364364
0.297810954874283
0.291482268873673
0.293274959150823
0.286421976853329
0.293858165825088
0.291650201998533
0.29367540655177
0.292275560070604
0.288873687466559
0.289234787271396
0.288565093128992
0.288194294846383
0.288965465289316
0.280552762818263
0.290231858801708
0.283261723985506
0.285256972476479
0.276722735210337
0.282962082197884
0.279566965077125
0.28313907308255
0.277565517948197
0.281046023078357
0.275994460426327
0.278781616756114
0.276053346445174
0.278368807947159
0.273509923006066
0.277049617522708
0.269286310047827
0.26921928332902
0.265650186070193
0.266483571262287
0.265289189927262
0.267597066075206
0.266316307880885
0.267007987287872
0.25957435845572
0.264596316217948
0.26379973915004
0.262873499950321
0.261724193903224
0.264804120600118
0.258219758180703
0.261932181463099
0.258259848210074
0.256403452850517
0.253697066770533
0.258548121448782
0.255875122557137
0.2516125089324
0.256648732365427
0.256803226585974
0.25330041391152
0.257514053052647
0.252571039729764
0.248228423652118
0.252362942529449
0.252301569408404
0.246216946210331
0.25448621422644
0.245291493002518
0.244048047809079
0.247309055248867
0.249558560439925
0.246635270624826
0.243013177256745
0.239789206722899
0.244591546484216
0.240880606277186
0.244414484615306
0.239054924055346
0.243947305945355
0.238792047167361
0.240559708640209
0.237010957851786
0.238531814882709
0.240918896907854
0.237902280457781
0.236246061912415
0.237934287080736
0.232129513388315
0.235144055644265
0.232852032687502
0.229408214517752
0.232022156416007
0.230393282197049
0.231964690493986
0.234466954801248
0.230690336039375
0.230997734779462
0.22668910240348
0.229713152553392
0.229161856957975
0.234045457245752
0.234378453237509
0.229031944652073
0.225521938035022
0.223976390048013
0.223470413862854
0.227694538801972
0.223582646131841
0.225772649791598
0.227509686332045
0.222566550002671
0.224062156547497
0.226777643100671
0.226495892886558
0.222400777878429
0.221562572835654
0.221733749477609
0.21871789722394
0.226295747718268
0.218726415873944
0.219023884204417
0.220192070983894
0.222129303566062
0.220170687914197
0.220945626617071
0.221752377869088
0.2222171180434
0.215981646204269
0.21514061937358
0.216581342085198
0.219917367252126
0.214898202718165
0.216187179021991
0.215499211250892
0.218603469919846
0.215574057454563
0.215278097097674
0.212235169884355
0.212599139926598
0.212669955709852
0.215696453904628
0.216698989195567
0.212420507109282
0.211723335137277
0.215213044694697
0.212975502135361
0.214131691907417
0.21041670625277
0.210387883488156
0.210996388806295
0.208941175258974
0.208374928395479
0.210631268429517
0.207027593846653
0.205344296979203
0.211730854577283
0.212365182354547
0.20687512225071
0.207650988545059
0.202305158806908
0.2044548014199
0.203890268894518
0.207954375710048
0.204163083572465
0.207142309630936
0.206681042738242
0.204718411234423
0.202239696166925
0.203831862686511
0.203299388889711
0.199620559274442
0.203148437858338
0.199771412232406
0.199866350309559
0.204069318896106
0.200593462594515
0.201573797529203
0.204183784812365
0.200790538015548
0.200133119380564
0.196080507137768
0.19747460281377
0.199982742135787
0.198836910556
0.201837681070952
0.201173516425518
0.199149553172499
0.195575561841015
0.197754333839935
0.194407173340485
0.196070570715321
0.194881293243793
0.197160970604823
0.193248599765748
0.194447923289974
0.192508113855761
0.194049408156482
0.194203292416688
0.195722254898517
0.193773414536179
0.193009679094017
0.192521977136787
0.195973070566417
0.193212810033106
0.191035492894082
0.187493046517027
0.191194230355955
0.189802354463109
0.190654738014371
0.188012536272318
0.186046144151144
0.184346936642311
0.188238587138865
0.186208867204682
0.185120677188841
0.185747508376391
0.190627912756551
0.183884715281343
0.179987864117269
0.185254016285263
0.183931215524021
0.180522978802134
0.182157534549429
0.182177002591864
0.180584636437632
0.174633191319995
0.178977098204581
0.181175157414803
0.177933862074004
0.179208728501565
0.177312008731885
0.169867496258078
0.174811944405628
0.174229841645217
0.174880675040008
0.174546243996678
0.179276968950021
0.172447354524502
0.169171063055648
0.17247075303421
0.172858577605236
0.171545431067663
0.171491002065933
0.17261308643418
0.169349506225013
0.169712386227629
0.171520509534446
0.169009056180278
0.168672334872145
0.167838115709329
0.166327989128624
0.165516698149845
0.167342228868761
0.168000332285712
0.1685630713946
0.165643841250098
0.165053999535467
0.161940634270524
0.16493674478473
0.165195290267475
0.162310797394459
0.161018759980431
0.16067381540942
0.160960144744069
0.159380469027531
0.159280788091059
0.160372349431536
0.158103867701317
0.161037157956964
0.158545696904103
0.157373007640812
0.154309033717605
0.15589044812575
0.154906158513956
0.154685599078663
0.154800378468643
0.151730831401943
0.153078452409465
0.154758233917779
0.149728078058288
0.153416414834889
0.152216560336177
0.151416945658923
0.152835169518252
0.153689434737227
0.152023677257861
0.15299175126246
0.150388426038262
0.14995496897628
0.149869212532498
0.149123770470683
0.147907665244025
0.147148544813622
0.144799684977082
0.146403196561278
0.143450444329097
0.145836899926535
0.144845737611604
0.145354619828102
0.150202387091021
0.149721267401396
0.145179384947807
0.143832910304784
0.14314567846966
0.144249963822218
0.144369009923568
0.143454714452113
0.142124304748579
0.145596864744846
0.142771643365508
0.141240697771227
0.142291487852586
0.144508106732547
0.141097509375109
0.13759664277674
0.13859003489871
0.140953639913892
0.13992932263916
0.141747354446442
0.135579062617391
0.139432092717812
0.140237303789277
0.136404256383116
0.134803629202409
0.137601636015582
0.135016750181096
0.138562522001043
0.136762962246051
0.132157762325496
0.133326744296252
0.133909977632154
0.133591584936174
0.138673267719039
0.13616535684878
0.139665179026554
0.137542145970502
0.135833670928708
0.138166898658823
0.135028049677384
0.128883280296436
0.130830728731143
0.128148835025639
0.134151425433044
0.134924810173491
0.134541458274516
0.126485555876586
0.130442876461478
0.13618410729898
0.130208378067775
0.123219443924855
0.131465197015033
0.129526081688138
0.130535369732438
0.129863028060399
0.132334903470637
0.125900622357807
0.129841074229538
0.130501854839943
0.134684034929817
0.130569297594575
0.13077759992614
0.132290199452466
0.133987351338316
0.130946660924599
0.132709839619479
0.127973982748491
0.132536762557047
0.129133946623993
0.126920751148785
0.126104866485738
0.131464329606452
0.125339426308937
0.127663079407822
0.126792851001198
0.123024433165977
0.126979538078606
0.125183572417698
0.127218966762209
0.12524828290737
0.12581611725524
0.120705215242874
0.129083161046602
0.124065905597492
0.12798357279175
0.122651464788003
0.12758358630182
0.116143417019702
0.125775246559716
0.1170152067811
0.124642599520376
0.120691244942791
0.126711573906491
0.121731442392115
0.124171186228449
0.121408737232542
0.12173099685772
0.121510147915668
0.118218341568134
0.11976519269126
0.12010467235764
0.124460411986242
0.121640557586671
0.118635087002007
0.120110390043168
0.120999486742817
0.125471129741586
0.121336444084484
0.12069680695217
0.120016858633355
0.119811027632532
0.120337565442743
0.120036343820539
0.119764764834369
0.116239495677553
0.11852295713271
0.118629835773644
0.117319516583789
0.11862029589087
0.11643189282845
0.117171075730211
0.116758709871967
0.119397726618336
0.1203179852893
0.119388194145576
0.121035395057011
0.119662244990244
0.116278186833772
0.119437871734038
0.120227495712135
0.117699764925268
0.118596749276729
0.121260237329614
0.120030438839715
0.119219248138898
0.116709823165727
0.118646026420392
0.118469762902066
0.117622726685885
0.117580920234094
0.120954902378048
0.119214588790352
0.117540816664158
0.11725397858742
0.118741181446325
0.120699477744575
0.119951222907338
0.116462291787342
0.119154524853046
0.120824522184772
0.119868838672049
0.117290931560261
0.118435254188825
0.117824069731577
0.116496417583532
0.118316459410681
0.117579842566179
0.118563643803678
0.119266649714164
0.116968349775068
0.118769157516777
0.119144218619327
0.117571775227501
0.113912885768631
0.117052348448549
0.118321981399274
0.114029129764123
0.116361285358613
0.118056199486434
0.118681161214292
0.115846489734123
0.111798175837877
0.11575070441811
0.116440093027622
0.118875423183993
0.119337150106865
0.11466599559488
0.117070327335712
0.118310140193391
0.116947189472685
0.115555932271283
0.11661477643131
0.117520647224429
0.118023758275177
0.117492807001027
0.116768572639576
0.116387867778165
0.117033602869091
0.118560081012637
0.11779722116574
0.118157149067756
0.117595307392468
0.118531516834316
0.119349601473169
0.117573420319733
0.120369734144475
0.118920803274256
0.118190916987276
0.117158843965596
0.111915902041934
0.11989252752995
0.121053874712786
0.118046565306994
0.119341269143446
0.119003782893369
0.11709582819995
0.116530149513341
0.117879585789065
0.119393529343389
0.121207360980371
0.119488982528671
0.116817368050201
0.120086915783468
0.119735811747464
0.119885203665092
0.118004103822658
0.118936848205351
0.118978416333764
0.123128208874164
0.121575111860716
0.120914202320874
0.120493842188751
0.120137981654534
0.122476824433055
0.120681697791807
0.118665876290688
0.121830633184145
0.120516050652131
0.12114257262299
0.118869163275749
0.119348216100897
0.120115134635382
0.122257280462011
0.122210879877923
0.119304574296661
0.119141250184942
0.120801400172708
0.120956938574158
0.122055546226099
0.12187323080608
0.119886522939792
0.121048373679224
0.122578697916011
0.122221122754291
0.121827394907015
0.122004046636259
0.120858940576424
0.122285418555388
0.123958317102041
0.121627556711506
0.124625118722357
0.120869936508633
0.121298537856453
0.120720044554772
0.122756168105977
0.124275180028197
0.124463712371967
0.124046437300084
0.121944604636256
0.121283162150906
0.124297176289924
0.124560139582925
0.123138439882922
0.124723204412604
0.123663506460083
0.122864115913531
0.123655020209302
0.124219824121886
0.123651485034892
0.12494153326895
0.122560345472164
0.123217971422327
0.123911391706833
0.12449160767083
0.124935862494414
0.121829443032663
0.122480921442291
0.120905478725213
0.122922217194541
0.120235011438354
0.11858198136801
0.123762620896434
0.122504054023844
0.119574295093789
0.121483772434634
0.12190293084195
0.117620163020556
0.120293643808668
0.119554383173221
0.118513466265735
0.118424687919866
0.119451656900342
0.122320876926555
0.118216649665257
0.118865925714393
0.121145675743699
0.116004371214937
0.117778611448813
0.120167211866176
0.119402270292824
0.116831989009668
0.115812773265943
0.116232751100228
0.117942837716338
0.116367370728644
0.115661449671149
0.118049302101644
0.116708182249065
0.115481786903823
0.118261583172758
0.117368256963927
0.119165957493605
0.117930518162677
0.117893940252963
0.116343555435533
0.113239194729138
0.116705344679775
0.113291360433319
0.113846495795324
0.115528627451817
0.113948820543232
0.114205614506227
0.112075678757886
0.116298114765079
0.116515537137139
0.116154795146257
0.114161352338053
0.113450274872944
0.11482925853646
0.113709464274215
0.113827524578489
0.115157022833879
0.113624241704462
0.111319350522119
0.111794572804969
0.110744044091384
0.112847971106359
0.114051084254971
0.111237465246625
0.110909857598036
0.112853691684258
0.109956521617356
0.111095799459579
0.11132430706731
0.112968917615987
0.111764693835572
0.114685384612457
0.111142734539767
0.110790101068031
0.114041049769239
0.109642603834831
0.113460512571518
0.113239066276933
0.111280339844014
0.11097576855131
0.111151401064013
0.113180464896369
0.11148135842102
0.111244402471624
0.111329626865867
0.114553665346697
0.113018071994576
0.110746472694442
0.11008161560161
0.110266899266945
0.110183831117667
0.111637208199421
0.108286194481398
0.110680569729364
0.112681850664349
0.108607985005182
0.107381551487517
0.112866675724501
0.107159536788662
0.110177232930048
0.107748963023114
0.111358935714872
0.110764641097768
0.106634849877155
0.108080080430808
0.107718374896964
0.105940353961904
0.107679073870253
0.106390521808239
0.10851173510927
0.106841122716167
0.107260494761497
0.106199644611252
0.108305199789692
0.107094749236441
0.103421077334044
0.105209801989748
0.104459839319217
0.104268108576899
0.104827159394355
0.101889821456611
0.104294372785582
0.104740225497467
0.101992012827468
0.102449155899329
0.103338435655797
0.103411127213365
0.101216957560097
0.10120066573232
0.102133001266967
0.101361658650045
0.102581083151042
0.099228118684534
0.100376414127985
0.100468916372051
0.0991581967422741
0.0970419538515609
0.0983907776875967
0.0982657289676531
0.0968884683413666
0.0985916106473422
0.0974559044057977
0.0978049924850765
0.0989626860687545
0.0972867717450388
0.0962677467272021
0.0952057114436598
0.0953598361613996
0.0945745914010122
0.095459940605975
0.0941856059667515
0.0945006920447551
0.0948695599948776
0.0928456155513787
0.0916429077543552
0.093427223033731
0.0932246525599094
0.0951814111424731
0.096560014614046
0.093150686810976
0.0921583619139425
0.0931182175162916
0.0879521933636377
0.0906234412227816
0.0908485637582507
0.0921095651492765
0.091802421717144
0.0893000886940615
0.091255563174306
0.0917430872304262
0.087328093248835
0.0914855774153881
0.0882416242749596
0.0883758960661548
0.0905479007890942
0.0911776317524911
0.0893270422765417
0.0878968246019073
0.0852164942147505
0.0898641486156261
0.0885464947902492
0.0877645652284108
0.087627338933755
0.0893440030650233
0.0883674527509884
0.0902730279747503
0.0873652231068115
0.0889046257256362
0.0863468418458577
0.0873350401592511
0.0867449681901734
0.0892882700064225
0.0868588997374156
0.0849453542710707
0.0865403378644806
0.0876969684834843
0.0850510341040154
0.081559948858206
0.0855239628387826
0.0829951325482408
0.0850400892647348
0.0854931062534732
0.0839992330088034
0.08188349891581
0.0856197100717933
0.0837932395438922
0.0829717234891044
0.0830615642645272
0.0800872080422923
0.0831543613962217
0.0842399353143438
0.0823376824174853
0.0829345626001567
0.0818784300002021
0.082704470148227
0.0846574139615722
0.0821185276036685
0.0787692748412381
0.0811030898097029
0.0788371732488673
0.0800963435764134
0.0802652296137892
0.0836623234296076
0.0809018089968389
0.0824011184953018
0.0827325028806591
0.079017162996716
0.0795535134780579
0.0826280263867929
0.0799423096108627
0.0798313054189134
0.0818546697438945
0.0809518587358939
0.0798872119275034
0.0784684908487045
0.0806121807683112
0.0794686979356406
0.0813400548238596
0.0805424991742567
0.0789378822489111
0.0840289567662062
0.0811922039363258
0.0797037566917716
0.0803905790331226
0.0765122544418265
0.0809814945014318
0.078922924486938
0.0797046474119618
0.0799885265606577
0.080844038831717
0.0780046533349716
0.0811087774517412
0.0789832784841504
0.0795553348369765
0.0769769700475669
0.0790237309729992
0.0779667014566781
0.0771130320904818
0.0792243333616794
0.0785550410382434
0.0798078314734149
0.0781742632889561
0.0783511902273495
0.0789445979659607
0.0796168703170658
0.0819089954206116
0.0790490011540328
0.0787151346977164
0.0784583361866942
0.0800393180924486
0.0761443522169113
0.0801481212524563
0.0763851933267831
0.079596966675941
0.0791160118104141
0.0751798705813148
0.0791431297555199
0.0779995699966373
0.0783827373638565
0.0781320540168352
0.0775580901064886
0.0755457288769363
0.0776838173354021
0.0781019098882956
0.0773540841583639
0.0755366582091603
0.0742241400795197
0.077801211327243
0.0744302101562173
0.0755595674554871
0.0787694939308568
0.0759357669792852
0.078165437032871
0.0830553332979471
0.0793484474730712
0.0814308498176552
0.0789934154776204
0.0778300512639848
0.0770934750619637
0.0757095224271883
0.075933347765458
0.0774432291347214
0.0771564117789589
0.0755733203571688
0.0767928488144464
0.0760177030940806
0.0748636687346857
0.0778952638293043
0.077114768414444
0.0761495760191358
0.0797780926982288
0.076681425275706
0.0736412907672676
0.0755001285718506
0.072564756677432
0.0780013447187228
0.0772654546034622
0.072521624476849
0.0786572396788785
0.0767275217752182
0.0785777501986042
0.0770841401491
0.0784924129898867
0.0793130357199687
0.0758680288343513
0.0774545653024878
0.0798525249125096
0.0783192877361346
0.0795273051329684
0.0791932780674961
0.0792443455784089
0.0781693232352688
0.0757195536651844
0.0786599477944002
0.0752553100939873
0.0746321873200944
0.0865631248150301
0.0789417611392921
0.0792884922080545
0.0789962689040554
0.0818112043229862
0.0804439164226074
0.079283333071068
0.0795049182284957
0.0793758426443711
0.0791858925782347
0.0799775173034287
0.0816848837906259
0.0797058234706615
0.0807685996431961
0.0788153745014497
0.0800924394243871
0.0801786499057412
0.0810424037348543
0.0814737507303301
0.0817253107869434
0.0803472000075586
0.0831202136025188
0.081062836976459
0.0820944728164902
0.0789317147266991
0.082064603188403
0.0840248221549624
0.0842634653293403
0.0821795443157601
0.0805873857913993
0.0849742629753703
0.0812828685840994
0.0847890261798997
0.0830564814759275
0.0856117136123026
0.0847430398855726
0.0867970938212577
0.0872061311455797
0.0810171830212677
0.0886519274514033
0.0843089960129984
0.0835919773969533
0.0883453786285559
0.0879645637788862
0.0847890601464628
0.086621518989077
0.0884888714671108
0.0850971513088758
0.0882005926406661
0.085804253651242
0.0861352798098334
0.0850793388117723
0.0900050429420668
0.0906038124660727
0.092540475150064
0.0884645086931238
0.0900096514527305
0.0887872140806788
0.0951461619823103
0.0911595185643033
0.0948942918576092
0.0941503917108737
0.0909941890979049
0.0920493319424817
0.0908272769313
0.0931319709617126
0.0992775525614479
0.0917521288375585
0.0954003457031091
0.0932477082829132
0.0972170423969058
0.0953370274594159
0.0987999455240984
0.103127800050688
0.0974785245071049
0.0998906507513945
0.0963986291776072
0.0987282970174307
0.102300937496712
0.102416224152769
0.103649359377499
0.10112932406657
0.102784629560274
0.0991684004184335
0.112471780059419
0.106370610359109
0.106598181156917
0.106820634729221
0.105300936202081
0.111733625007624
0.111636401472894
0.107207288152598
0.110304490236815
0.112972999955956
0.114468841463104
0.111125672254234
0.122048007058466
0.12175842139544
0.118219518625481
0.12172597028539
0.122869606862172
0.121050076542017
0.126728248946225
0.131687502268285
0.131654783081086
0.130609596391427
0.134386436410398
0.135801447818306
0.132277476356414
0.135833224777088
0.136048368091259
0.137639774660838
0.139427349749902
0.141423321377803
0.144541927761746
0.146565206795186
0.146047435953579
0.150382612058712
0.148315455683413
0.151052177311398
0.157746009653099
0.155395343372542
0.150725710337864
0.166060784184338
0.159227419849093
0.161504857572843
0.1633941649048
0.164921441123758
0.166015159096976
0.164972104130529
0.168246774467882
0.170638259934002
0.176900228959763
0.181553328618587
0.177581772150718
0.184850993913081
0.185078599495731
0.186095159548523
0.191069896608073
0.22724213254694
0.207266993309099
0.20670825904721
0.213101008252044
0.221062546779974
0.233310637764991
0.239005553041755
0.24652479328838
0.2538478956759
0.258430901916379
0.266897042355689
0.276218356770151
0.281117883898893
0.289828636043668
0.301495830040666
0.303193016520823
0.33128685477777
0.330316548474632
0.336703986465929
0.34532076973868
0.348503167784557
0.357753610205748
0.376252942971419
0.378522056043791
0.38868576900778
0.396215250515696
0.406993474308837
0.43251936101835
0.42771376282629
0.43106226341139
0.445788730618046
0.462765466167299
0.457929548438375
0.475482389671639
0.496384994067256
0.483550718903197
0.506285377968672
0.516548381675757
0.523701294483253
0.53083344929253
0.551866848233113
0.544228335163966
0.558669304147916
0.572206422096756
0.570040168352434
0.573254060249375
0.591093353794985
0.587721060645313
0.592806968394358
0.599569200225617
0.66640137956917
0.729085489014927
0.603611428532603
0.603963481579047
0.615450854710913
0.610158700556239
0.636256249480194
0.60745637021508
0.645630038861967
0.633786684424971
0.625072241412647
0.624172172787884
0.628477309609156
0.625491058446038
0.630251764628701
0.629958500045978
0.626126488290517
0.628224819423108
0.649153841615356
0.629915689387671
0.69170517848972
0.608881110289863
0.636560146093445
0.612957578909499
0.61385319643281
0.634256753561755
0.628638909335615
0.608000605433883
0.629987331749815
0.608185480452344
0.608621628784017
0.593194277048322
0.600825139794666
0.596118688043467
0.579573638121803
0.577257267702041
0.578098496106917
0.547607506166747
0.549378596775296
0.566597286554488
0.58378869869975
0.537853872133498
0.533174104707582
0.528565959680742
0.538211790203265
0.519384227965064
0.511786001725714
0.522017411533111
0.52563771677844
0.503974308304031
0.511805278767729
0.498693354411049
0.494099633725623
0.493825143384983
0.502187715904043
0.491932959932536
0.491338449015841
0.485558472093096
0.488045616103298
0.484269885154811
0.489529554983519
0.492888773825159
0.48739326758421
0.47924545993255
0.487925304471537
0.481796862903127
0.488612515688301
0.483178160205316
0.481769660318039
0.482418318111683
0.481620471554897
0.478306200999342
0.479821079476324
0.471603926235496
0.475906585913428
0.470171061611045
0.481279164939908
0.48289438579904
0.479706989951126
0.478577371598613
0.478174900049029
0.467375859629132
0.462771990104086
0.479191527788712
0.480207769324432
0.46264538334203
0.460194812388441
0.459115147990122
0.466647953235878
0.459551464378906
0.476987302396402
0.468219533614893
0.459343872676682
0.452477544444712
0.452542670060372
0.461987210925622
0.454576829948043
0.443067149619047
0.448756898540941
0.434600054357746
0.458380494795285
0.464408905671509
0.465856249097327
0.485082290117627
0.442254234207762
0.431168688161865
0.449784440034216
0.457097146784566
0.448584739413593
0.438315262262792
0.43754335369453
0.45488256940324
0.452334335323665
0.441688057650995
0.445210192950291
0.436368345524023
0.431822635327939
0.442182628576187
0.428332142192796
0.433831084506459
0.448703717624385
0.431092485047428
0.455204346221057
0.441838403177619
0.429352724023435
0.410754452649106
0.421660576339092
0.414271524096861
0.409132959065508
0.432851650141105
0.415276725219411
0.403708757550884
0.399281558674588
0.394413286875968
0.399195377377938
0.390287797391717
0.388908422129635
0.379086093630483
0.394440985245038
0.373938136788886
0.381068899975539
0.383567462073893
0.389825721161248
0.382395656311314
0.370573076062366
0.358354781887576
0.361853924875906
0.371975262461181
0.363866764202029
0.358351357889529
0.352708221236583
0.344921633927341
0.356299249027797
0.345670535137879
0.335153818596161
0.333294210695455
0.340861147803832
0.341727107725751
0.339560930288611
0.330483266873582
0.31964357103513
0.314846507327026
0.324278600445908
0.319386230428697
0.315891036399523
0.308317872870863
0.314835173246454
0.317049635225962
0.315025840596561
0.339545185007714
0.323899936525663
0.314333612737813
0.31573493630027
0.316823549054171
0.318583955560514
0.324902853762347
0.332466791893941
0.326686189723192
0.327012466144281
0.336833981296664
0.332966331298192
0.34019228519588
0.344219285593053
0.347073473667515
0.347066318749796
0.357874351217499
0.365105355053035
0.362799649341454
0.372577415743527
0.381332838814225
0.386148203133287
0.403276362883746
0.398912404368494
0.408616860048876
0.417696437337853
0.436097607681812
0.440533474271287
0.437959365043194
0.444249272210308
0.455170611971046
0.464240002814848
0.462011381967433
0.473247944216112
0.49283316646488
0.482380869371147
0.482448284983935
0.486127798590946
0.495494818804277
0.49660424583639
0.505945636578228
0.516748922515795
0.527986295768251
0.540800581927799
0.522257597220918
0.52240213470071
0.529779024782357
0.534803830008293
0.537924363168019
0.541012087446471
0.538464567133763
0.541232508869933
0.555891294403884
0.545682522140824
0.547873306209659
0.55637934595577
0.559838009768233
0.564399040926775
0.566944819922521
0.56984271337561
0.56585374107232
0.57514425303265
0.574602426826445
0.565498074558736
0.601056013522711
0.593300928966097
0.588413482373735
0.600717220846891
0.6012972830305
0.596422823890816
0.589344541789945
0.620851588421514
0.622102069402112
0.613403970921477
0.623455648344717
0.629411191192739
0.628516144375095
0.635030087270515
0.646281956393281
0.642251414690346
0.651667930927171
0.644684350162363
0.666704547795475
0.693114826947306
0.657325871041844
0.663450713061893
0.660900961263581
0.663158298050548
0.670080250331792
0.669745112134882
0.668871151228204
0.677155652786402
0.676211263925905
0.680404917392515
0.680409167058809
0.675885512254308
0.673661365757224
0.670090018980607
0.682444949663247
0.68281304347171
0.673459879495553
0.681905575199109
0.681749223150232
0.678281807394905
0.685918102847354
0.687837187413851
0.685856588709182
0.677076437173015
0.67457327006657
0.682508874470203
0.681377355615147
0.678342383735694
0.672861974996958
0.668531348664003
0.682642997258372
0.689289146573265
0.692343984662075
0.695423870430883
0.686555915872741
0.693856193110309
0.685591082683118
0.691973556545052
0.69836381774424
0.695227806606626
0.707168905563719
0.715388512841757
0.715353436615314
0.714549649656058
0.709913124218505
0.712870688148012
0.709066109260657
0.703803803954338
0.707603346440137
0.70667267378034
0.702980477013378
0.704344938091107
0.704741594855591
0.69790877281258
0.698192803665863
0.697182038514771
0.691125502883628
0.680264253671921
0.672895368942358
0.686077037579543
0.669737697752138
0.661987939152087
0.661069297874296
0.651510255750215
0.651918162269623
0.647750575218386
0.645034780469937
0.634133979596943
0.63260821713722
0.629242145976707
0.626990679464818
0.633962560213358
0.622778577637006
0.618913941709497
0.625833215569138
0.621805272010807
0.619120816929996
0.62296115904594
0.613992917671191
0.618374162347004
0.62054621345577
0.615216575783251
0.612775264850721
0.617731727640992
0.621305598119743
0.623002954795914
0.61491383651159
0.616536320248283
0.616765291553699
0.615047316142693
0.621411859501331
0.613426955843794
0.612022302119251
0.609265410053715
0.610654638660402
0.615508603421812
0.609449324227272
0.608726772247443
0.616086615193697
0.616396662147581
0.612025170702843
0.607495836041388
0.609952744613213
0.606110927507869
0.603285772389288
0.606096558950033
0.609119935639802
0.608120121961553
0.611705350985729
0.615616705668459
0.609022101551788
0.608767413868894
0.608420326111199
0.612139383171441
0.606596817145324
0.608048489428044
0.608395277850639
0.609399277886706
0.611932184487399
0.611837789754654
0.610876096713274
0.607349662009816
0.609093474114874
0.607429281343523
0.602168794333158
0.59542841119489
0.597551632276642
0.595108762202968
0.593319356055894
0.583373479225302
0.57405519774139
0.574871285901611
0.56762409461901
0.560876970819581
0.559847743316467
0.553096782395042
0.551217427607289
0.547837237983259
0.549457567606176
0.547212124375894
0.546814913599046
0.540278068896214
0.536127007391153
0.536202772266864
0.533833673887362
0.533816790481264
0.537875934391359
0.538330115920757
0.53139106015875
0.536313943614703
0.535023590518676
0.53262561359773
0.540959516251495
0.53940674151156
0.533335573475798
0.533285541239252
0.544435558510653
0.547702814501041
0.543403884159689
0.544142807844321
0.550556190245169
0.548001545628354
0.550015469422384
0.55661036094534
0.556010811692925
0.556841756446838
0.55965642942152
0.567966662035573
0.568460372115389
0.563253994581803
0.561428079656939
0.562093071907408
0.572719096157651
0.570197430382661
0.56439176417489
0.563725128441684
0.566311893125922
0.569420132380831
0.564014708745726
0.559547605537443
0.56361000502064
0.563015773099072
0.564224059233691
0.55859535092558
0.555973476688715
0.557534924303794
0.560108178312056
0.556680912256888
0.553426560382321
0.550960461558376
0.549612224462439
0.548356670271153
0.548973908205499
0.547975796506944
0.542142877733726
0.544483011299964
0.542085028225771
0.542302396980585
0.541396854891718
0.534995409420494
0.535208383032572
0.529408182933955
0.528947099792443
0.530904065684123
0.530543514967691
0.526697397230985
0.525643929727786
0.526603417488272
0.520374395262614
0.520373925968228
0.516922548137447
0.518280864189842
0.514250742849692
0.51278174665559
0.511401558723571
0.504305318417444
0.503321274330688
0.500088826130347
0.499971727292233
0.494039998333807
0.489655415570458
0.483969546006939
0.484385421555262
0.478238385200243
0.475328351993308
0.474988630566562
0.474711003834638
0.46810703943979
0.468736229568315
0.463918194738496
0.463230471919222
0.465228309280988
0.461724750604739
0.460632288988746
0.461802852003114
0.458082660208305
0.453581132005889
0.452863844476668
0.449245583093294
0.44666789635798
0.441390994575531
0.436115150089552
0.433935420521693
0.42862304808023
0.420950735883541
0.416995381936263
0.413409903805054
0.412096178696705
0.411334811163039
0.40664749468325
0.413202461157548
0.413449812539994
0.417393262318417
0.418482086636561
0.427403409169873
0.435525641447616
0.446985683884321
0.461857173895991
0.469904875261471
0.487717410980454
0.501771628791812
0.519723808152427
0.538886376191873
0.562096566768518
0.576699401967285
0.589603530399291
0.611203289415245
0.632605871333042
0.650050500105254
0.668886749820477
0.680559708883507
0.698968085460997
0.714014787896734
0.731753934917627
0.74634109273643
0.768452294035047
0.780852040199812
0.787163456017023
0.804584953776536
0.817268175348949
0.823325426228521
0.833504172471317
0.84785442915319
0.845000677563746
0.857992924823266
0.861074764138478
0.867032061568101
0.875532067866957
0.876327321679947
0.879551124288164
0.881856039175879
0.881937829902129
0.881629300002739
0.890368893406097
0.896242653265632
0.891072784261943
0.883269472731877
0.886833192912461
0.887492514143228
0.891083336926063
0.890933412243107
0.907708638672632
0.915974041566128
0.913316922637466
0.909830317250444
0.929865598069172
0.925124404012528
0.939526251130283
0.934253877274612
0.954003867789159
0.963450429206445
0.979610623467665
0.976940599054039
0.988486948701148
1.01245201973314
1.0230345428331
1.03434899231582
1.03870476781542
1.06742788303187
1.04998793990385
1.07939087604673
1.08947603388502
1.10661313953921
1.09869739864156
1.09262996613992
1.12879076455404
1.12278555842165
1.1251985137504
1.13800423018785
1.11350015525379
1.10479496493798
1.10645521226514
1.11817033335116
1.11470332287191
1.09836512982852
1.10456885910915
1.09712662068374
1.12839891810766
1.123534838141
1.12988806863791
1.13624608097771
1.17415105688202
1.19916092300075
1.1960830137849
1.20583576064746
1.23999733819839
1.23730724463409
1.28928443345426
1.28818954988941
1.32336689360466
1.34581734002264
1.33761157087674
1.36419118740638
1.37942799694724
1.40560012063425
1.40013840215776
1.45977499848422
1.5010087177935
1.43506229219951
1.52334746635214
1.50746498734529
1.58817691845285
1.60170633741214
1.59564262279005
1.65203732385156
1.62791508696426
1.63708350879083
1.58536641874928
1.61708582073195
1.737757882965
1.63637408904206
1.78592064010072
1.7334650219574
1.7861193076014
1.82837656383616
1.81659291666074
1.77111084737724
1.83647839578677
1.87108425268217
1.86626768434133
1.83678211950712
1.84839730501072
1.7783470745308
1.94422457258621
1.88842562467956
1.85692986424571
1.72513141494679
1.80377351613625
1.77237472762975
1.83640970156745
1.88173545480467
1.83107328675198
1.79409047450666
1.88172360332807
1.80645008822563
1.87347808001537
1.88632178693437
1.86905251901273
1.8808592659363
1.95708092045804
1.93477295319517
1.963898981672
2.13576413500197
2.109182681318
1.94341713092155
2.12662825429056
1.94765370775902
1.94619767659324
2.0613158788759
2.13623677272449
2.09775640718075
2.19550624709704
1.88976041560095
2.27640697230254
2.11349474186234
2.00757972728767
2.01043060331498
2.2213682375892
2.06540257430826
2.11279492208321
2.05209917647179
2.17206142199846
2.1205479454302
2.19620123059225
2.00414094317747
2.60448621576524
1.99172186534911
2.11279552169678
2.04821383793138
2.17337959515576
1.94293971109636
2.16571565869052
1.95613307373413
1.97357059119103
1.92552404729307
2.10387524461798
1.85707865206794
2.03514228872853
1.96409389497116
1.88019765940681
1.71983553397516
1.7947265228792
1.71628692686054
1.69886864238185
1.59362504214374
1.55797342172177
1.51369016188036
1.57179281832087
1.50043466001731
1.47303872021283
1.45510277475672
1.48007582024271
1.44438216877497
1.45586826958931
1.40620790420153
1.4473388858997
1.37925312725303
1.44253280601296
1.41712241131775
1.40714042453069
1.3514482178103
1.34737085917703
1.32542954766024
1.33069033141879
1.30480725960784
1.27218051216993
1.25652530871318
1.23875187553318
1.21333759803451
1.16089475072887
1.15367754351141
1.13334466690322
1.08251714965939
1.07007916962866
1.00445037494637
0.979256572929439
0.91877310132855
0.919236692292961
0.865663973694155
0.843164892716742
0.79642468087507
0.789559109419563
0.746226686629185
0.724522246366133
0.699807277690953
0.672601651632207
0.661536136735867
0.638232265322802
0.622210125729539
0.610273768033259
0.595174115871521
0.587772022543081
0.577399055280678
0.572426256457247
0.562096232396051
0.56807384919928
0.564794952714734
0.552798563468791
0.549641126057085
0.567482703798377
0.549383681625446
0.551125918292007
0.553026837503236
0.554780465809652
0.551933791345974
0.556493254658923
0.545760663783108
0.568342606462206
0.554105047449716
0.555067156996153
0.554991178250722
0.536247447054054
0.53314487337186
0.53751683350526
0.522574535388176
0.53526312157395
0.529729852343679
0.519235361470181
0.519137854057103
0.506552398049855
0.509671239769641
0.513573758329654
0.51023675541439
0.511943009210016
0.51060784692374
0.510494847961996
0.521228308582962
0.517123965632341
0.531023210505985
0.531075982792526
0.524709568685735
0.530582738434066
0.529793506984156
0.543651116386156
0.532444323702246
0.552324177669813
0.552768528017056
0.557604295002571
0.547892013548203
0.560873417029229
0.558810542783461
0.557217559662693
0.548274582189157
0.550231058228597
0.553682473793272
0.555912770828355
0.565324864606043
0.564886057058521
0.565842951302535
0.574595393996692
0.570345696058353
0.57917525307501
0.582518424971787
0.609653488236824
0.60322747968289
0.612601099028009
0.621234556586491
0.634697137661323
0.661014636616174
0.671307451841834
0.690562816675057
0.703766711050507
0.691203637833189
0.732678997347257
0.710281352639346
0.718001046671323
0.692261122184154
0.70663074824084
0.703397395768555
0.687876045134808
0.679055847628975
0.690365590856223
0.666870885029989
0.650514094918348
0.648969713377185
0.647208892229969
0.638315180398958
0.652560578473097
0.658854563033713
0.651870264656018
0.646429413244867
0.64552397972269
0.634720244649493
0.640056638048362
0.639106228610456
0.637796310907797
0.631067143513683
0.633684755257675
0.618028693402892
0.631557258619744
0.599628218048192
0.627400144280197
0.616210143954243
0.61636611267475
0.615565879788638
0.60890845784429
0.584468176178527
0.608947394571025
0.574075168938079
0.575789515519474
0.575115241308321
0.589582038016518
0.561390035886396
0.569261775359618
0.557105231240955
0.564537765690789
0.547568978886877
0.571111770483703
0.544002804871934
0.560415286011109
0.547052906840911
0.552362222117896
0.54105402665255
0.553330595011653
0.536193893829726
0.534014926296595
0.544346517488515
0.543042474620336
0.53335413427686
0.530464816586428
0.520945015350753
0.51235173667635
0.518125372187263
0.529714441316171
0.526676116365826
0.51574768025186
0.519765756152736
0.518192021720727
0.500682479228024
0.504205503239039
0.508211439318634
0.509318419915872
0.50897937246725
0.511136989475626
0.509528784513111
0.516122459932101
0.515330298318283
0.518160527878745
0.517885186140172
0.513388418153449
0.509111161740555
0.514632209981816
0.523619816343161
0.52392050065179
0.495589632248936
0.501681895800795
0.522482668824609
0.511610911380813
0.526725198527949
0.560145731241515
0.539609868099961
0.531531855407145
0.547523844030554
0.532980504351448
0.526305933791419
0.563638317710682
0.535476729220839
0.557063331719655
0.568085817716064
0.555742751204953
0.575232005079103
0.602557600482874
0.594801202834068
0.592139725204874
0.61617088893954
0.615103167812617
0.643288444224016
0.642063190404591
0.646530226907953
0.665760822469032
0.6592960265953
0.763633965897437
0.740759741929906
0.802279410416041
0.759603916873677
0.803317466099203
0.776177857601939
0.800948612227792
0.771721502258515
0.884295864948518
0.846271930587602
0.84425542286014
0.797978014326025
0.914398842156823
0.870919462332103
0.804693132593925
0.836093503438185
0.832975908684591
0.804489458449353
0.85500978014194
0.821439757577267
0.879528644726881
0.824336642690691
0.851677220260453
0.795823866170253
0.823653611978181
0.778727963027689
0.832699281425661
0.815706895316697
0.873229674664381
0.809778090345286
0.792359802500411
0.80380682021303
0.825708336313337
0.734310680995251
0.762548315612716
0.753608397646751
0.797324495500895
0.72374262809812
0.763211496773223
0.745974296266577
0.786195622488133
0.741269157678257
0.738611173233984
0.735155617976875
0.764142254683492
0.717240551789762
0.814612692535512
0.755123273377695
0.724520898744001
0.711476539174571
0.732840521370791
0.665265131822064
0.76110345023823
0.770439540997442
0.752949755874538
0.793941019291805
0.771300924761645
0.744442827546141
0.830019132732616
0.752629004469769
0.788945294157825
0.751756051803174
0.72871386565685
0.718461881587646
0.852379428870815
0.857780583872567
0.780622911249777
0.675013082438101
0.75266023673874
0.769132906664367
0.79935393160893
0.800476809085716
0.849015860355128
0.784932374256867
0.794338984653421
0.827738962997872
0.833860310721739
0.828405931642846
0.881785070080175
0.872491604068099
0.79966877168258
0.751389542643867
0.998918014675563
0.981444931753067
0.880204628553038
0.898191827331107
1.00640959282378
0.874230609578328
0.972464233231922
1.09609221268507
1.04411082288887
0.9637833174985
1.24994544273698
0.907779093050371
0.927615747038798
0.931178025552205
1.1639403300369
0.897082532110891
0.931691078325255
0.94203462441339
1.01749508223488
1.04917607090527
1.04595550357544
1.1657927897166
1.05488516690295
0.923926339418739
1.03546883732114
0.913180375226494
1.21719747082685
0.948839631994411
0.946717896550841
0.966026961970175
1.0061294921613
0.780560602136163
1.18144522895768
1.17535526462499
1.00000208842271
0.964259008026691
1.32325822308872
0.935592557887005
1.09905133217076
0.863605940635795
0.745089685562356
1.00079371027412
0.961457122544473
1.0198606260314
1.00044339475922
0.805411936175251
0.680883165473165
0.665156689926784
0.961189763501986
0.909504520427396
1.19080826432125
0.735947323771544
5
0.884948512468501
1.00275736550643
2.13310716817591
0.971465264309092
1.21625327257016
0.7141600836108
0.968864931794056
1.30318154725265
0.923176981548696
5
5
1.27666914368988
0.664846197994332
5
1.02928753787025
1.29281503980569
0.907460546407179
1.05019165390301
0.837608111925204
