3596
4000.36533379555
650.420452594757
1
2
2
0.0106749058191024
0.0165217366285519
0.00703817080423736
0.00162765462568523
0.00567276536943723
0.0146801874169289
0.0214245081109029
0.014633541181486
-0.00406649509122789
0.0153961429187143
0.00128823980936488
0.00578981332704328
0.0175642379857924
0.0101091170627774
0.00177461374839361
0.0110394824622059
0.00192215540841666
0.0106290125852031
0.0192776364370771
0.0237781156497348
0.00846088566849975
0.0113421361669479
0.018104985692871
0.0108429196402492
0.010966856089232
0.00989412013778001
0.00754925020761806
0.0107165198345382
0.0117751022394354
0.0111770673529953
0.0143104405267528
0.0149273552338557
0.0115656850575867
0.00878236763049944
0.0158854530821146
0.00652352616524995
0.0041258218733305
0.013022208201901
0.00965789509870665
0.0135351059095055
0.00380566693306034
0.00976928739424492
0.00616504023646608
0.0196313131666924
0.0113559314346639
0.00948070046635629
0.0207924164981461
0.0118547542920568
0.0150951627762632
0.0197525515264282
0.0133923565371342
0.00550236779228744
0.00407935161857779
0.0153060138250692
0.0156597652195904
0.00944946666773605
0.00463179370731989
0.00531959382575135
0.00810366144003935
0.0200996189712127
0.0249582747725513
0.0170461904244386
0.00914527820787351
0.0125713557717962
0.0153371039459577
0.0168642683342782
0.010776681694142
0.0126632857071706
0.0134692889386447
0.00925066859133976
0.00164919440070021
0.00931990081815226
0.00951559826146441
0.00178097099189702
0.0114148254677893
0.00416950279175783
0.00685779933788487
0.0143109534087304
0.00557948094832472
0.0114138994097787
0.0232553009061261
0.00638857653094827
0.009660953264411
0.0149663352850778
0.00847050936753193
0.0171983376740695
0.0106287103306645
0.0082299862827613
0.010458055846717
0.00890799438369066
0.0138619831645944
0.0132822642908486
0.0132368805589832
0.0153889131125892
0.000644011803277041
0.00561598747446429
0.0156389720911772
0.00899846618370534
0.0112498472184655
-0.00170192958221238
0.0114719005421478
0.0196278318080353
0.00784948884309728
0.0114755268907037
0.00698349384655461
0.011476882429277
-0.000312872233673629
0.00197451062097663
0.0162059022055677
0.0062958627663641
0.0153521542269559
0.0102372112819208
0.0133584912230145
0.00945232557597101
0.0100812625594627
0.00955404943540486
0.0116234257657951
0.0169434457184013
0.00969643687409311
0.00515182479276786
0.002960825225906
-0.00856641786861328
0.0137714683579798
0.0187616384820201
0.0171014632615465
0.00475347202405227
0.0138586872314679
0.00593560007613698
0.00650594829977725
0.00784511732633868
0.0143223149400851
0.0102568062364946
-0.00785548519511459
0.0109995223584338
0.0123482826856587
0.015224558995955
0.0010870898739016
0.0126458264990179
0.0141084365601076
0.0127565022693716
0.0108203216237242
0.0127163935726702
0.00848175589541135
0.0125638051041462
0.00653532317687335
0.0130571095994577
0.0122450449635062
0.00973129079032503
0.0139336973958133
0.00690812922170427
0.00111169367955522
0.0050372962261574
0.0131754923640698
0.00765925010058383
0.00677808031310032
-0.00732816546517037
-0.00274719005392372
0.0174809843799299
0.000429727301962416
0.0233912225344672
-0.00264089069319669
0.00201769919175706
0.00981986447065347
0.00464103896946773
0.0146494065974892
0.00561675022786883
0.0159227878884235
0.00179745041332504
0.00517303293466293
0.00820248914248098
0.0122782528566718
0.00467741555804975
0.0137946083870212
0.0188825433141592
0.020620511916056
0.00495507075688827
0.00583017645429494
0.00924782145853634
0.0133713734450268
0.0107849442837568
0.00873495945054727
0.0167865572969762
0.00455516741694513
0.00636989932751043
0.012418530299826
-0.00063150864887207
0.00955831923878295
0.00406614649879049
0.00463217825428243
0.00837358636472426
-0.00419092717239695
0.0080004229113484
0.0240439621012273
0.0152875568153544
0.00158272351941444
0.0166180256486942
-0.00894619196053933
0.00966685831972061
0.0162639265420702
0.0199911663861606
0.011002522728874
0.00322651497648574
0.0144043289273188
0.00373325731136029
0.00987422379991915
-0.00439405200446284
0.00933959484694476
0.0100868476461801
0.00638311827883678
0.0073661833571925
0.00706610659663951
0.0134930188386032
0.0114255619625915
0.00577269232535183
0.010014950203506
0.0086280708415521
0.0120898761989128
0.011432450472759
0.0107947157266814
0.00907616177447251
0.00620990776473911
0.00459475368200407
0.0133569259383784
0.00213757105696104
0.0101545708737326
0.00992050434090699
0.00774648451698732
0.00150211239183138
0.0115300280112033
0.0111612511075719
0.00797562548637409
0.00276082119004999
0.00857354107040229
0.00540526913719323
0.000748481576021379
0.00919560487849827
0.0179256001834434
0.00973851973101624
0.0141606192028386
0.0119252562546058
0.00413235484615402
0.00738092282199929
0.0054523400741086
0.011382764642889
-8.99137581271575E-05
0.00905578732029315
0.00437306083408721
0.0137517066898488
0.00531645001108578
0.00914977458918332
-0.000946053326709227
0.0220994522780763
0.0129961482877744
0.00097828935628852
0.0122668287184472
0.0096556247207196
0.0185961038309791
0.0140211227430557
0.00684890543037057
0.00895014805830191
0.0144378433016787
0.00474080012782253
0.0102040900788557
0.00327755159771402
0.00839864564768683
0.016645072182711
0.0140581269488866
0.00860455281903352
0.00995620121181837
0.0162616146278495
0.0103508373944966
0.00708981746238168
0.0183005436644203
0.00968677762572806
0.00797125621868323
0.0116366611925449
0.00922600483008627
0.0214244046215371
0.0151291329274181
0.00862766706748931
0.0120772242590915
0.0146901657733361
-0.00241989410321205
0.0147766045571432
0.00888391757760601
0.0108518619288388
0.0195698269688773
0.0134890518478553
0.0080003554937986
0.013590319475186
0.0146072283853606
0.000430226531518746
0.00780497995879971
0.00861868580117061
0.0184164684260874
0.00681418844989281
0.0123064395877137
0.0129028887737405
0.0126378031558212
0.00964218390953767
0.0114984132833773
0.00881403977510832
0.0171874556475171
0.0196183184576061
0.0224897507915556
0.0137938877415887
0.012042936661285
0.0130311542160523
0.0127178646328
0.0166101712970996
0.0153779393104195
0.0100190038434711
0.00718941336254971
0.0137874239369096
0.0137847610147101
0.013016320228128
0.0225768472045777
0.0126783388902607
0.0280199011701702
0.0102831600700062
0.0143715845022955
0.0116091576019398
0.0136521253855222
0.0125682551178763
0.0136562317521364
0.0170641669798549
0.0175617437561178
0.0181002711023349
0.0138204509978534
0.0139764703612016
0.0127604068324455
0.0161062041347885
0.0156529732777071
0.0324326131544728
0.0200535040620666
0.0216687417699928
0.0200377478232688
0.0109730211865085
0.013043965253952
0.0211228224733802
0.0151976630238295
0.0216717575694038
0.0193727764718412
0.0264610293601001
0.0170740545555687
0.014948748362347
0.0237305712204472
0.0180093470475221
0.0148217375013102
0.0305000104583624
0.0183918826985582
0.00363987674806837
0.0331183137619607
0.0219937551859466
0.0299210658793569
0.0276149443140484
0.0297926352386269
0.0179739283647535
0.0222403297909056
0.0203568961159885
0.0363536309785537
0.0257371289182779
0.024520426109836
0.0276950367101307
0.0272606252560958
0.0383253558895445
0.0264309944427623
0.0284197952613315
0.035406813357231
0.031889252179855
0.0328737580054911
0.0349448921127956
0.0304623334670509
0.0294337135338706
0.0370243171067713
0.0422362191003632
0.029267025653137
0.0278689717007412
0.0365120905213732
0.031276094047978
0.0420356366431142
0.0402439869991858
0.0429021724587186
0.0406475761939608
0.0521727997922496
0.0477150757472287
0.050806675081996
0.0500549813397077
0.0476629327998623
0.0503669638053783
0.0496743277479985
0.0580897338602761
0.0620768718782181
0.0489678597272566
0.0640126760338493
0.0569123800240915
0.0628326456958796
0.0630242708516629
0.0554346287800407
0.0619536732213485
0.0674892685112908
0.0665534409539738
0.0680036779574812
0.0630980814435957
0.0751572190641104
0.0598492067913464
0.0708788655380033
0.0768798631493571
0.0696276212096443
0.0673426241416325
0.0630320797049172
0.0749804070038533
0.0816013160248601
0.0770831588905165
0.0804335683472829
0.0845365818651371
0.0956223693789479
0.0854668913751989
0.101421182877118
0.0892669676372105
0.0938807550442823
0.0856348070916957
0.0992039154315991
0.089485794145466
0.0974930291363477
0.0949683404267801
0.102045523178234
0.100589700861459
0.110720478626374
0.111194106590902
0.0986379887288892
0.112918181016368
0.10489703854475
0.112138672416196
0.11509642003735
0.11781772092019
0.116090244779417
0.112561673701592
0.133587220884036
0.113919290393703
0.132493202418205
0.13291867112668
0.13420720316831
0.13282622521235
0.127604508632484
0.135918382383661
0.140221906126778
0.147979671207946
0.151319165284283
0.135683795530256
0.155542811086234
0.144604325081258
0.149287245585794
0.150512315508136
0.168686198875378
0.151166627296488
0.171729841243893
0.164218636298301
0.174371919746855
0.152727126565054
0.180891671881955
0.173258470783232
0.201673380130172
0.181181643426841
0.189295930004757
0.167811464695315
0.183984855965237
0.18821531566899
0.191585778911332
0.176632294432669
0.200628977423462
0.207873646641722
0.207803281168787
0.206983957810772
0.204068021567791
0.206198637429354
0.220707034210492
0.223470615508905
0.224324827128614
0.215259818680717
0.224800007665632
0.23130268019586
0.242212551106328
0.229551326954807
0.239951577816067
0.237787425650108
0.240615396849409
0.250599008495107
0.272182820185915
0.239543734355961
0.259309630389379
0.25029544997493
0.264575512212606
0.266843975409799
0.256942005634524
0.251866835440766
0.276215876715654
0.264097323249425
0.284579784017936
0.292274200178298
0.302668156896764
0.277691829577273
0.297728744019719
0.28182673298395
0.308455905156947
0.317852665030064
0.320232811130285
0.298562375734547
0.307289652882583
0.309258523219598
0.341312339750215
0.321032799858087
0.338394318566593
0.326716965322472
0.326526288217329
0.340964758313455
0.346582317774779
0.352147160258649
0.340193171934002
0.333733078233409
0.393716280084653
0.353615380903625
0.355389032779447
0.358005980724916
0.374767279006937
0.366795298414689
0.393257644733853
0.356755434563323
0.381721634098406
0.383268218259896
0.392294962861911
0.381570634202133
0.392390866027333
0.386229672481386
0.413434815366204
0.38777308183024
0.40477194012236
0.40092956175326
0.430792331448566
0.417772422842266
0.434569262059522
0.423551998703777
0.439603291745696
0.427758087244811
0.448408668145853
0.44648287010154
0.451587337359804
0.437933291083071
0.460740967829056
0.442948263786671
0.44722487053266
0.442637437901676
0.48389417551311
0.44993489285316
0.473739104107234
0.456939372858972
0.46293160574966
0.476121551381691
0.502684014702653
0.476169150872528
0.477575919085942
0.515977678719245
0.493043702258269
0.497868355600381
0.531504247990955
0.533303316207111
0.518705164491947
0.495686541177789
0.515882324217291
0.518226185110343
0.535871271437957
0.522455427641073
0.55071858628053
0.525089937527981
0.547564814336829
0.524701677594854
0.557775686334939
0.529574041856309
0.533852523207348
0.555866629886395
0.58453531096245
0.571494641703505
0.571195822273194
0.552763338575549
0.576300316853603
0.557457644462855
0.598726139866585
0.602207772180046
0.606635129322938
0.560761679066241
0.59912328964231
0.588821904760492
0.614262047153593
0.618100897880758
0.605632227268266
0.591741313347591
0.646478868339491
0.601458237277796
0.611702562939985
0.599886262974603
0.616583686388232
0.600225917611084
0.615336536724085
0.58197283436386
0.628191414679164
0.623369512811926
0.65193622145467
0.636611498162961
0.651572132502639
0.640567349540745
0.647484745340816
0.605772631756316
0.652830010296292
0.640731585909384
0.637585313099954
0.65175887519146
0.692263329513475
0.655667346600257
0.695265440457478
0.668577485385258
0.707331619959132
0.669738619225979
0.677307777906223
0.648460185737613
0.691020386754257
0.709033958979146
0.68424555119945
0.682753262798187
0.692228860477338
0.704359406807799
0.734517056040744
0.710484599241261
0.705615007324603
0.693283357585105
0.712891062131033
0.686581447508431
0.714193069912502
0.68782486280957
0.701204571061232
0.719117022953806
0.710043392415432
0.70111457460288
0.708621415300943
0.714792592661295
0.730417251004444
0.710216530715743
0.748860697475657
0.723448594451476
0.713232341058555
0.727547798923253
0.73823448658393
0.708463160779647
0.760475769610896
0.754655244253291
0.737748670485231
0.759541969037871
0.784277397341426
0.772745861738329
0.742131732191057
0.717300930786978
0.772425143975238
0.718871911268173
0.717755781300933
0.720830653851069
0.758817445474661
0.764805386190549
0.778104777795064
0.73858661797512
0.757460789867752
0.756417595310107
0.754031005254578
0.773037268429707
0.76140848888229
0.744095815387757
0.739752266404619
0.735712030141299
0.789474345763563
0.745330434006942
0.776049718624801
0.76746323073118
0.776646176409998
0.774113862998189
0.762526252925231
0.790600972080434
0.787045712004217
0.755551550317728
0.792472072032743
0.767739499562656
0.783712116625761
0.816540155750477
0.806968590094256
0.760963878487785
0.747779721051632
0.748519282674913
0.789116191172381
0.755066113278492
0.777435814871897
0.780817336672968
0.784192654030217
0.785494652826211
0.786014207234345
0.784932760329877
0.803725499205901
0.765208766760708
0.770031733491084
0.777833192588516
0.780511105836086
0.780185723461959
0.773426023510142
0.798253941073625
0.796375813655798
0.799673575744085
0.796749808285829
0.797007686490193
0.792573893292036
0.753763276167712
0.776992590315632
0.789422849910871
0.802858439149608
0.774862277652643
0.78121196729983
0.773073053561838
0.783548099632337
0.808522630353524
0.761077404635848
0.766143540773126
0.775073244681516
0.792189046987973
0.809886219473638
0.771434375282012
0.797690152510002
0.788674743009651
0.796607101576122
0.763802386441353
0.780580522984082
0.784872699906878
0.785472353449194
0.81098102065698
0.773060094658689
0.748672893677864
0.756258970157153
0.779651018457064
0.769944648814934
0.786025895492586
0.756442592053811
0.742638840082939
0.793740145644417
0.793675876921548
0.818365432817181
0.781277975606518
0.76000883119736
0.764481725712035
0.76654647115238
0.77022070373975
0.774642027590913
0.753837113976869
0.751919878071307
0.762082049369468
0.762257618332633
0.762843258345613
0.761889569559694
0.761947428182788
0.776687141833604
0.793613758071307
0.766969371897625
0.741798352165883
0.75456045288414
0.734490659144593
0.7530421166887
0.792001484575475
0.75889270718541
0.765026092397742
0.747584560480906
0.738569245535958
0.766048637602267
0.740860904234605
0.730351878509308
0.736983542877486
0.729150781408758
0.733687371565595
0.729752183865003
0.727326403793402
0.736545272196168
0.735641088176733
0.715730356048707
0.728675759650674
0.734929668408603
0.713001658275095
0.717125053743799
0.71853427383425
0.722228735482064
0.736576229092658
0.715205768293806
0.714565057925253
0.701236682934757
0.711547749381453
0.718545715938786
0.720918881394064
0.715111117131408
0.721027096131829
0.712188907073598
0.706388678733843
0.712840434115129
0.712164133735842
0.685703190077065
0.682372010573919
0.697120932533117
0.695521188559654
0.693496502392189
0.694924284384869
0.691475737530452
0.698569851940949
0.662943312628997
0.661671632630493
0.681972882931452
0.691599404359836
0.660856425787638
0.660755120883269
0.682550943545223
0.67385812996962
0.66768762303672
0.669558544962362
0.646746055004527
0.662343295262879
0.649771824749309
0.619945725547512
0.644139310452137
0.637891935311313
0.634101329846095
0.639602777619995
0.654054868927452
0.650093479911529
0.621071533494279
0.639329469528386
0.637582717023345
0.637055539162574
0.626209975132009
0.617905755778053
0.624747597504186
0.630203943508107
0.605102241708363
0.592692214665527
0.622913159071597
0.610061683518626
0.591536445423975
0.618245448309958
0.593948410166736
0.592866053412595
0.595018868880917
0.599602213205746
0.587925539441477
0.592534035425949
0.593032311509934
0.597165414751505
0.597021896979678
0.58663601726902
0.580096149287487
0.582168561362264
0.560928582230562
0.573064417819038
0.56333454828104
0.562014100495988
0.558849178812341
0.557407500554883
0.548979650300211
0.558350378295212
0.556790915176217
0.568209600060575
0.55814561855139
0.548112423041184
0.543900867310131
0.559255627194827
0.54749616825144
0.542277827211833
0.535598968632607
0.528288222884846
0.525847192111815
0.520477764002857
0.530822337539896
0.551139454987697
0.508176199196053
0.514503939234226
0.512455956805016
0.507764153874036
0.517351411033955
0.505872574124685
0.500334856617245
0.504689173893314
0.49082542438112
0.493272114203195
0.500833210297052
0.490113266625633
0.482449724478149
0.491516399384233
0.482484432603308
0.49374954616172
0.48434642234633
0.477289270463041
0.477511064477513
0.486260710177108
0.464300189100534
0.47763507656434
0.45961276186567
0.468414999858387
0.469053637519234
0.469673672768105
0.456975893868631
0.456074100352865
0.447086530459501
0.456167409648375
0.449297537120264
0.445893347514546
0.432470527729236
0.440331977320509
0.435084664917616
0.434611147553434
0.42464394148229
0.430915532784987
0.431199560182114
0.429283717401199
0.42677584811963
0.418687439831119
0.423560340639981
0.415000229250709
0.410725974301988
0.419380015954394
0.41174539738291
0.417329469769774
0.420455748302509
0.409595858839024
0.402567017090356
0.408713299198677
0.398624383589994
0.39367771559605
0.400869562011044
0.396253710146299
0.381074700543891
0.386219120306489
0.396082006260649
0.385535396472436
0.375837813310305
0.37609637654312
0.371185719468842
0.378109555619906
0.381532514984727
0.379638066275613
0.371948588855822
0.36818489067961
0.365529155042806
0.367890498083494
0.358975427067384
0.362456072822496
0.360044204990425
0.355695170589958
0.355243897998969
0.362240891499221
0.349255576269328
0.348822981190022
0.352243600828638
0.351570341588724
0.332112495892135
0.345881742498908
0.338082126403986
0.337494210517221
0.329598448822163
0.337394069244128
0.332148190525315
0.338787436831905
0.3290133995184
0.330906831691737
0.329178230187362
0.327656997299174
0.320812134870129
0.328260987876879
0.319944007541203
0.322109637619992
0.317483539290247
0.3221089168781
0.322328315709231
0.321407497367021
0.313800625022605
0.309919990323001
0.308416635642192
0.310175065974388
0.304298290976786
0.304577990066825
0.3002969970728
0.302112458256371
0.303928837628145
0.293916657411332
0.297086627211146
0.290489344019421
0.288474248056821
0.288966172729364
0.285221991958695
0.293436185080171
0.289299054289273
0.295604036121967
0.288254167909925
0.279303291218701
0.276945959088097
0.276297002804746
0.275080685954392
0.275989435615161
0.272857750644635
0.273997124975447
0.274537297099226
0.27233292521215
0.264312934286008
0.259806172225414
0.261222520285254
0.270666416229104
0.266883372355691
0.262137637849074
0.263082914898865
0.26631476942571
0.257312019747301
0.258361049212305
0.259135091305662
0.255531914910914
0.256004918388431
0.257919420518847
0.244028758042586
0.249846317114162
0.248780123838686
0.248580507610933
0.242521055713664
0.243674651767228
0.245328435787007
0.238769566162691
0.24265153108151
0.23570851596751
0.239972126313952
0.237129543767521
0.229792103657367
0.230119194735609
0.227484845345068
0.232136852655991
0.23409765181006
0.228714221753967
0.225665356976005
0.224704401739446
0.221396437476108
0.226663146939061
0.217636185454217
0.223781750370694
0.214012285986467
0.222010244369975
0.223513416269103
0.217026076777214
0.211343052969375
0.215221309292696
0.216001127963593
0.215180950006288
0.207769770266863
0.219143481559401
0.211367280899081
0.211883956521095
0.218945719658466
0.211876979443785
0.211304034847895
0.207414566171127
0.205631934912536
0.204442173239826
0.20647729908221
0.205193989779076
0.198577142853234
0.200293656299618
0.199052571374742
0.20210699302722
0.196932097761264
0.207008155163034
0.205527295372231
0.200796268502887
0.198936752989779
0.198325571153193
0.194063405063139
0.200015363201375
0.194058333999332
0.202125927925348
0.204677148095258
0.211563114162245
0.19458880218997
0.200239371684335
0.203012803379741
0.209616037012769
0.203679846947895
0.210268342535462
0.205653587147335
0.214273937221129
0.207644896015366
0.205266591054531
0.209750792858192
0.218362117386995
0.210315566469612
0.210186112361934
0.219086643952135
0.219195415217846
0.218483101443673
0.226992212664591
0.224390165392922
0.225223233820785
0.220720806367715
0.226099516764
0.231608113295327
0.227497216794324
0.224097230856033
0.226241642030259
0.234858986901103
0.235708467490887
0.2372773891557
0.24911524377745
0.239754246387072
0.24459647311487
0.238106547420802
0.244023601171523
0.252500962123946
0.248823068109351
0.246361354038576
0.247599913820868
0.238325854207108
0.25374752330035
0.245366123302227
0.255561192951062
0.256373574980595
0.257486311216482
0.252761820341351
0.261341660356387
0.262546585399825
0.263869265351684
0.269948955901911
0.278941665809645
0.271675076317112
0.26859037109086
0.275954947714448
0.278650076738357
0.280664011182364
0.288758880330617
0.285399208127139
0.288146438303648
0.286962192775368
0.294545177224833
0.301590409720122
0.298701257765731
0.295035833624448
0.296655244273158
0.298305732358857
0.297714921204166
0.291841760892728
0.307966875731663
0.294203146889458
0.30956967399449
0.300742056840292
0.300740376837962
0.294815323650029
0.305098581404429
0.306071637670827
0.305165201254439
0.297474050225815
0.313337356910817
0.294074919240933
0.305462527691473
0.296344924312515
0.297868211540234
0.29272160670617
0.303798552789459
0.294475097145406
0.293798680779327
0.287283007241395
0.300878343552617
0.279887839118252
0.294828299897874
0.287209118097539
0.293919749766232
0.294206133275743
0.293735330194024
0.296587436425207
0.303038874848911
0.295831148123505
0.29417155845573
0.292814823686381
0.288938376177728
0.289591522890532
0.304038351257913
0.288283996248608
0.298136959292082
0.294448360839533
0.296725779788472
0.289570184021498
0.297879211368585
0.290194437702844
0.289284984347148
0.290342120055725
0.298981015240171
0.289407349699503
0.293859883442231
0.283170621780045
0.29145717590087
0.288355332948734
0.289979506245808
0.280335321951608
0.29307293407129
0.292147167340098
0.288472284183974
0.284851643468059
0.283784346289903
0.281097989245049
0.288315176253599
0.283761478754431
0.284086057508976
0.277598010407824
0.277014211823435
0.268385892822436
0.272705500408737
0.272499405008142
0.266922018783672
0.266761650614404
0.261581190429601
0.258031250038166
0.268608310018473
0.25449955057757
0.268012481728596
0.255564632010212
0.250478943820466
0.246825835269076
0.248537329479201
0.242630811345375
0.245828968140065
0.248657147136263
0.233948960819447
0.234234366835244
0.234022730917963
0.22903872345322
0.228774520317425
0.228522218671358
0.236149387959855
0.226421483678611
0.221529737263157
0.215904531156151
0.217581148735338
0.215919718166515
0.217055672070889
0.205499613986276
0.209897888460508
0.209637391335722
0.206794949794441
0.200950590428452
0.204408726581107
0.202831175584344
0.2002150060739
0.196495084152046
0.199172503949553
0.198114973392978
0.199787344810232
0.189989294054926
0.197347104245583
0.190522805255974
0.18942456068477
0.182156933741127
0.185506852706805
0.187706641569267
0.185883980543303
0.184934744890674
0.183611474616806
0.186217259525015
0.174786048174397
0.176925896029667
0.178971964747223
0.179274413527494
0.181505910927929
0.171933060592774
0.18150237302416
0.170621809584793
0.178726620617772
0.171814314392263
0.174969463100705
0.172483606979495
0.169357014462155
0.170526704239378
0.173495382411608
0.169137292573259
0.164113953116494
0.158497314216191
0.162618614459946
0.156897721939471
0.162193671776494
0.157240904933853
0.159098766354865
0.16464029159824
0.163368384864782
0.157216967464289
0.159771832060625
0.154776848725912
0.156082366177918
0.154865507539766
0.158424979807775
0.157686125199884
0.153580243125849
0.151484956926473
0.156586625914804
0.156418419411831
0.151464596118939
0.149971773189359
0.15173533456975
0.147837200239571
0.145201959687398
0.144215139462622
0.147908153294187
0.151285934227348
0.151811669965752
0.143913515393289
0.143272132296606
0.145219925304212
0.145075176794233
0.142348910991662
0.147294696951188
0.13978946116737
0.1467775404134
0.141564315969298
0.145201145540807
0.141899922117838
0.141429262172969
0.141675436341738
0.143270076158706
0.140442867299205
0.138835000633186
0.135481381251116
0.137184824159772
0.131967701368934
0.138252566057106
0.131668977382696
0.135813186747866
0.133377126112172
0.139337458966144
0.132550536942075
0.136455667698563
0.138144122387318
0.138898747211466
0.127640480245951
0.135423079541845
0.129292017793317
0.135306613389742
0.131003011995633
0.134914134544688
0.130224750772983
0.134764498935928
0.131111379586337
0.129761696710027
0.128203535334258
0.135351440713666
0.129432276298452
0.132576715482988
0.131562902587354
0.128347694164106
0.131287108807077
0.127194270882004
0.126991374044393
0.127931329420621
0.12566103815919
0.128100108879574
0.12743222147388
0.127685548958356
0.121241443479249
0.13107855795487
0.127581765239774
0.128463336140121
0.125607676847239
0.123493538237971
0.122648019059603
0.129226313560988
0.123908761098506
0.123289169286638
0.127132604061122
0.125850921231934
0.11749244941639
0.124600485182988
0.121821736965932
0.124102255034935
0.125467471555748
0.124999515602478
0.123666440748049
0.11979970571676
0.121705992128738
0.120528432544622
0.116593188636233
0.121515653191698
0.117361376544585
0.123968935510569
0.123200215329616
0.12126076869341
0.117001487153468
0.120095905708181
0.119456800221507
0.118055060402826
0.117784723334332
0.115643231642551
0.120224663651405
0.123780421352151
0.121911117726642
0.120092114900331
0.113429943172759
0.115308765198277
0.117417326736038
0.115136545415457
0.112465766734519
0.116423396928253
0.115030125720053
0.121387419549893
0.111345318228981
0.114965949108959
0.111607277801584
0.111875850837105
0.111185654986988
0.113752254043748
0.112733603418511
0.110199549209549
0.116544262763129
0.113040771089578
0.109370785620804
0.107597145504042
0.109751582431427
0.107592574515153
0.112906784764524
0.109938602822494
0.107814819447588
0.109522750270589
0.107067270825613
0.107901660486449
0.10429036054504
0.105142187127832
0.105689071514646
0.106327325174026
0.104919868004297
0.104516363014697
0.10455552506928
0.105585742384178
0.103499379489797
0.105098485715344
0.0981674214585157
0.107200281589973
0.101906516424686
0.0985370404207085
0.0970721161541026
0.100889078493018
0.0987176933374688
0.099699294776103
0.100699266907319
0.101933184077757
0.0977304838092243
0.0972364234494105
0.097464645010367
0.0975253749393068
0.0914996047407988
0.0966546785710767
0.0924535358715704
0.0967130031431018
0.0915821950164728
0.0922493414720497
0.092619102466045
0.0928894584462061
0.0882411226242396
0.0923227149183162
0.092446944016883
0.0867480169328742
0.0914882864081857
0.0907803031533997
0.0911624869353033
0.0918669323274
0.0892398650250651
0.0895430418254682
0.0888307720510813
0.0877438797780126
0.0887130964906838
0.0862281961676786
0.0892350897391556
0.0842343554097408
0.0882285550429214
0.0850705082910297
0.0898756893573565
0.0841902098163538
0.0856172839065372
0.0859841049285535
0.0857052474517917
0.085270283801192
0.0837604956559825
0.0866257223693202
0.0796454032540231
0.0802222897113001
0.0791253187051709
0.0862352995287075
0.0811024259547462
0.077375680494174
0.0792680070784809
0.0772695876290794
0.0808823719489918
0.0777115373400485
0.07784494436893
0.0825553493005887
0.0769588365304589
0.0796152194255072
0.0745166649996775
0.0768989805099203
0.0772541291854042
0.0776489167139334
0.0769196988902166
0.078659277065074
0.0748501527948799
0.074934729943149
0.0767164063940799
0.0753423720665274
0.0728272433163793
0.0773043714400733
0.0754539711296874
0.0768046599633574
0.0753184356967327
0.0711373047485032
0.0729945938123358
0.075437522941023
0.0749944268561886
0.0729343386236575
0.0747126808487238
0.071832564319511
0.0695345098525745
0.0733045232332833
0.0752837692715514
0.0691334631562011
0.0714385785041125
0.0705758383841747
0.0683406782538849
0.0679359207303183
0.07250193048471
0.0724737345362198
0.0715084494879216
0.0699745652620273
0.0695877432040304
0.0707213673774039
0.0679196460404267
0.0715890616291329
0.0695445571681773
0.0661668022228308
0.0692173446238947
0.0708181348385559
0.071506337153943
0.0707015723582576
0.0681645015291668
0.065435681729675
0.0677228481919993
0.065330554585719
0.0673819679785574
0.0675002629602714
0.0654496416746935
0.0665045410171421
0.0681996564536835
0.0698718873240111
0.0668835054056278
0.0667094047475882
0.066050991792249
0.067461372976387
0.0629891616937497
0.0677608996684265
0.068217331508281
0.0654754484060087
0.0645674010010605
0.0653807268396734
0.0661516996336394
0.0644545862450845
0.0635048116128301
0.061585376363955
0.064551275677447
0.0642782781162159
0.0628534110502107
0.0617160523753498
0.0626492633850211
0.0614470199531327
0.0621864842894349
0.063315648264102
0.0630819867649956
0.0647116657370844
0.0599825674004373
0.0615525719861023
0.0626147918098477
0.0647816886863614
0.0611924105671715
0.0623511104488209
0.0632779678912128
0.0596855222416606
0.0611787878220973
0.0630291323542589
0.061541104889923
0.0596015135143056
0.0609779340840251
0.0596152026103623
0.0600971588354991
0.0617193769916075
0.0616567380184473
0.0612481231417064
0.0624334482148058
0.0580003650628694
0.0603515265333867
0.0583639907296304
0.0582447120016884
0.0590362560951787
0.0582625238606602
0.0606407800177167
0.0579515540271386
0.0583719017080834
0.0590105506387411
0.0585365624226632
0.0577421383075428
0.0576753413555009
0.0556819101476826
0.0576239386131224
0.0568102040467111
0.0586411230345551
0.0566421027548138
0.0584898645904481
0.0574950163966497
0.0578380365971652
0.0560303470604967
0.0527472879218502
0.0563668804854038
0.058400349661417
0.0563179205707178
0.0584130074845428
0.0536324585312891
0.056359885671461
0.0529768056863444
0.0536927146128925
0.0547823345129577
0.05510542499869
0.0531942450435358
0.0515074201394601
0.0545688395798123
0.055228664397018
0.0526258506632894
0.0559712807304856
0.0515348843996149
0.0536540947421447
0.0538275483193177
0.0543907261442237
0.0548310133392457
0.0518787119923343
0.0509723206245028
0.0540828903032551
0.0506323586553593
0.051222805436668
0.0504102404125875
0.0486299783010054
0.0507414172697741
0.0509924018138605
0.0470363738798864
0.0453285542265633
0.0463184094598182
0.0521190793198036
0.0518443465042097
0.0521840717734154
0.0479927956616092
0.0459109607716238
0.0468935200967875
0.0490322769201981
0.0468026652493649
0.0469645321665867
0.0476258930332235
0.0481134434194788
0.0500787840594735
0.0468915891870034
0.0463813081148072
0.0476102893102881
0.0435176943069868
0.045936532211466
0.047779455041793
0.0465822930383519
0.0432438460569745
0.0481353819538966
0.0445120296420128
0.0436100733235003
0.04316959957025
0.0434391859776023
0.044095848449198
0.0454243640733655
0.0441199427140421
0.0417926078855748
0.0436608191149823
0.0439741543727716
0.0443754300188011
0.0448371084155909
0.0433939831714854
0.0425326079953958
0.042118017512256
0.0424185236543133
0.0424418465028843
0.0453528201088127
0.0412687706557794
0.0411200140104462
0.0400243229987345
0.0400979302596956
0.0390066244617879
0.0403575291673535
0.038877722434203
0.0394594249502356
0.0400974913314904
0.037954958478411
0.0389859998304243
0.0415261647011415
0.0391567217753384
0.0413443539585929
0.0379976687080933
0.0376423913066343
0.0387794136063686
0.0382058154747537
0.0378411360529259
0.0400837247719383
0.0361195754827923
0.0368392317204731
0.0388560349553977
0.0383700187573404
0.0384190589398864
0.0385049901308939
0.0400212722884885
0.0396133689639691
0.0359282252171707
0.0390628663029713
0.037559488734534
0.0360625980472904
0.0378498148361039
0.0388210638074345
0.0367373193968065
0.0387015579593697
0.037631768069688
0.035883200909596
0.0357354768159915
0.0379387341130513
0.0370594983832356
0.0359965513027512
0.0339372993678868
0.0359404558277864
0.0348119768386216
0.0356555355279533
0.0342053550701584
0.035363272582959
0.0383240945712362
0.0343153359650441
0.0296637512863255
0.036999129507012
0.0366883390833878
0.0422823617761639
0.0384445906294847
0.0339122352104993
0.0353475927133225
0.0348537213549922
0.0320139254177939
0.0335446325475684
0.0292275622800086
0.0371696601409404
0.0385818195338853
0.0384138828498421
0.0361242661623451
0.0337014656679268
0.0324167228409849
0.0312842381883566
0.032396387509001
0.0373834723432512
0.030759926411298
0.0367318651564967
0.0295021178632187
0.0324796125155011
0.0422984132524436
0.0338736036385377
0.0288895538795401
0.034164074845095
0.0306788635356303
0.0350512456922136
0.0325502018737113
0.033915153010371
0.0315104510119472
0.03474122459431
0.0333406619549356
0.0365301751193984
0.0360181994313355
0.0365417485557599
0.0304619827168091
0.034082226635788
0.0306316119520038
0.0341806858683437
0.0317212608489381
0.0362450957309799
0.0314809218217673
0.030893504371884
0.0312046019431605
0.0342116668027912
0.0293154792475899
0.0303175632075281
0.0308965346380822
0.0297871431958023
0.033629713770632
0.0314452800586252
0.0315776391812825
0.034409886318274
0.0325452444975207
0.0277910934843935
0.0355009288121885
0.0260843852066756
0.0335326760463
0.029034210703362
0.0338897000841613
0.0261396583108309
0.0343176364628751
0.0228438262974837
0.0333317243907974
0.0312455746808682
0.0340207078614744
0.0269083002894045
0.031494129810231
0.0316979640610647
0.0295251792802443
0.0294957400339053
0.0319564586314077
0.029729050032969
0.0268532112884808
0.0304031763241227
0.0320312515696197
0.0321285780724483
0.032341457307892
0.0295737327884858
0.0317340433541338
0.0312231129454896
0.0303082950403229
0.0269612789060174
0.0282694040797245
0.0296167663717784
0.0281976648749614
0.0276884674980876
0.0294318415398179
0.0290637126078643
0.0261788808768526
0.0262289576116179
0.0293600708901575
0.0310510780665455
0.0291564003075848
0.0295689722406501
0.0308820274516462
0.0283145998301451
0.0291456738189266
0.0320346663886694
0.0312217448999784
0.0267565325750144
0.0275849858033167
0.0281382310175045
0.029570445125256
0.030288758372387
0.0303919764347598
0.030551752564107
0.0308381559149585
0.0283248731653249
0.0296644235327583
0.0315003100362365
0.0304612797094624
0.0279713139923644
0.0292070686374478
0.02751584739181
0.0282610943890535
0.0286484590483442
0.0296651143321925
0.030202412184134
0.0301018248004936
0.0283759432657699
0.0296363426492751
0.0313308328633901
0.031293744051176
0.0302298253629921
0.0307484178611253
0.0294734565999609
0.0295116758208692
0.0296519646280246
0.0280864839194479
0.029715731175112
0.0318637300977426
0.0271123988890729
0.027918206488508
0.0309255744343254
0.028147839153057
0.026078500968443
0.0272040551923302
0.0280072710382651
0.0285271027184249
0.029292465675219
0.030067727819977
0.0295655084880967
0.0278158663017331
0.0280531951469713
0.0275814524795998
0.0283466989221024
0.0293970077303223
0.0293363899732787
0.0263767715494607
0.0272532805822455
0.0298232134134192
0.0318737943514481
0.0319295338086923
0.0273405736772911
0.0272170564412575
0.0312704622823491
0.0289464272362885
0.0287438419788987
0.0292013317069662
0.030408688039902
0.0305681174817832
0.0314306800405274
0.0317351212063083
0.0292572804518763
0.0285139963791986
0.0298036793112912
0.0297110248829313
0.0297716826547223
0.0288306882717522
0.0304058129941204
0.0290416651729604
0.0277189302486002
0.0312412389771565
0.032156192994672
0.030666701487839
0.0292941246299114
0.0297259797095595
0.0304698878652919
0.0278025450137806
0.0308554783197374
0.030937996096575
0.0296736070777209
0.0297441980271569
0.0293998623348065
0.0309009223916345
0.0298105771233736
0.0301971123062168
0.0305095009485781
0.0292101660590718
0.0285545529887277
0.0319089893192606
0.0314674890844246
0.031003355400012
0.0305059420006663
0.0299267258946042
0.0320944220153204
0.0308870361490896
0.030272097295374
0.0311620632457902
0.0300376108114393
0.0325269709542493
0.0294381547626234
0.0267802099504636
0.0291829659169014
0.0323655833502762
0.0317220442694232
0.0317080443571016
0.0275435702686148
0.0283698577973562
0.0295594925322628
0.0305476600956402
0.0316778468482146
0.0295387777460214
0.0302258391293085
0.0319231327759583
0.0320330053019831
0.0292990327573517
0.0318368964011544
0.0309937292177564
0.0297403966189166
0.0309736774073001
0.030617254131662
0.0326689172723892
0.0309102462519805
0.029933915536646
0.0313571205292332
0.029841778562839
0.0326986298185515
0.0314844353290984
0.0308411959184909
0.03006448209943
0.0301638301036884
0.0318731702625357
0.0312713437022678
0.0335420258395451
0.0305386609156756
0.0322634024585995
0.0311701554144912
0.0309445111532598
0.0323720029783396
0.0318725673533031
0.0310491580745007
0.0314578939264224
0.0316812395495414
0.0318843784716444
0.0305651916037447
0.0330132931818715
0.0320200555030413
0.0323096592720904
0.0310308221803549
0.0319955367997347
0.02996039319148
0.0303167390023916
0.0309592551271465
0.0324701086938875
0.0311212156615321
0.0292927809365716
0.0294674166882895
0.0301768535389587
0.0316282501387911
0.0287365730109769
0.030727084191069
0.0292100464767637
0.0321144526592627
0.0313005949885044
0.02870395753857
0.0302254736743967
0.0320643523461209
0.0304802264971207
0.0295151485680259
0.0335689195999377
0.0322868030762704
0.0294099556873089
0.0299413826291762
0.0297045417652417
0.0297327126036338
0.0276315575215007
0.0277542909917387
0.0297683914894192
0.0296485217823707
0.0300470211249004
0.0286179734768836
0.0296246367092136
0.0299065455530778
0.0270100229514368
0.0297122800074364
0.0290912102642097
0.0280458239137788
0.0298089409097972
0.0264324427449601
0.0305388465529525
0.0306078550644814
0.0312101300188432
0.0306547191993737
0.0261662530917735
0.0285797064427276
0.0294330404743114
0.0289623255404932
0.0298219442890884
0.0319457143120086
0.0289712141138172
0.028467891475506
0.0289716060801121
0.0293843768175018
0.03154932744904
0.0270056946124715
0.028573533519529
0.0267451063099708
0.0299054780412596
0.0276306458433718
0.0264369125720856
0.0287068750714233
0.0291819412923925
0.0296676572459323
0.0301216657732088
0.0293998868366445
0.0291781181598162
0.0281647783602798
0.0321245420676785
0.0276285389353543
0.0262635613823235
0.0276719795560332
0.0263309470966322
0.0316173000910006
0.028515078942603
0.0289145714480962
0.0306808044538537
0.0280146983621459
0.0283097317192533
0.0275889398454817
0.0295470891899512
0.0281909946272061
0.0296007655455571
0.0296963041221467
0.0272115910063133
0.0305264453080554
0.0276791766763052
0.0278540687637807
0.0288020113689775
0.0307342671261097
0.0302021454502275
0.0278888754989151
0.0277247326842128
0.026275496175691
0.030755022752023
0.027418436385149
0.0276726571524635
0.0275059801256796
0.0304656402718895
0.0288137915008634
0.0277172092645224
0.0276013599880779
0.0289973690301771
0.0290474025836109
0.0306029699913055
0.0278249940295609
0.0292450399531369
0.0277184277227175
0.0285719076904402
0.0287841330616131
0.0266259053422533
0.0268069018003606
0.0272433081315972
0.027246308046098
0.0265830014251245
0.0281322774655745
0.0272532706198776
0.0280821183049941
0.0255171410237459
0.030510919180852
0.0261768462297927
0.0281290574546099
0.0249218851700758
0.02569383091856
0.0277426571192066
0.0259230104651935
0.0268839358460099
0.0276483865283498
0.0279569851546987
0.0261369397641775
0.0244155508847148
0.0261660797569215
0.0257022682540698
0.026118349492258
0.0256504221606818
0.0242799270297636
0.0268367327292298
0.0277958541268252
0.0260498460581337
0.0266492227088284
0.0283021698878785
0.0264559378005065
0.0263845621747222
0.0246349195603925
0.0267142646313558
0.0233735460768215
0.0247220075094192
0.024583819092696
0.0245739237822834
0.0232830315981234
0.0281826256816568
0.0255103611569489
0.0222482550088381
0.025383565868457
0.0229947155729282
0.0273854083504441
0.0268634285849872
0.0220603539587007
0.022795466533109
0.0202532372639167
0.0222719541416789
0.0228569630494295
0.0210225786150632
0.0238409478161905
0.0244019033779753
0.0248163481779074
0.0248239657437348
0.0194623951502286
0.0243741180872325
0.0216793074791217
0.0214608938386926
0.0221000920555451
0.0265836384265418
0.0258915739180938
0.0219254772604894
0.0207339230344314
0.022453374294429
0.0257289955117698
0.0238923157246367
0.0234120544305361
0.0251727841568714
0.0231787161399627
0.024669759796022
0.0231901283259613
0.022238560500106
0.0233811480331896
0.0250906281342808
0.0247465419306196
0.0239127119212329
0.0258499570945102
0.0227358372917428
0.0223696460283206
0.0245363774928436
0.0216603536055765
0.0216176810384902
0.0229763934329446
0.0235292827714291
0.0241881335311892
0.0226879630112865
0.0224507908279686
0.022432287327784
0.0249873021219488
0.021357723123179
0.0213881487435537
0.0225224273493817
0.0208500436288763
0.0222384174639638
0.0231824228557106
0.0229486837548719
0.0227603335697756
0.0208009273351943
0.0210743474150433
0.0224214678424846
0.0232258189878385
0.0224180623951216
0.0239992768372102
0.0196403858731016
0.0216265067016467
0.0227914355586706
0.0233805926673649
0.0232493253072661
0.0226849186118286
0.0243298915383016
0.0224413815661254
0.020958782883581
0.0212535220253563
0.0210403559262582
0.0209419487932606
0.0208126802950592
0.0222874036518412
0.0207143961456449
0.0215729699070788
0.021275431877774
0.0204174570649641
0.024420765074085
0.0211547146154997
0.0236467398617168
0.0230665228834395
0.0214979865850122
0.0250318913738609
0.0203977997903772
0.0213223165100917
0.0246182170278802
0.0229186276027186
0.0217217538123757
0.0226798530226224
0.0245062990046855
0.0218758906549326
0.0235559753205392
0.0234532384882916
0.0226644199420261
0.0193591994219148
0.0214027521376357
0.0221843878840255
0.0211754911692564
0.0215803663814692
0.0220371700600359
0.0246887287608918
0.0221227123331461
0.0205079931208672
0.0215283304154259
0.0237303126233332
0.0231170816295602
0.0187482068160404
0.0245404077082637
0.021715022475626
0.0225634644256282
0.0206534056847381
0.0232560297121656
0.019657392448037
0.0230882862813716
0.0212800826854742
0.0217691450979156
0.0224625229457124
0.0216056557253895
0.0235398768712214
0.0233355730818706
0.0214214604208568
0.0222825213009221
0.021863275909941
0.0192602890852519
0.0213492623601696
0.0214280465735808
0.0206049015465676
0.0246077883301181
0.0198624322725736
0.0203627263792832
0.0219946028851789
0.0230416252526492
0.0216379247107543
0.0232421063997532
0.0243923584939184
0.0238320582865391
0.0229314860135718
0.0213734784482978
0.0206972822193216
0.0213581841078934
0.0214602018375857
0.0227141152139295
0.0219561665326378
0.0218929288218554
0.0220046142335366
0.0223308745257094
0.0221890019131971
0.0229371306852977
0.0222723023795231
0.0203339590680735
0.0206338178638027
0.0219998173847852
0.022376373132424
0.0201343507040184
0.0235928341510135
0.022060353931455
0.0239287002536609
0.0192871828477888
0.020341734525049
0.021585960878109
0.0220772008251306
0.022559869471624
0.0240167127658285
0.0231783873819084
0.0192458484204431
0.0249124889889364
0.0238235239196909
0.0240533877716918
0.0234046451236399
0.0218931817887774
0.024099639573905
0.0214400924106672
0.021604747260847
0.0226968359559318
0.021309010305718
0.0226325825688988
0.0263041780059631
0.0231862350580285
0.0213995516663476
0.02314532447773
0.0245706762704532
0.0237758229591454
0.0242727106400524
0.0222918212918771
0.0226491131646635
0.0227877388526348
0.025060508382381
0.024469009634976
0.0230723114112909
0.0247994217738818
0.0233069692342136
0.0249241638602402
0.0233810181866936
0.0246322079388024
0.0216562904643575
0.0222636026027069
0.0217703813838291
0.025713384494655
0.0268495817172962
0.0232532752537584
0.0247879228897068
0.0240600367076418
0.0230180516578524
0.0241115937515952
0.022997378157072
0.0240499451808861
0.0259165766627852
0.0257438366493073
0.0249905813247921
0.0247557593824023
0.0259993377170165
0.0254978117607678
0.0236929011678266
0.0263715210330899
0.0222605789956087
0.0257306867714949
0.0263749864969642
0.0258395979583057
0.0265579997476281
0.0281117671573807
0.0239809127469363
0.0251045201288963
0.0237521410163458
0.021877355215554
0.0261405959033747
0.0260199534439292
0.0251292612589029
0.0252156233270123
0.0283351038714328
0.0274396433791611
0.0282380893243548
0.0254701297119177
0.0300276982536645
0.0262774506820265
0.0276559400441041
0.0279877153307291
0.0304041304994279
0.0271847847139886
0.0276295458130073
0.0286347000231381
0.0272656112165233
0.0279814539074126
0.0287042302615445
0.0288835477351521
0.0295828511241254
0.0291074803557386
0.0310618362170831
0.028972250186701
0.0283065298138213
0.0313448931791381
0.0283448827598762
0.0308786600448882
0.0293750103377157
0.0283026259978784
0.0317767551016986
0.0320831429862548
0.0327904101030128
0.0310980821234942
0.0317304516181832
0.0304139739425995
0.0342495556759029
0.0302867014566325
0.0330747476582834
0.0333218459714303
0.0356964716575018
0.0338501133910099
0.0367659074473152
0.0363864856482899
0.0362873453035763
0.0356519016959304
0.0376524067721736
0.033559262450711
0.0412362343131217
0.042130103106235
0.0394619420542772
0.0397436085660707
0.0412566635824953
0.0402907692126627
0.0376545880224901
0.0444519020670774
0.0458175595994604
0.0426794634081904
0.042440813550778
0.0484988657713454
0.0441793891847415
0.0466900494817279
0.0480072086875991
0.0450008206292245
0.0458684616542117
0.0443468999195066
0.0476720123910508
0.0480133380727472
0.047940927486334
0.0511844935282504
0.0512627520321922
0.0530242972165214
0.0507635668203501
0.0551405777522704
0.0509335826854643
0.0586654702261865
0.0587770256240301
0.0573759044456386
0.0564064909498255
0.0578901789780071
0.058688372999151
0.0571718222494494
0.0584188751285385
0.0586607444648571
0.0632662912522668
0.0614541105345579
0.0591417248613936
0.0647192958294661
0.0664717011416996
0.0692163898029015
0.0708280097739375
0.0787114560707436
0.0774865391599985
0.0762303874394371
0.0810753272982662
0.085663225954246
0.0910213008174087
0.0908858728217038
0.096738213924942
0.0979614408519919
0.104219554076306
0.109627423417631
0.109582975288994
0.112039407965205
0.119195305724576
0.127269156386979
0.120343423970148
0.129170375642994
0.142635217073566
0.146264645860996
0.151789497117679
0.151456500651871
0.15587166523276
0.157229587895985
0.160218540760339
0.168243937303801
0.171739408129533
0.177045372442612
0.185695895467276
0.184813683623075
0.188803093106144
0.197821263719973
0.208462901751765
0.206002115654998
0.215279982242151
0.221596939559484
0.217503901493962
0.225629721462973
0.23238204132891
0.234179208255246
0.239765650093731
0.249971423111059
0.246662965482652
0.251059826398384
0.261209721994861
0.259531107179803
0.262260041437966
0.2651689154353
0.271632179363322
0.262610242511226
0.277700677194851
0.309885904268566
0.308421289356403
0.276398370414282
0.275972684116367
0.274550720284198
0.273390825815827
0.272230286671819
0.270035774775501
0.287840192846704
0.278570754675002
0.283350809675524
0.273668491647137
0.272686721945584
0.281080735833502
0.276501493718872
0.272816224149514
0.276164694883674
0.285604809977421
0.269293661270608
0.279745099368821
0.281842793398952
0.260464941933834
0.274696839699131
0.277374632202561
0.267571737500445
0.268140282983086
0.2706733978552
0.265246590225707
0.268002448624909
0.26169067783883
0.260861104482234
0.247782454138697
0.258831095529684
0.250681314992651
0.244223921215355
0.241654545010019
0.241493987180664
0.236715793056391
0.228827899733159
0.233025045204084
0.247764930819757
0.22636144429569
0.224769628681891
0.220494799132315
0.217780568293164
0.211609396931036
0.218978041578564
0.213463792240545
0.212349172055947
0.210751031993908
0.209822277844244
0.207234835654929
0.208459485179942
0.20436851845373
0.205432004196892
0.200019873895301
0.202568751644819
0.199712646483209
0.201576093491377
0.196457071317545
0.201276493472127
0.200277928467843
0.204526884892053
0.201484445116417
0.198633722155605
0.198966108129933
0.197968957607537
0.196403667596504
0.200571376083483
0.20189837162788
0.199317538264819
0.196148917863379
0.197028811336039
0.19757997778914
0.196988567588729
0.199129175819596
0.199514779826043
0.195759504978016
0.194330322469104
0.197971906511237
0.195042910902461
0.196427024414898
0.193740422299737
0.209511407452786
0.199986081711462
0.192228868161366
0.19386349822121
0.191542685602623
0.191998196467351
0.19397256279473
0.198354089215951
0.190785247369009
0.191201188272771
0.188698634591795
0.18555489181322
0.191774136822024
0.189284520702472
0.18356582259656
0.186137069435677
0.18106917608638
0.185195109988096
0.197130919824113
0.201130541749612
0.195107481072133
0.183016794697937
0.184317775404921
0.184182607774391
0.186073421381143
0.182318333802928
0.185443178065718
0.181300315305272
0.191716750375289
0.190034425570938
0.187375935821197
0.19194553992985
0.180491961620484
0.176683027369764
0.18744626483892
0.18428377756283
0.181283801076393
0.188629228243134
0.178540685214828
0.176693929086744
0.187725058785189
0.178939844380717
0.174225854589085
0.178047052955214
0.177401444354924
0.169803026187237
0.177904989195483
0.167182129850245
0.170574305898215
0.168827678057798
0.161797144412153
0.162677925337513
0.163337218999048
0.162373488651137
0.157000670886822
0.161599824755758
0.154014027802123
0.159172754103691
0.157091013154203
0.159865501736069
0.156455123078157
0.15491057767779
0.149130753582423
0.149279763554814
0.152685304357207
0.14515680128519
0.149533809846958
0.144211783179032
0.137453205984772
0.141176804237157
0.138156940036947
0.136482566503153
0.12951591139537
0.13206802228622
0.13766451782419
0.132900001761189
0.136030745304127
0.128635756984938
0.126689987561775
0.128468347968869
0.126978830974689
0.125518719560394
0.119778634460052
0.125674289459988
0.128119863359072
0.121181560080138
0.127281622903805
0.127943516483705
0.126558861356596
0.123760151103656
0.124652509640264
0.128355338862406
0.127891164141076
0.135051587370103
0.133960653925609
0.130385580642622
0.137485184255884
0.132268032628477
0.136907418140169
0.136559552196206
0.138546006666323
0.140741114968113
0.141774342856542
0.146971887995987
0.152193823411002
0.153257858206909
0.153343815395815
0.157437279945779
0.168163172022107
0.163602569283218
0.176946580764919
0.173201597948394
0.180160001499308
0.18347439293309
0.183535691061758
0.19002157709215
0.191965839652191
0.198335374895769
0.198301350900683
0.200380030985389
0.208922960065541
0.20415729534849
0.208617736349306
0.210540775486854
0.21567573135802
0.213101390588664
0.221174048968106
0.22228212188256
0.219499284254948
0.231320449061143
0.228512041236216
0.228873870251175
0.228689743027378
0.231169525623331
0.228192008284254
0.235053079134625
0.236704177777084
0.232990474424426
0.243682293379904
0.238242549715759
0.238813134443543
0.244012400837796
0.24316615218939
0.244947985048774
0.245693202659652
0.247841370211843
0.247332738773501
0.247669374061008
0.249927109319781
0.245124348872492
0.269605908301171
0.264828236153455
0.25798925253749
0.261271125220663
0.260222954743583
0.26394901995209
0.264380718737571
0.274342406671369
0.273168569999672
0.268089215933866
0.274117766866419
0.27536614245177
0.280190113868364
0.281143751570635
0.284992591181456
0.28384380428755
0.288886048376971
0.285816652687984
0.292643205453955
0.30225771670621
0.28794552374437
0.290626742947233
0.291134179565793
0.294661869980503
0.296735690279572
0.296530992963178
0.296789231025329
0.301650777156075
0.299052908662205
0.301185577691856
0.301055717702133
0.300284980309782
0.300541993486198
0.297079429849182
0.302885200473808
0.300108744228307
0.296815289152132
0.300218672743559
0.30036196627991
0.300907579515711
0.299470342113808
0.300164730997737
0.297044790392465
0.297109171364151
0.297616215574889
0.301766381812169
0.29941962129645
0.296112996047708
0.29960710595956
0.296306305285762
0.295714370101149
0.301716088005962
0.302271714144338
0.305488693653297
0.302124115289107
0.30397146326449
0.29973969726841
0.301095154473121
0.302783724551632
0.302999451670296
0.302713143416328
0.305497828138706
0.308869298891902
0.311319429671564
0.306071232043574
0.308542596331846
0.307574421904483
0.306355399339488
0.310680433852468
0.307140102950334
0.304672501787285
0.299384971780833
0.299480352108832
0.29983777046656
0.296974672763926
0.296521595285651
0.290354544454365
0.288493928239937
0.289977456828357
0.292566540119976
0.280681502780426
0.277157894134744
0.276756429943147
0.275367995073988
0.275352895072623
0.271258522984194
0.27197519632408
0.268461276685464
0.266951676759056
0.267641110558108
0.265919539401845
0.26087828684095
0.259915940209462
0.260042571622297
0.261575223763203
0.261852234456147
0.261138331942058
0.26116542775355
0.259838770666035
0.258775284545337
0.257918933161189
0.259910799816799
0.255542826447539
0.254413867753445
0.258859427097977
0.258419249935508
0.258977355378707
0.25705331667791
0.25795499987344
0.257218049804986
0.25906923592076
0.254215858500196
0.257325894945785
0.259540490246165
0.256686348340875
0.252989099708717
0.254305981326091
0.25592371633427
0.257711472005682
0.255811216701485
0.252570076947387
0.254962661993186
0.256305543602952
0.253492718931328
0.254688473848208
0.256459211310633
0.256010306977349
0.255446192085145
0.251892331222148
0.253905145498637
0.256237144846654
0.255943216317269
0.256688041214574
0.253700366491024
0.252509758475643
0.254147773862145
0.252039709077628
0.252589867838835
0.252320885352916
0.253823726749471
0.253279707108072
0.253271249579648
0.254033598677533
0.249482408339058
0.249174691520793
0.248004748831792
0.243619534735686
0.241399256688071
0.242060912768919
0.239205324547278
0.235618197403983
0.235530389317101
0.231237467553003
0.22580877709939
0.228513580778914
0.2260330859018
0.22340133899805
0.224739575208025
0.223654962020871
0.220433977516307
0.219342957683174
0.220741853946264
0.221014288618568
0.216732098386234
0.215917270599384
0.217526195487496
0.219764323778084
0.216692883429169
0.215403235217867
0.216141281403228
0.218412211361788
0.21834880206509
0.21940150010463
0.218961085283968
0.21960812163425
0.22254646765994
0.223179252907594
0.219759840016639
0.221785881107859
0.225989883101024
0.223095014571941
0.224826878348608
0.228037831863281
0.227281461857449
0.229527158017249
0.230038539827829
0.229579220021517
0.231446484963832
0.230194613331605
0.227381195732484
0.234301473144221
0.23163770881395
0.233256351418955
0.233697227044335
0.23257761403453
0.23288264498311
0.235816617047797
0.23037623263117
0.230425317169358
0.230352397096537
0.230885924814555
0.231042918370188
0.232611198304261
0.230646913240009
0.229998718180025
0.227250723361471
0.228188718159899
0.227055941622953
0.226572084617744
0.227446738123844
0.226527913774629
0.224210172088239
0.224372588476538
0.222868870874552
0.222572771785355
0.222494442993964
0.220744897591862
0.219014999959062
0.220992354105461
0.2217182070783
0.219218986853948
0.217361833028173
0.217102576245619
0.2180185602461
0.218969104637948
0.214872313332935
0.215536605191737
0.214729027693677
0.212523359706725
0.212785478131786
0.211616746093469
0.212015988035788
0.21102995080213
0.208388876696121
0.208089153860593
0.207731352446986
0.206420472742679
0.204046238382611
0.203078570440297
0.200466831406202
0.198681988624525
0.197165926698242
0.195102447630819
0.195642220027096
0.195260152860986
0.192797279528859
0.19089236824399
0.187940747094118
0.188811436004544
0.188522304976361
0.188155892904869
0.188739596219612
0.185433720533275
0.186200211644665
0.185475993402475
0.186413297425765
0.185518703132383
0.184222289844137
0.18322732576888
0.182089986763647
0.178595793512101
0.177849841789764
0.176897625574467
0.175704485735105
0.173582867595955
0.170594056442691
0.168217422740176
0.168206616786164
0.169835868976137
0.168281932542195
0.168249985872138
0.173404775109667
0.172785720176502
0.176487449024505
0.182185736501372
0.184433598613885
0.191407709996091
0.196468041385504
0.204844477074472
0.214295993411582
0.220281835539751
0.231723529794466
0.241048313747829
0.24825980177321
0.258894553661094
0.268410094161651
0.276417242554417
0.283944586889792
0.293802847476779
0.301729334557025
0.311300495985556
0.318901502926638
0.327516520898992
0.33773585166938
0.343858960406143
0.350210243256046
0.358047806988059
0.36306290454655
0.368985294603785
0.374723809710813
0.379770196607872
0.383594925232888
0.389202097244914
0.391666564097838
0.395686027394038
0.400432598237366
0.400901975827746
0.403363587064078
0.404864404096504
0.404088074563496
0.403302184503404
0.404210134493133
0.404035137265051
0.408088026096038
0.410399975647883
0.408115591730781
0.408117985460593
0.412809179850935
0.412988748590666
0.415485468465465
0.414159313601942
0.417602741214054
0.417909257907294
0.423789798087696
0.425721303649944
0.434801915707198
0.435763664547358
0.440713082466547
0.44094019839297
0.445390904289766
0.447257879663403
0.45733227546486
0.459645343375081
0.467986776851109
0.46943264640307
0.480942026234052
0.489423242331301
0.490791975552587
0.497016891238036
0.509483499879388
0.508935826800131
0.51683809314679
0.522000735493084
0.525024800896201
0.521337259430882
0.527210338812868
0.529267315699427
0.526995753131764
0.532722434061008
0.532065287742332
0.522278834739371
0.522328103842641
0.524239792998103
0.524399792523471
0.530191675648867
0.528783861828723
0.527030302652716
0.53272190967599
0.538275898295469
0.55128190417729
0.552340830174993
0.566589649864748
0.580335186997114
0.587434959941345
0.59265296435282
0.60626160618193
0.608349464161858
0.621857969092982
0.630178980764471
0.637375070226152
0.653807081278015
0.659579071100963
0.666135670707884
0.681975897830135
0.694837470242673
0.69922840831013
0.70570443560877
0.720049934455307
0.732947811979263
0.745049521484033
0.746489976112112
0.7643006785005
0.781826194390927
0.796258471504693
0.798896010847429
0.819471584215029
0.827495262796402
0.833409672954896
0.842095717681947
0.860805622587094
0.860178305935825
0.877701557478429
0.870955674303341
0.892448520192244
0.887747418636656
0.884925309660692
0.87616207179407
0.880185907131177
0.885730244561055
0.884577086324667
0.879954301899381
0.878910831728993
0.875154787116753
0.864289591468292
0.850318670770271
0.863206191326384
0.873564581423537
0.860543038993273
0.870231441850106
0.864182030274444
0.871209710866747
0.887525874405415
0.869452686005229
0.893238761003735
0.898462136142215
0.883289789031658
0.900962639922173
0.90758035547003
0.909204367540497
0.92497408441108
0.917885452394439
0.921643672661909
0.93815898022502
0.919978540715248
0.934698588615769
0.933614299084548
0.91664521496211
0.939415409141738
0.950231688212306
0.935185039215215
0.942946888048597
0.941924203088469
0.967354679814171
0.953854983214066
0.955958795372622
0.942608327955236
0.939060916986575
0.907990961152239
0.919956439035474
0.916195376966923
0.905922058864179
0.904868042310092
0.880733616921163
0.889041201625263
0.882608798260471
0.890835714021132
0.881463818270012
0.863770381796812
0.852897568444026
0.845800080041174
0.850515998890543
0.824981527698825
0.811639202395949
0.783019351261395
0.772015631362941
0.745699414946373
0.731114710208678
0.699798895488707
0.677997551615898
0.66117583068624
0.641444145235674
0.608464195406793
0.588387109897805
0.573520290238851
0.560816569696949
0.538926112975146
0.537305035568264
0.526541802434887
0.516813043736323
0.508633736975532
0.50074969250458
0.497875677791342
0.493809417791926
0.49419835218108
0.485773915441844
0.481837869001007
0.477133589457761
0.472443433511469
0.468816185515785
0.459836498418603
0.454755531517507
0.449189722201775
0.434748317001698
0.430420679309152
0.417247930572356
0.409021615741453
0.395973200182257
0.388810931643906
0.374991907193706
0.359625299694804
0.351357095068103
0.33915493376209
0.32136438566127
0.308782404956119
0.293325819965903
0.279828851137328
0.268576783170306
0.258109269978613
0.242937015232695
0.23517822905059
0.221496450578189
0.213284436720367
0.212261530489325
0.197836482295446
0.194687428288076
0.184414372326401
0.183416892112925
0.178405048928543
0.175472227292324
0.171506154644521
0.162025365561225
0.160890994370271
0.160292487081118
0.156800139663746
0.157383524005096
0.156706870867094
0.156752667051035
0.155109498742544
0.155334133131974
0.155302096339841
0.156231311804978
0.156436521130657
0.152828079034731
0.15771554700881
0.161614732142653
0.1590872981356
0.158204730891753
0.16182404214308
0.15837701868761
0.1559867039587
0.15550479198052
0.156529882064689
0.154319933477259
0.155939676792054
0.154262416238446
0.151536697389886
0.14751538085904
0.151506237835578
0.148861651502081
0.148651889955491
0.153658916394714
0.148055773484375
0.146903807615546
0.146910691140957
0.149592900974759
0.151279925415843
0.151673161514332
0.15193113983075
0.150296338544911
0.155322338931083
0.156381928788464
0.161395169633193
0.165749632737544
0.162101916753317
0.164342006938296
0.161733429555861
0.166512967389675
0.167903490568644
0.165159195585463
0.168587891962388
0.171964303423582
0.169767671765911
0.164215654124408
0.167740374987275
0.173728613432904
0.170204924634844
0.172261984243594
0.170166360287692
0.173146437894179
0.175513599518391
0.177872047877853
0.177642158479014
0.179415585188268
0.190541333151946
0.189952174851371
0.190007091049737
0.200836563974063
0.211889943865367
0.211309353661803
0.219556461820308
0.219723994368645
0.231829782874884
0.226321761826491
0.231873794668139
0.230513813563679
0.232868464184679
0.233069886878169
0.224335627001173
0.21768292329235
0.215977652130664
0.20926738508215
0.207226581590651
0.203537644803895
0.198489917381924
0.200688679293646
0.200020799973941
0.200604630143972
0.19270137447676
0.198696815340446
0.202267376320051
0.203031164371714
0.197626574415876
0.20459684683018
0.205208799835011
0.197540696423248
0.195226442616204
0.195244115713378
0.188427105323279
0.186583542983159
0.185146788269543
0.186698586746012
0.191377510253965
0.184636000430727
0.182443012817949
0.175769291996628
0.171481315526124
0.176043986312149
0.17308768145283
0.169568070991124
0.170413142108575
0.166989886214239
0.171944023075092
0.174301778544029
0.167021620116474
0.167939897018497
0.161807700078615
0.16032202408912
0.166327616387575
0.157520512250344
0.158332535073128
0.157530567242424
0.162147628917574
0.160036232102964
0.15709589742729
0.148667690424441
0.15905092902462
0.16350562243198
0.152172303391973
0.150748847039104
0.158428182916332
0.15205292065473
0.144512025875724
0.151045756481432
0.142469572678289
0.152583496956994
0.155549280605896
0.150838253176441
0.144629618682459
0.134875545021803
0.141100189917091
0.141695675703829
0.138084036693714
0.14348724754484
0.149154917854282
0.152402547542657
0.142206058976487
0.148877787217539
0.141536073850961
0.143042169531027
0.141465047501806
0.153445509890846
0.131680357625383
0.136507654901426
0.144275960856481
0.150949728857511
0.15454761652304
0.156789522431636
0.146869105978911
0.145631828459418
0.159262243851059
0.161383035164492
0.16065030778485
0.157771051075539
0.154493276581553
0.158430494351397
0.154955375960399
0.156549848527636
0.170741344693192
0.16261805611378
0.172671904532647
0.1776556697952
0.174157359503413
0.185852123594975
0.180915992417252
0.187580215424445
0.191724712996584
0.195844944251076
0.203900446317561
0.206276360975659
0.205760565315493
0.220573926507245
0.23095420535362
0.232998157036294
0.240102582481099
0.245010854001594
0.247858879909643
0.272549971437888
0.267085274137717
0.252247692068281
0.266444354359358
0.268903167285198
0.275790658991088
0.284961824015171
0.273044498017375
0.280319704738823
0.274136148984914
0.26911194621979
0.26583833535768
0.26396719757372
0.256960762802879
0.261848726694813
0.257507351607299
0.273437221726052
0.256555721052856
0.247274046610562
0.247741364015394
0.253344621820326
0.279538818805116
0.251079183097575
0.23679698915569
0.243768494110811
0.245249040285841
0.236030382522921
0.248187167474996
0.238973888813731
0.234618100199808
0.240412001551955
0.253005205984006
0.254111859335102
0.239202441356546
0.212632579527903
0.224759705271599
0.234779624198862
0.246207226730554
0.221456201671256
0.237752742432023
0.229561085337909
0.260450689227786
0.216794975691685
0.215283839981714
0.224139325371802
0.204854533520722
0.203611586446584
0.228273955652452
0.236377497071563
0.213019115260422
0.210562832736695
0.218926483633274
0.221038749961366
0.216714952977982
0.227704336593099
0.227258171406932
0.255049878494718
0.246703468369158
0.222104378147925
0.234935296068485
0.240276672685838
0.226019366752671
0.239361826672009
0.225841915788951
0.245934076883569
0.276204063726699
0.245311517591042
0.231156633544499
0.25093975545791
0.268116959399509
0.236444614675603
0.283201324739292
0.26441817981042
0.245452778007091
0.251271615286823
0.251086927229321
0.256601120899452
0.278725345373991
0.27861604712742
0.284062849321669
0.311784162291067
0.336602979442648
0.242209494125177
0.276905474390763
0.29216861017822
0.349088198658002
0.347769734350123
0.340661920968023
0.319053708924205
0.377176220628486
0.332982141378938
0.367723708822261
0.315953922094802
0.363993885831168
0.318530251950339
0.307315877307054
0.302371033483882
0.302205493185571
0.30922170616811
0.31622103912264
0.302777456856156
0.305821377933683
0.29283698110265
0.327395168185719
0.279704705372296
0.323659589560707
0.271888905888967
0.246218596093939
0.247699062487358
0.315516354576869
0.316454469357686
0.340984369654683
0.290429353655795
0.293711808810747
0.258483631745747
0.363151434198334
0.272841209736366
0.291276061132913
0.357863184923102
0.246106607202303
0.239774594468545
0.306185139772942
0.251880954952746
0.29234585247021
0.378022836124151
0.450563085280122
0.358927270167035
0.39324850796111
0.245773818832936
0.284503928188933
0.228028340157222
0.291332961702112
0.306537675278548
0.501860696068805
0.369850739043692
0.35242020799906
0.431055289214171
0.489509173517695
0.216295473378633
0.206657990670313
0.27509080039694
0.50845639321248
0.315574338939942
0.202415036818596
0.237773810621081
0.213540221082141
0.349218250795914
0.404735476224973
0.288165764628275
