3596
4000.36533379555
650.420452594757
1
2
2
0.0351700397767957
0.0317875141438501
0.0310785548218112
0.0313135056881759
0.018590322055787
0.030964435946331
0.0378494501462423
0.0346243367894384
0.0273969504497606
0.0391499349648935
0.0304530702991492
0.0275118956688694
0.032739198767827
0.0284573763258442
0.022308602505915
0.0344242958869937
0.0301675227858592
0.0354848150759859
0.0337980387645639
0.0270385969755444
0.0290801401119943
0.0352297519743774
0.0328520478458365
0.0339750875149346
0.0225157570363487
0.0235941505063573
0.0328364935097617
0.0337134190750769
0.0267274122090617
0.0294424669533217
0.0253145186603202
0.0272307695524736
0.0276344778247103
0.0235950681917405
0.0315445748428616
0.0329942647754162
0.0281578824156613
0.0292697130387335
0.0251193710616526
0.03600647213179
0.0281707618539803
0.0286111023906217
0.0157951335734717
0.0332952177386125
0.0270225051962746
0.0310641317360266
0.0454025227642741
0.0432069050534729
0.0267038011556574
0.0297808635352113
0.0180491898415685
0.0287357653495932
0.0178522172247212
0.0417254709364182
0.0185414618052619
0.0201189921587262
0.0182308584605278
0.024070193776776
0.0237775742518668
0.0290422528316006
0.0277673548810493
0.0397292349794739
0.0224234389249697
0.0218700375584069
0.0295652786489972
0.0324829613312386
0.029585224101505
0.028961018043413
0.0273087463513507
0.0225443108406901
0.0207114760762911
0.0213604427241569
0.0256238631691768
0.0189178267946535
0.0281623969408179
0.0294971957245255
0.0243548210041087
0.037571171662569
0.021786342079389
0.0344998757442565
0.0351237308160052
0.0308821188992719
0.0278745346803657
0.0300699314108816
0.0319447879358238
0.0247457248439406
0.0209639905801952
0.0183231804112123
0.0287289474653211
0.0314759722502687
0.0291951144528748
0.0300046158436651
0.0260330008319275
0.0217971412924332
0.0221102598314963
0.0286780988033066
0.0298332215580792
0.0216714836966279
0.0238237217356093
0.0150583204290774
0.038827565139118
0.0298115262494476
0.0166916049665778
0.0337391873577644
0.0418665270807008
0.0298041269238044
0.0173119598784484
0.0254961733341889
0.0219307733634662
0.0117711806045376
0.0198494914618549
0.0255445200192182
0.0328327025163878
0.0215926839541634
0.0285739101691559
0.020704863895212
0.0244594884289343
0.0252063226619612
0.0258282815599352
0.020327623738601
0.0176242570590831
0.0080028355564178
0.0264555801833486
0.0279614775316157
0.0213197522226865
0.0177531734115465
0.0153928730514074
0.0142164024635269
0.0180688410954823
0.0268035777919785
0.0209391310986037
0.0226186698326394
0.0125251263449526
0.021021444466243
0.0338253540221823
0.0275945734831591
0.0151508582731536
0.0204805785185089
0.027045895856678
0.0183452813774838
0.0314959235355528
0.0268717511734911
0.0138403532621066
0.0242777164051181
0.0205273349444626
0.0237053873463734
0.02459757150611
0.0219073563111969
0.020967222724431
0.0227232314501429
0.0262085558189169
0.016439780251792
0.0286651435976133
0.0259184647292393
0.017276962543378
0.00438887816791194
0.0248011469440734
0.0373799380656662
0.0180731292430991
0.0385770891148358
0.00843756865400431
0.0206538215792894
0.0184776284334617
0.0172299750465282
0.0162285251125228
0.0232560035552498
0.0321308773172883
0.0227666852725803
0.0196242809532854
0.0150108242937141
0.0250267495148403
0.0165928799936241
0.0153517872041333
0.028583815151162
0.0305192705063023
0.020673528091478
0.0236448562145607
0.0190534753631715
0.0240803534651177
0.0230719582430363
0.0260066247738414
0.0207746506655932
0.0165889431015096
0.020837174588447
0.0243278648217563
0.0201595766454839
0.0146798152935212
0.0220299474932353
0.0215896038896847
0.0199741203870447
0.00828203597591501
0.0338093662295032
0.0239844831095612
0.0247889414260289
0.0161023334396367
0.0219697385904002
0.0029389165914884
0.0313927983722467
0.0261108156410838
0.0240248680082313
0.0264682699784026
0.0154702378618773
0.0178227352761432
0.0182379704664361
0.020937387675368
0.0148829826621688
0.0250526509743698
0.0253181102233779
0.0202723206030613
0.018044388738845
0.0123471508452526
0.0232047915210327
0.0252387543713666
0.0230284334306244
0.0337791064398924
0.0199018502097119
0.0156670847789975
0.0222880150805567
0.0222758572693237
0.0221717765204732
0.0222605422535921
0.0197748849541022
0.0216682973080107
0.0212754191895291
0.0171369190640588
0.0250671085603985
0.0165915035970914
0.0184898821501078
0.0200167905927006
0.0263847714423415
0.0353786795174133
0.0291595906451583
0.0317417695235482
0.0166201848043095
0.0160139416800501
0.0306812226247201
0.0251370114363214
0.029699817975348
0.0174381592389242
0.0254067689107579
0.0229552956656187
0.0204735150228721
0.018187378376275
0.0212396579163414
0.0160645792285941
0.0279583091177317
0.016553014382059
0.0181021131181142
0.0220842184582721
0.0219628078226519
0.0267017822188353
0.0257754275054626
0.0221935940439504
0.0275995731169597
0.0313502637933761
0.0239900915684316
0.0316118654516828
0.029871737549137
0.021855012493008
0.0204996224905048
0.0121153722960649
0.0249908781202358
0.0229994113301992
0.0197147997095614
0.0258171296957579
0.0411317910572747
0.0189975229292974
0.0337175338736535
0.0328616769622896
0.0274855132363204
0.0231314785465522
0.0289811248910712
0.0271745398052958
0.00763874649705866
0.0356229329284539
0.0281285679317244
0.0262354877533189
0.033943146817155
0.0325545186398157
0.0271826947099655
0.0196571861023953
0.038470633641262
0.0191540528811496
0.0473315574011927
0.0151273155300391
0.0328040993542753
0.0337793854703008
0.0362445508531266
0.0247325383254845
0.036720728692254
0.0246396631620576
0.0244576860597411
0.0275305623146632
0.0260077937621903
0.0343163875643356
0.0242807297659686
0.0211017809544159
0.037953620186152
0.0262580069759428
0.027684950357467
0.0337341990292488
0.0256064696102882
0.0322953089708049
0.0348614776896914
0.030716574336425
0.0280816457217895
0.0240675558627057
0.0336022836864164
0.0564188443222375
0.0368750263452799
0.041808155576131
0.0340705862110273
0.0396017214002795
0.0293596580514608
0.0341839768742476
0.0296366110561858
0.0388420484470221
0.0309158215734571
0.0403985408583313
0.0392890561493814
0.0315326222090565
0.0340606925678199
0.0319744590403861
0.0372716213852195
0.0421920341046824
0.0414124057201571
0.0360765540537427
0.0387896414569775
0.0350799346385646
0.0345658960300847
0.0442569158447705
0.0416933961979863
0.0370916756529746
0.0517499058112062
0.047575470073341
0.0426207150234321
0.0462320916676736
0.0389127717357871
0.0400684903733629
0.037937090493366
0.0443828006223662
0.0453068160877334
0.0519530416150693
0.0524827534841268
0.0449555567692813
0.0529644796284059
0.0467861700235738
0.0550322157909736
0.0474123966232061
0.0605665439056996
0.0486406770405568
0.0439015461612552
0.0671956671552398
0.04104990681351
0.0665183070043673
0.0580845997403376
0.062445534399286
0.0582077863890124
0.0601494199390926
0.0530185852116319
0.0671576116205273
0.0693802139234301
0.0664756524375743
0.0646916834166642
0.0670970116711367
0.0686275789828514
0.0625123909827759
0.0689689238027742
0.0833525611115055
0.0747338207092472
0.0738759792018546
0.0737325173502705
0.0804705823558154
0.0830905698934359
0.0857523127341496
0.0901248083306565
0.0870813328464395
0.0962946935877342
0.0845634676821389
0.0832540298982197
0.0945755935633852
0.0873330109138491
0.0999381502855594
0.0989645953620155
0.100661556961079
0.103737861560147
0.109441251429977
0.107025757871725
0.0980180834178699
0.100037871220605
0.116011848468421
0.121882351814803
0.119554885077344
0.125280886028081
0.127136093009162
0.114805489952387
0.141907366197337
0.134118627308226
0.133466105846388
0.127362897078332
0.137081146166751
0.138735895957162
0.138759500420449
0.142250490537098
0.148251025894918
0.137362073342798
0.146388790669293
0.151749503380803
0.159242235447303
0.151939041396087
0.160475188556983
0.155467637735369
0.174163866416659
0.15879150019244
0.185095010784941
0.167272605384255
0.174867798892244
0.171372875985071
0.198445233481795
0.171703514986293
0.194194252209615
0.169596897292721
0.19600562318176
0.18744858165349
0.191435773614432
0.193363020932208
0.21169774511783
0.209185150064047
0.21724047274066
0.206982217865173
0.215905442316536
0.22184044079923
0.210061648014407
0.222695496646359
0.218408543302873
0.239828299081984
0.238192181811775
0.2363985113059
0.255127574650856
0.245216236272205
0.252399330543108
0.245727911655605
0.269215812705967
0.260589802573842
0.263764123100542
0.257491349014678
0.268095458926944
0.268087396888267
0.281903926819909
0.281766723879843
0.307695742816305
0.28903907904677
0.305544814794547
0.281078205675004
0.325871352662846
0.284682170074521
0.303967205979778
0.323282375061025
0.331562347941491
0.307904409985235
0.339932088509471
0.327822227756725
0.353416853778955
0.338771309865922
0.376073176156612
0.33644048414653
0.343780876387701
0.352910263784577
0.361403903528937
0.343108432614781
0.375124898013685
0.379718627668313
0.381211905267594
0.378442514824227
0.389524241191881
0.390882672239333
0.412556545617763
0.406771962537679
0.418307066138011
0.396225019846905
0.413146197640622
0.416934370832335
0.433880766288738
0.404442682739427
0.441643819336183
0.417039653377498
0.430233715011848
0.423954895854216
0.497373268804721
0.455810383232843
0.462653092816304
0.458824341590789
0.471163452098542
0.475893419912338
0.493862670113598
0.45377693902832
0.537853995797985
0.50455673662886
0.521441833145795
0.512992592594608
0.533946064567256
0.491552055684811
0.53445298883345
0.504843735369323
0.580866507221243
0.547367340935
0.564813814739308
0.511209897734821
0.539558991764763
0.539988370941518
0.589673779322654
0.582357566477106
0.576020574216469
0.558729088842533
0.601671666164876
0.572207896302298
0.60228322422344
0.576217843438384
0.59944406092763
0.616054877443437
0.649513378074591
0.624945429341261
0.621886922206672
0.602146226252497
0.643874667920861
0.647054307580419
0.677165220380966
0.634516756523629
0.66025242376464
0.643937507424653
0.718506921927909
0.6651049771258
0.656840360648238
0.678736142826483
0.779213118014451
0.724686116737084
0.713650595768694
0.668705101509907
0.723175501233439
0.704992398048811
0.732719695392176
0.726501560496461
0.798409237595459
0.713362855783162
0.727170305954239
0.721852995023164
0.773325710100046
0.739340712713506
0.799744356939352
0.743563477734102
0.855018247884365
0.773871143466146
0.798970788666141
0.795525246206227
0.872252822356702
0.809149210723926
0.802331570249225
0.808465222176693
0.804616095814722
0.837458654885389
0.855643909533279
0.851318772653895
0.862223664487763
0.802596956154224
0.866838813942731
0.892466615898253
0.864584353401426
0.844624846551305
0.907884659639803
0.881348538590222
0.926413862492455
0.860436507358072
0.956221025533519
0.920540440208194
0.864515637535184
0.950349126081903
1.05434091902318
0.917450918633088
1.00612332682426
0.88847935901209
0.993886171796771
0.92779433198645
1.01436753847632
0.932567284917748
1.03008956690842
0.918179538209766
0.924054289375091
1.01569489254088
1.07134223737161
1.01290968203503
1.06010111527783
1.02112595342705
1.04488204990297
0.95552431686405
0.991644211311533
0.94554835918194
0.982192658393824
0.983217944678556
1.12463651201171
1.09784636959108
1.11573615560615
0.961845173884534
1.06516149685238
1.05134608460316
1.15544843468005
0.972338416294796
1.08731279562321
1.14165353974742
1.09050230156198
1.09002762002711
1.19835988084258
1.08871467190574
1.19567675778863
1.20098215730704
1.20972710017532
1.22827181693348
1.18836870239769
0.988179754286493
1.13615942757195
1.10456611734062
1.10141323606831
1.06512536405114
1.24233226495766
1.06118697655729
1.21058509393397
1.1516592484861
1.16248240854037
1.05029298472635
1.21778759715661
1.17867941420375
1.335378552929
1.16394936012248
1.2626058421321
1.16858261248284
1.2242563855666
1.08862528827141
1.30879498254133
1.26313556811828
1.17717831945048
1.21373784952134
1.23545595986599
1.15960319463692
1.21557567399289
1.31129775811736
1.23709554107679
1.31850137078634
1.40446213365153
1.21507971229752
1.30524996111691
1.27702076530416
1.26954980801926
1.18182962858895
1.30483356936653
1.26886224887458
1.4680828096797
1.28298464082047
1.35574837769438
1.2486634934895
1.41947720382668
1.27264362682045
1.29814954695628
1.19783939576699
1.35638404625671
1.32453984418731
1.33797128541168
1.33730637613372
1.35630199907753
1.30844297249474
1.33595956618517
1.32453657395267
1.44398896838618
1.23298357774733
1.40764322019465
1.34866153342319
1.35182374593749
1.24820683246697
1.31037495191157
1.50131579612465
1.42375800885748
1.30012955859652
1.59733488362403
1.3779444658814
1.55680750041161
1.41718839727691
1.28696560808817
1.30399947070759
1.52230509715586
1.41103157405969
1.47073056924195
1.3341176291575
1.41176404529216
1.37435900961356
1.40174303184035
1.29618628044706
1.31238768654916
1.37631543448981
1.45712902373097
1.32510719695154
1.53151733163535
1.40286818225718
1.37658236531171
1.36166428100895
1.48470492530805
1.44503847335155
1.51168323939709
1.52756920927781
1.43805620661206
1.33501863263404
1.41255925194237
1.50083177235021
1.4382091609425
1.38663598587803
1.46318594180107
1.3245230696329
1.43371219649715
1.46986058931251
1.61132947712528
1.48784295572696
1.42091648715153
1.46581182237076
1.38203750749426
1.38777386654513
1.51294487850934
1.31933159538263
1.46283848105083
1.4040581060359
1.38536825618162
1.55562420048985
1.6027602447013
1.36267597695237
1.4759840186702
1.64813369156619
1.61668460158559
1.47363602717115
1.37149936717685
1.43916269468626
1.53200744271348
1.4326714659921
1.64192315826892
1.60135220683369
1.47592489257451
1.38097357558701
1.57773478010364
1.5584917180316
1.40635197331633
1.43204540048298
1.45519823517783
1.47026872478253
1.57445476638732
1.39077141575652
1.38807761097855
1.3857851595932
1.4153099894307
1.51216479957853
1.42246687398648
1.29900533182725
1.47139886280659
1.5935523986403
1.56728970087127
1.54015661560008
1.43890700557208
1.36817124710214
1.40122318640745
1.46549424811556
1.44900442521087
1.44836346390705
1.50768271781502
1.42619132214277
1.36817701779767
1.35158962169756
1.42716583927679
1.4686905946994
1.5351515065028
1.575380046119
1.70216193810599
1.4423113138125
1.33833086482908
1.36659432394107
1.54394841021859
1.51688687768668
1.33021394911097
1.37270070257928
1.36407335531908
1.39728004022738
1.46776130330872
1.49851029138227
1.38548393340852
1.36934052063984
1.53607302887772
1.51480632651801
1.43682638868915
1.38634192433909
1.42941511705508
1.40715044901968
1.35895963488759
1.37032229066222
1.50092016407517
1.41085781801391
1.26858222428656
1.38162892080879
1.53133935854061
1.46708729655538
1.34668924123996
1.35928484811408
1.34601621223419
1.45503855546655
1.31207938187252
1.28162242672762
1.29917678461972
1.36863216420857
1.50196067555914
1.28771364937127
1.32195267405222
1.34154641811071
1.28648421534227
1.3408203692408
1.29689964663411
1.26873884739497
1.36884288451688
1.30453185724209
1.24833901793809
1.3451827069541
1.44032977426555
1.4028210743784
1.27406610082264
1.34525984381576
1.39450479999037
1.27373510571764
1.2559691549702
1.39703100043536
1.37946260698079
1.31773737917694
1.30865816939881
1.38105924506004
1.29502920914838
1.26188336868405
1.26099716922803
1.22670942796866
1.26103337040658
1.2797187599365
1.18956166646707
1.28174407285585
1.20702740799347
1.20900056115555
1.20991238649055
1.25035935452494
1.23852201255551
1.22083390015549
1.20101297598343
1.24728469322996
1.24841396930276
1.18470543799871
1.15730072909537
1.16200291834254
1.17929968569027
1.20517382312989
1.17794823729483
1.19371707649966
1.13486455102401
1.15134384202043
1.19927464146832
1.16498208097442
1.13653464153331
1.17412103197912
1.15339975942922
1.16637031161892
1.15161007111783
1.10083540428598
1.11026616546278
1.15043601769791
1.16629704747572
1.17832897455342
1.08002591596566
1.11488538429185
1.14742929723531
1.13336776311806
1.10006529264023
1.11050531646855
1.06059213974924
1.03794047784427
1.05400193597768
1.06839475817269
1.08471239575452
1.07323089950114
1.06211390630331
1.06428924287885
1.04912029298737
1.01726556573943
0.988989273588308
1.03964690458778
1.03648258004616
1.02074522699238
1.03090330943774
1.02378333312854
0.990633698998658
1.00139257409261
0.988129795747036
1.02262734184817
0.999646171318181
1.01663237548142
0.959004272951643
1.00676971859097
0.988227658986812
0.965580399200667
0.949708364712465
0.951381574308375
0.93562339406113
0.953153191419674
0.917215206388751
0.929784188782837
0.931142046965756
0.961351537979161
0.930441419989869
0.932818599014658
0.898524769471239
0.89232974823881
0.902475949016361
0.916944746074465
0.866683160511187
0.906894639549797
0.877775318855566
0.872152239903215
0.873360578736571
0.895194862403483
0.860060282898477
0.860311513953888
0.860611990265799
0.871537721554396
0.876997969402116
0.852074820656658
0.839734924261374
0.855750048290245
0.840729026336434
0.861858484973526
0.823287102898267
0.845065141069422
0.829579349821738
0.814382854274923
0.826881573868212
0.829339039414215
0.786111333177871
0.802963322894142
0.798048894093721
0.816195410779683
0.777514874512096
0.789773995365108
0.788224197139039
0.792069332228353
0.757498928917086
0.784857784086649
0.763166607709727
0.758988471290517
0.756048772053836
0.776246620077165
0.737646941238718
0.759968742775772
0.725002031023815
0.762049124055799
0.757300289743927
0.73753287302484
0.733366673425873
0.731322644834468
0.724065473926663
0.728026625731456
0.711272581540387
0.72930513183973
0.689472326169375
0.727028101334725
0.704997606867554
0.705227892935732
0.69729281604488
0.704982541313559
0.686368426777803
0.684974483551417
0.677970165312463
0.687011109906548
0.686352926181075
0.687073914789306
0.659860648150582
0.668447301549933
0.664896797651773
0.649149876258008
0.645593011295019
0.659364060964983
0.650803809727491
0.652391975284327
0.632954579974765
0.650805487465169
0.636514150541215
0.65085472619199
0.642393564316611
0.64339035204248
0.624669145894669
0.624070818790559
0.610228482132885
0.632773057293669
0.6103748163259
0.619396586520218
0.615237656071956
0.606272950831006
0.591539027064872
0.595531300186805
0.585372394819732
0.604145262758971
0.590246615769507
0.59289594450218
0.588585070314418
0.585466270609372
0.575646177246524
0.575858477850656
0.578607096606437
0.580833982543839
0.562063639399619
0.564550810281447
0.556394106650678
0.566327812343894
0.55828262554904
0.556998198265124
0.546818630637131
0.560582216822057
0.540228640885064
0.55268118419833
0.530036895746984
0.547338135558213
0.535238220274999
0.529481968411499
0.526263495386713
0.543418438643733
0.527150541213218
0.522609604644688
0.524532827295593
0.513077228291476
0.515018417578909
0.505379462770788
0.496196960510455
0.503061947821622
0.501517293749685
0.504596447796675
0.497878989843871
0.507689376623629
0.495262143686848
0.507552905517094
0.482165499461318
0.47666947435802
0.47744083215078
0.485467430396012
0.474714087853917
0.484409958822579
0.472959794985585
0.465707331507904
0.467241396037509
0.474305489896981
0.470280623072009
0.461866836400981
0.45961335447381
0.46802735381849
0.454154439971361
0.456383805381669
0.451897131802601
0.462384490969805
0.455127440045349
0.455835133042312
0.446683521269006
0.451752132152912
0.444908994702444
0.447240554878407
0.440713552818214
0.439339982995485
0.445870215176506
0.447378264931104
0.444030985823484
0.441657599366437
0.438197244790753
0.434646337795048
0.440303042242592
0.437658188156714
0.436447072796382
0.430144864500977
0.422572617780967
0.433166236396816
0.42597481417309
0.439693903989662
0.432253891198127
0.45344022942094
0.437542406346596
0.443273062565155
0.436363655258261
0.443432351491717
0.435462786221018
0.44430506312062
0.446925702900853
0.453328873385096
0.455499848131091
0.464200802435052
0.456870657440835
0.447719676455745
0.458779590565503
0.46563175884401
0.468692565026721
0.470209436547149
0.474487477238357
0.479898881322483
0.469109962479232
0.48659106813666
0.478352291064159
0.468985601475775
0.474474381555096
0.487556195101593
0.489610889199674
0.502981555565369
0.490786943188706
0.498859935811836
0.504253624703548
0.508864917715236
0.505076636869789
0.517597846667158
0.508605683955282
0.514151038243889
0.499822867318508
0.525649500996858
0.507084109061502
0.52934683973265
0.529954381396118
0.526430731891704
0.525956994474243
0.531144100358888
0.533070425191748
0.550547746571866
0.551764736328743
0.556732538733226
0.540955825080815
0.56632808230177
0.546191762509033
0.570320309374571
0.564353789552528
0.578061266801606
0.573324659088575
0.578111443512693
0.576188369587384
0.575666676708677
0.58068871113501
0.589162043032776
0.596565266308437
0.597613609484213
0.604192179866585
0.612970725628647
0.60119941242952
0.618709151939929
0.603042837402849
0.616494964471756
0.611636629190884
0.635773048847105
0.611594589072443
0.605931879805796
0.603978865076283
0.626464561798187
0.592148779476451
0.613326406400886
0.60043772074487
0.631117703736056
0.610067943612863
0.598152408774163
0.606678360603869
0.625044217607155
0.599062437984907
0.61919581711564
0.610548776443532
0.604088821683076
0.601299013297333
0.600010244204991
0.594339386238132
0.615742400689069
0.597810076341396
0.607940155221119
0.596896901769922
0.612851933872189
0.587488564094677
0.623199891948215
0.594430204403516
0.618202213520277
0.598880945673124
0.60203792453356
0.60571317094822
0.619156434097894
0.602037868228445
0.611099867164199
0.592889357294845
0.616418238231654
0.599848825399425
0.607891316193242
0.604267973926345
0.612053061643262
0.614298243053823
0.599588487957746
0.592979267887517
0.613370486776245
0.596489719533901
0.617761922799751
0.599581335903802
0.61132193722955
0.594029498345886
0.615690311290994
0.595266359979618
0.595393154174287
0.592440613902611
0.604268749799074
0.587430804970438
0.588756502144628
0.58411567073599
0.590612808662658
0.586793073100666
0.581555422518194
0.576502723148604
0.575715836173658
0.557069486463779
0.559648651341449
0.548059769941829
0.562175922211953
0.546708671760923
0.560323992292661
0.540510204296572
0.551905900392012
0.529602085840907
0.540396016669306
0.529398266018435
0.528706121740167
0.508865263546771
0.530398611110553
0.518270863505131
0.518984924525322
0.503488818772543
0.493647791915768
0.498752474355649
0.502013831318423
0.47807454150729
0.493910133955255
0.481479175233023
0.481059061991857
0.477675898882516
0.482758689773018
0.4713150977151
0.461905709183762
0.459707933230231
0.458014018647407
0.452555945718883
0.452534108704815
0.448635901817804
0.444562367820108
0.430056343472414
0.441958275179019
0.438599272678452
0.434875350049467
0.428654449574904
0.435415544935985
0.427473558734916
0.433038335925883
0.423363331061783
0.428065107564453
0.416709701447664
0.420120704188349
0.40261013085613
0.410910962894914
0.405030560462424
0.408483226353362
0.407617596027406
0.403556701078231
0.396397027482653
0.402113121444577
0.392812494748406
0.396001853953186
0.39130796731367
0.387890517206462
0.386798175287522
0.389243785434158
0.386397737113864
0.388126010051455
0.381964347558131
0.382822954916198
0.374283078791073
0.384528671146584
0.372278153777293
0.372649160967176
0.367961103786195
0.369978707893697
0.369659553691859
0.376705027761244
0.3653596516911
0.363317515617227
0.367712616132362
0.368141784660656
0.36686322350062
0.360768833416065
0.352316900344568
0.365827140748354
0.355189350080249
0.354902509012698
0.353834693031671
0.355350903536477
0.35332033489574
0.354816275827938
0.34594965654467
0.345167212442404
0.339325023996433
0.348729573863894
0.346846420171356
0.343886279758418
0.341891931517756
0.345492015590291
0.33532581061074
0.344355190374185
0.336643288604343
0.338933658587252
0.330968581631185
0.334012213125295
0.328459607011351
0.334503590314535
0.325986713292964
0.335442901597443
0.322833661977727
0.332497126653801
0.323639827654839
0.330458997048423
0.324613462530032
0.325582433932527
0.31969509207833
0.324068847705351
0.31826778123054
0.316575430432712
0.310851916652824
0.324874803331483
0.320769067566222
0.317884222575811
0.310529242578687
0.316935419890335
0.311315116169644
0.320688075081455
0.317893398977777
0.310283408026044
0.311513534654804
0.316115555559659
0.309296628794425
0.321063141180242
0.302271023938401
0.307534470567978
0.307691008685305
0.314393140026417
0.308048217293912
0.305955561103163
0.3026610299712
0.310202596706672
0.303385123165676
0.310827720298335
0.302159542357232
0.304528590297599
0.303744992460715
0.301639359287228
0.299096556228251
0.306837186744465
0.298084062885666
0.30093444278097
0.30583234680477
0.299389437925198
0.299660338150933
0.300647879519306
0.30024798108878
0.296578583987098
0.300380503342898
0.293849438308646
0.295538836128731
0.306954164271098
0.290203168873909
0.292651733174973
0.293849952790918
0.293240838859073
0.290790849319053
0.289180295910454
0.28469021868594
0.298120066537574
0.285511398407062
0.295182869884763
0.285462492059929
0.294096229303012
0.287472409052711
0.290134732277596
0.284555679687662
0.284285118706681
0.279870726764591
0.287887815393623
0.284271456635063
0.278955800534422
0.282996787091788
0.279442098137715
0.278494281366419
0.282449058905497
0.281350680302774
0.281525211115043
0.276889452290967
0.287908323375419
0.278318228328864
0.282085730701344
0.276420070910397
0.276846770249009
0.274390955572945
0.280675621235416
0.266139305761283
0.278144219299113
0.271743879495748
0.275256345923653
0.264037596818023
0.273853988536888
0.266608084190284
0.265940029174186
0.26789835755933
0.264612843981662
0.267102951546024
0.264551584544615
0.26747190366176
0.268257007971627
0.257643845136978
0.26048104283655
0.261280527871886
0.262956446309618
0.261139458346192
0.262119002146009
0.258240715264358
0.256109007320846
0.252448620225028
0.256767513153732
0.257118370116996
0.253570099353954
0.249951937980344
0.255925253359949
0.249903454212289
0.25559295989958
0.251886866237768
0.254340996964994
0.244101978142695
0.249950886070863
0.242491523193062
0.253405643964571
0.24271724022555
0.247335597065892
0.242984808635855
0.240375399339616
0.235082701813901
0.239469049695992
0.241930487758552
0.240577790875894
0.239094420697648
0.238139963468199
0.234781162343213
0.235289171071799
0.23436582666931
0.23478419935386
0.225009469909304
0.229255783335617
0.225950972672683
0.224117878199204
0.227263054060125
0.225011055026736
0.223080922526865
0.228424588770315
0.219589573489389
0.21955949510958
0.219320021191116
0.22458032551561
0.221372259446925
0.221960448485502
0.215302667616141
0.217515508161172
0.21479863074025
0.218896680543942
0.21432145408364
0.211576102214435
0.214444709382534
0.214778360616776
0.214039731110106
0.213411901023521
0.209460284287523
0.215050914993869
0.20740125174906
0.211094358124888
0.210835411661529
0.210140761006586
0.206448719212816
0.204986008763117
0.203985957958483
0.205886961049637
0.198571438255992
0.210667531448659
0.2028328155149
0.200193310418038
0.200257692589029
0.20039399057517
0.196626744742281
0.196456372814116
0.198710769829414
0.198846871539232
0.199406102980063
0.1963865101426
0.193855333035292
0.193670573237307
0.194506794308154
0.192211857800953
0.192343060371207
0.192707393546071
0.187774231870861
0.19052674318462
0.19092807126077
0.190793289264233
0.186223083719583
0.188759530252738
0.186608971811945
0.189055977731052
0.191428687354275
0.184831124478571
0.181659293040094
0.184264375010016
0.182771065395534
0.184704522230868
0.185503555447299
0.181302948423779
0.18117998865122
0.180122577152665
0.176901488459969
0.183534368307601
0.18098371370543
0.18208589848465
0.180689589480297
0.17576618333517
0.176818292875536
0.179215070725882
0.182067866817808
0.177302163879833
0.177467035825337
0.177474211406422
0.176473838810061
0.178807324959424
0.171948652071482
0.173822063139127
0.173782559524167
0.18024023514586
0.172117691907664
0.1787140379821
0.172764679200918
0.173994550499312
0.170903679152909
0.169702226539889
0.172881530786261
0.173549592010653
0.167840323644438
0.169055410963862
0.169557806355274
0.173750909775542
0.165109811138245
0.167357191239826
0.16731168937276
0.167268040311039
0.165950852482424
0.168085768256454
0.169771022736371
0.167409448362079
0.164886371488775
0.165170206613691
0.164896173224159
0.165657740898381
0.160149128268037
0.162057687664765
0.163965834226658
0.160458735598807
0.159601998336346
0.16354275667072
0.165094023584068
0.163348781070295
0.164974908401457
0.159115975954323
0.158608594190029
0.163167369593023
0.156494047484981
0.160042629298341
0.15837418562157
0.161124382054559
0.158389677006181
0.158641147254157
0.158196582414833
0.157905820260814
0.152609926178932
0.157232221389149
0.15392484840239
0.156705139719139
0.154111011123896
0.153984778977851
0.156160381173931
0.156912825999924
0.153262840166839
0.15205420433426
0.151359980295262
0.150797608238707
0.150458256722626
0.151201471421703
0.152358854476989
0.150852010339552
0.150370104727289
0.151393547136016
0.148734870066904
0.152882054895264
0.148570416027901
0.151763367163288
0.146530293418251
0.149618596012433
0.146060057409386
0.148976840388692
0.149341211780319
0.149563147053638
0.148585989997837
0.143741568433908
0.142477571829045
0.14763227554447
0.144529232525603
0.142528168605084
0.14417019132848
0.143535434613802
0.141929263221858
0.146804264470665
0.140912871877808
0.142709299711305
0.144311877905823
0.140536380806374
0.136381456529719
0.140530372152611
0.138288254295247
0.139178015830402
0.134223654712382
0.138783186881772
0.136743533710923
0.135230591855222
0.134175659669605
0.134986282467064
0.136871760494139
0.133232215790179
0.13538420603708
0.135446980139692
0.134559119406317
0.132573459952677
0.127165744811972
0.131240000850296
0.129671866180715
0.125748122587771
0.128789678628019
0.128565671465889
0.126684280504839
0.126320173189745
0.124279923908547
0.129382563357594
0.126890452676808
0.127339635475061
0.122855360972589
0.124326221693367
0.1247984385432
0.123349035690308
0.122449243419317
0.124765036088859
0.12538618601651
0.123682057427035
0.121728015293019
0.121131778490046
0.119430801507666
0.121077112118736
0.117354889536371
0.117284504000445
0.118810449825153
0.119619656282424
0.116647865026086
0.117967268052295
0.112366106459517
0.11479213546339
0.116445148484347
0.114698849520032
0.1148254147426
0.115804372748077
0.113484143084509
0.111941068169012
0.112772708500667
0.113233070118032
0.11170804004464
0.111540548329359
0.110210557578746
0.111203841990584
0.109600592958862
0.108087624204427
0.107786828652472
0.111958668954221
0.105039662191423
0.105420283383877
0.103849368157875
0.103708207997211
0.104402296638553
0.104084197304056
0.103162296097227
0.105900472332635
0.10278155776876
0.105100509846621
0.103545958961616
0.104491143235498
0.103319742944324
0.105244284087234
0.10238752189727
0.100387619994749
0.0985298392310944
0.101510784392649
0.100200517870412
0.101239819150512
0.100973784278527
0.0984648230476072
0.0973505066246448
0.0986097571806509
0.0973310596380368
0.0977557057175869
0.0973400164268955
0.0988874080626379
0.0964990509757349
0.0945019880350901
0.0940297779684403
0.0959630474975228
0.0964159422059754
0.0956402644333872
0.0940968579017463
0.0966220988647539
0.095147160376863
0.094784592528064
0.0930227064264206
0.0956576075199494
0.0944237395114294
0.0920868907857052
0.0917195624570004
0.0943809738257119
0.0917419738984135
0.0922836629128539
0.089182924507318
0.0934262009913672
0.0947353804806171
0.0951763641022242
0.0876025141073777
0.0929972015038967
0.0892783680854097
0.090262372087213
0.0937439857342424
0.0906229274836988
0.0861755798305733
0.0897389263327888
0.0851192089146475
0.0865131566310783
0.084312493731282
0.0882656525540984
0.0911700765993818
0.095638013446823
0.0854314693242952
0.0846384664808279
0.0847228777072265
0.0829527157836228
0.0883421843754979
0.0945766971050861
0.0833571234855333
0.0918723332766863
0.0864409840008933
0.0875836910821404
0.088132411535654
0.0858740951897863
0.0833134461468751
0.0857169397680432
0.080992024183706
0.0874418883277681
0.0845817701945259
0.0848124282106028
0.0830515037161528
0.0842809547605819
0.0804625452006773
0.0900365748014845
0.0802505613763366
0.0830071261410837
0.0839421495403732
0.083627246819115
0.0787306795122626
0.0846756206873262
0.0793428816361802
0.0846812589675832
0.0779948126258684
0.079455066514319
0.0799713323735528
0.0853413809173745
0.0812102105055955
0.0817454168856405
0.0746928062559497
0.0794364764320462
0.0819050072159649
0.0801169015131605
0.0800516825579387
0.0785998907806315
0.0826101293829165
0.0755893813097092
0.0828932388534391
0.0748807788092566
0.0843579401316574
0.0763219523515841
0.0854048862254724
0.0732794499232454
0.0875215781032025
0.0712835008915424
0.0849538788756685
0.074903439812347
0.0838824348734224
0.07636603631761
0.0814423843359343
0.0772442028829095
0.0763931269460962
0.0769461931920755
0.0768022254976587
0.0788772470449399
0.0758708141153931
0.0799918698679715
0.0765593368882401
0.0775165197022019
0.0800279849707289
0.0759722277186288
0.0803757504093559
0.0781870951405179
0.0781888499181289
0.075222251994968
0.0744817115103615
0.0754024666238013
0.07456420620714
0.075373386670756
0.0760708930312531
0.0750258471218883
0.0720577430256683
0.0728183753404325
0.0767187773217029
0.0773774657812368
0.0759883284224318
0.0765783479427085
0.0773456031967411
0.074674944487701
0.0755694922269442
0.0763359928745598
0.078158991042931
0.0739053135379262
0.0736287144265704
0.0769997400258255
0.0757288113866953
0.0755661903834302
0.0750001481496734
0.0770744198018745
0.0767635066888611
0.0742437201741222
0.0767646849676903
0.0755193403461367
0.0762220095436947
0.075436510656466
0.0734213882460996
0.074767013546323
0.0766733823642027
0.0728791045922672
0.0745825736936046
0.0756073326547917
0.0751370562551768
0.0728757295390915
0.07526606113682
0.0781877890845806
0.0763574551909156
0.074611236019609
0.0753032435090033
0.0736029734116442
0.0753412887468337
0.0730016933974925
0.0749501465253564
0.0765212570687188
0.0760169609386876
0.0764402937285038
0.0724642035081798
0.073463841516039
0.0734142257902186
0.0740062628541705
0.0752761533356615
0.0748908320941778
0.0728047076505341
0.0763103763899165
0.0743113910863536
0.0751079833991844
0.0737726944145918
0.0725325868492066
0.0741703224501609
0.0728801866784475
0.0762447627890139
0.0776600442164821
0.0723045135256828
0.0739087872293314
0.0747580355465636
0.0748108938326113
0.0784603955251195
0.074341881519528
0.0757562927139767
0.0773159176047658
0.0757823124389517
0.0758477291962881
0.0737432633167094
0.0750629668521348
0.0752741336028363
0.0772659819553075
0.0743078719065697
0.0724632512163372
0.0747327790242559
0.0757498262220271
0.0765874106542485
0.0763010142727642
0.0751953782245013
0.0762621527101996
0.0759835287693114
0.0740287782519602
0.0771293874826763
0.0796587386871765
0.0775870862528879
0.0774114601622404
0.0761230062604408
0.0763285701588179
0.0764382541074049
0.0792785574462355
0.0788750550085428
0.0779798132904082
0.0772691754839187
0.0762345631788129
0.0780744780040325
0.0779241282237091
0.075009297043132
0.0768674914167338
0.0772310887985599
0.0768240593011948
0.07891032286731
0.0787846874830172
0.080734122483728
0.0780150291220923
0.0789857061107245
0.078878849806154
0.0798758054487724
0.0786096106942417
0.0775449694141457
0.079307603857625
0.079205570361844
0.0799295355792799
0.0767035184929869
0.076463521875277
0.0795698675874969
0.0807961575840886
0.0805038247933448
0.0764589235537663
0.0774832240111378
0.0781630296610386
0.0794209090966009
0.0819117181570876
0.0792865188222618
0.0779794745380672
0.0808191885879394
0.0834242625445632
0.0797755137980278
0.0802279065105588
0.0797883509703088
0.0789337526773744
0.0799934654079925
0.0783015272080066
0.0830125708331859
0.0801925535646907
0.0798244179952266
0.0817275370321642
0.0797261696311796
0.0815743241875518
0.0806196768959268
0.0823387606691011
0.0839720152365001
0.0831543145128898
0.0821244315847686
0.0827672435789513
0.0844364911101257
0.0805971680817315
0.0799033564252326
0.0818928102447801
0.0842397201873993
0.0821336376360819
0.0812876733409958
0.0829813737810631
0.0817913779633753
0.0810797140363398
0.0827457205023468
0.0808936814672687
0.0829127232434736
0.0804386477427849
0.0795681242271915
0.0781029096469086
0.0801563398252579
0.0807098398591808
0.0800713315322733
0.0820470850784926
0.0792412956865699
0.0803166842816716
0.0825091065556586
0.0805401774369941
0.0783161227156435
0.0781212008950981
0.0790656637671129
0.0773691423282816
0.0778468833048491
0.0801201852906366
0.0784037772713887
0.077102110016799
0.0802256342725074
0.0791200302893829
0.0787001719477025
0.0784192534983472
0.0806412280097133
0.0787561830723449
0.0791829359159373
0.0758207856948323
0.0755276949995659
0.0798244575461225
0.0748959671020923
0.0743748193192639
0.07573285184947
0.0762237319402303
0.0775651025309992
0.0776403645705888
0.0765296352171111
0.0785086491059438
0.0755396566763288
0.0767578843020896
0.0759085271393829
0.0761185567405936
0.0781146273341866
0.0759356556312835
0.0758396331601332
0.0780332482594445
0.0748111081872926
0.0751740221514552
0.0746662731602205
0.0801928071590907
0.0740170462271741
0.0745867004469928
0.0760559667479913
0.0770316737482504
0.076465072025558
0.0751207946945464
0.0761186715518082
0.074469806896652
0.0760767281064523
0.0739165798384058
0.0731468132043641
0.0724268851304466
0.0746990868903826
0.0748874390028827
0.073096319286525
0.0756718398054488
0.0750956432749161
0.0742502404207916
0.0725317382732262
0.074450918560816
0.0764169998659554
0.0738324709861509
0.0765660109701701
0.0749585340420382
0.0740186807878721
0.072923824576843
0.0725464105318845
0.0745444761278152
0.0738595356893255
0.0735989893270133
0.0771450451136241
0.0739896701509208
0.074015658922791
0.0727202438323262
0.0732855712262912
0.0737830265519349
0.0736635810383681
0.0724026968210157
0.0735854125255536
0.0758918717318854
0.075783979351424
0.0739040471162881
0.0713621365217712
0.0732394608190654
0.0740315157701977
0.075181230823627
0.0727056244334312
0.0704431431685194
0.0739738533859345
0.0710047332826274
0.0722502273228201
0.0711521115936835
0.0738660709194819
0.0746096599705803
0.073354288398175
0.070832276636897
0.071513969485234
0.0706017357373595
0.0711079018658898
0.0708404775571011
0.0735674846150982
0.0707247231625615
0.0718773942334946
0.0726651347826966
0.0715298135538237
0.0716940819093802
0.0713479869886
0.0684141866648248
0.0696265603887399
0.0692306745433304
0.0696948241174004
0.0691560833241563
0.0671899835117533
0.0683785683138588
0.0681982823306265
0.0684338890410538
0.0673213775571481
0.0663193770558774
0.0717777654598533
0.0663638074201391
0.0691737331059464
0.0677318760003765
0.0670891290975735
0.0667825823319708
0.0663196135162771
0.0655174079733857
0.0660321569014281
0.0685830160722685
0.0666861946121023
0.0633555789438178
0.0663916998741411
0.0664665135349467
0.0647372016179863
0.0648267733927189
0.0661155720609767
0.0661540650510217
0.063918857780417
0.0627062262527881
0.0658771926423666
0.0642160190984733
0.0648638598254816
0.06342805296956
0.0600998867019913
0.0639336002611176
0.0639473302899517
0.0619652433390637
0.0590017928650254
0.0629327985978702
0.0622315939318809
0.0656141629512071
0.0616770437616709
0.0600750172359259
0.0609821402107141
0.0588208600303553
0.0607186984839568
0.0602140174796296
0.0598166747577228
0.0609284590030302
0.0603527715594355
0.0602292051656296
0.0613568129462174
0.057422932659521
0.0629020965745726
0.0588317698514814
0.0600622974974513
0.0614243737543208
0.0600114449801974
0.0601484615162146
0.0611002756238402
0.0575993310916124
0.0602351490870213
0.0599772348426771
0.0598930170556184
0.0567367656662743
0.0591886865271151
0.059581312762936
0.0621517474572321
0.0561124685900752
0.0575034800010936
0.0578477338854813
0.0605061241661368
0.0565532642218581
0.0599074078055487
0.0602877433546828
0.0570748707334921
0.0580742605823444
0.0614413046349366
0.0573995548613481
0.0557742078029183
0.0602359121855023
0.0564137621517321
0.059503268831342
0.0579424036552834
0.0577128807534085
0.0567431374029782
0.0578901290361331
0.0566956873697357
0.0554672946829918
0.0559475654310377
0.0569427332797647
0.0594324852401219
0.0559480527934927
0.058582162695665
0.0570928457366088
0.0540124770252006
0.0551568071876317
0.0578171790115751
0.0554146512054327
0.0529836996437351
0.0583445838853607
0.0530430114319571
0.0565446213191549
0.0539747445881426
0.0560996305778975
0.0549215659782675
0.0571200468929141
0.0575112557138543
0.0553600033288588
0.0540120030340766
0.0523029003781138
0.0540977229049533
0.0546334667692845
0.0557386197882401
0.0550937670369335
0.0554558699009231
0.0540611990354952
0.0564077560222319
0.0546931072415479
0.056946235103783
0.0572220061334822
0.0509320646763267
0.0559844485716918
0.0558893023203596
0.0550466886380563
0.0542917076055311
0.0543665964511671
0.057198515211013
0.0549879706011596
0.0564258480938283
0.0545825325444138
0.0581338764096298
0.0525695712953704
0.0561278865209494
0.0558537350603172
0.056477391843121
0.0514603189316769
0.0541304918625539
0.0544044912154905
0.0549017441596602
0.0541920361338048
0.0544845437875496
0.0559422339244759
0.055284929688187
0.0545370660957514
0.058004076538956
0.0550175479971991
0.0581354421321387
0.0568894935349639
0.0556909012915305
0.0534063457190177
0.0559366439074879
0.0536676643923973
0.0568369200945218
0.0553166386636809
0.0552270221389034
0.0534096181155908
0.0553345010961615
0.0551478389963274
0.0542737369926903
0.0552081329539767
0.0529239627592199
0.052767823829524
0.0546748475468449
0.0553112031452669
0.052531079735551
0.0551042459928379
0.0533055362011325
0.0524166297600662
0.0549688851346287
0.055111593581852
0.054656022838738
0.0568248203646835
0.0546050723830249
0.0534114877618524
0.0549185418549604
0.056007483533468
0.0567603163461072
0.0554573501512206
0.0543505648699898
0.0560573445511552
0.0526873049819591
0.0545278765306783
0.0550633069284347
0.0535821260362533
0.0528781637117951
0.0558008551679584
0.0550637836617766
0.0545886456766658
0.0554876179381724
0.0548239583114565
0.0539275635582214
0.0536800176511924
0.0524861828637884
0.0538916862389674
0.0547357749733299
0.0560644580496881
0.053846777449779
0.0557249889749066
0.0551954908087254
0.0548185261031115
0.054379926436335
0.0592220677378746
0.0570906872165905
0.0540313925992834
0.0542260369618648
0.0551031756540139
0.0559375327805578
0.0581412921107666
0.0565153553572921
0.0583445146561129
0.0535255269098893
0.0572720674680085
0.0572010944194106
0.0555123639363554
0.0566980061692096
0.0532456207151229
0.0549529839978098
0.0604220048168435
0.0598516439051311
0.0564719818875573
0.0572368763956566
0.0581857351534193
0.0579962353332671
0.059735469342204
0.0578713975695362
0.0574725923710124
0.0592719843048783
0.0574560415729094
0.0588309050089053
0.0575640989357007
0.060549765083462
0.0560846107929186
0.059485036894891
0.0569853638376699
0.0598362873978532
0.0581478455144067
0.0598652349311861
0.0580442176723427
0.0604002710498629
0.0612643177490197
0.0615040980731692
0.0607163997865033
0.0602339567840908
0.0596131153431531
0.060638471378277
0.0590340239504541
0.0607295293828304
0.0637112940830353
0.0624501093442698
0.0642103768044595
0.0667114413308154
0.062961998035394
0.0621326722493977
0.0636755267487499
0.0633806804392238
0.060595198326195
0.0687792664980384
0.0633820860017935
0.0632351918527158
0.0656334240426471
0.0647627351475913
0.0633859126197828
0.0654863037510166
0.0654441849663096
0.0614325297162741
0.0667844147781865
0.0653162468545234
0.0652878411372004
0.0643915945782887
0.068717606550092
0.0630850385324777
0.0719396969858331
0.0679120642767117
0.0713715575598707
0.0675227557042631
0.0725837165405488
0.0702190274875193
0.0688539051015988
0.0702784484299679
0.0713930278945275
0.0747182336064322
0.0683748037917662
0.0686753857060764
0.0720588023565342
0.0709901027282584
0.0772233365922206
0.0720134171632901
0.0752092661230787
0.0728398978190989
0.0740671847123747
0.0817594888437986
0.0752123881238449
0.0742980122649385
0.0742631985926126
0.0740315407107016
0.0809189198548384
0.0801054701801658
0.0802379359178096
0.0779584894959224
0.0776477720556967
0.0758327781478865
0.0923084447675313
0.0819106557666194
0.0835963609816795
0.0865204667262401
0.0902300227675584
0.0890733290888376
0.0859049732110622
0.085784927749084
0.0911469447389643
0.0939970963503247
0.0944113268549978
0.0893055943648921
0.0972802462203635
0.103696562157876
0.0950237471263082
0.0987888596206973
0.0988526566614529
0.0985779000715567
0.1004679173114
0.113850267673243
0.109716461480122
0.106563990528197
0.107721000338648
0.117061829674141
0.11073359457824
0.112196205980329
0.116727875048109
0.11336189641426
0.113646954925041
0.11156999191729
0.119094837993688
0.121404287268859
0.122973233673679
0.12080238539914
0.122792182030291
0.127605060784584
0.12933348238922
0.134870813159596
0.126116232019742
0.140552537165418
0.131185393590213
0.134302073039826
0.134777627786679
0.13722887181915
0.141784781920112
0.142601510906253
0.141121329802317
0.142309386364148
0.151245375562219
0.149408858961369
0.15266345261674
0.160454704149978
0.159816288991661
0.162993310985441
0.156727211612366
0.218896219722987
0.177617519887481
0.182241736405806
0.186357167526254
0.19519799574997
0.221996715486317
0.212753257974462
0.222401877286953
0.228066314360984
0.232208165936849
0.246374166546959
0.252392810965947
0.256763044366105
0.267526802035094
0.279436437148199
0.274582543834428
0.291045727776218
0.311593174170512
0.322728056300178
0.326578644307681
0.326406890176388
0.337953246780866
0.352163876132861
0.350839478011437
0.369526229404671
0.373193736798707
0.374605133471639
0.40747579410748
0.40440489439251
0.408262451051725
0.425799069001909
0.441921793315656
0.443061335612716
0.466762769002288
0.469679236984343
0.466959308015653
0.483462931009895
0.489678750047513
0.500360552368991
0.510597433115861
0.53388690118397
0.533347764073117
0.548808302033072
0.542752815062769
0.560437450437397
0.559970868492645
0.573160996233714
0.572453602530037
0.577040493204193
0.576477934192641
0.624624761308238
0.690625422493303
0.609924748983914
0.591689294610082
0.600797455536889
0.594628822950381
0.62537820081901
0.593551004700007
0.600510598972793
0.616180035036447
0.609790456831077
0.61064048724349
0.615042854725314
0.606776432884353
0.610241412777898
0.614153653481277
0.60490309489291
0.60695441269127
0.604800161308859
0.634499323007964
0.679678734977706
0.59776955582208
0.623642856686283
0.605008760126479
0.61911134593009
0.595455077624154
0.616750428548681
0.60238877773718
0.607802189231846
0.591622484082992
0.587883192405419
0.566260973995604
0.594291354497194
0.574055854407696
0.552274810449255
0.542028543455293
0.531089878431632
0.534741073192134
0.530535745303443
0.535698451864531
0.55854336561853
0.515142846054535
0.499882195280122
0.486642452514732
0.493593283559311
0.486829269756936
0.492432590931955
0.478459411726638
0.484068178131897
0.474281826998006
0.474715875860225
0.467377712960822
0.46883011147893
0.455199339962302
0.465284292195735
0.460675107087579
0.458074641293683
0.459337985102376
0.460598895865691
0.455077577942065
0.456616890809991
0.451397897232906
0.459633408559386
0.447355060325114
0.451474724218101
0.449678956784027
0.45232642620967
0.45207004975504
0.452926923263563
0.44562863519297
0.443341245810181
0.455665079051495
0.453076096669046
0.448112169386955
0.457104803124176
0.451628409812951
0.455526406814035
0.45217560475202
0.448102976598495
0.453083045428252
0.446217243121738
0.445264855563642
0.447065398762284
0.457659728870165
0.455902911611669
0.438090890343143
0.452960827979196
0.4379306758926
0.43456007187843
0.434350590948179
0.455312541593051
0.443428076420323
0.437837734601728
0.433075876260106
0.43345038606392
0.437557919358333
0.437214695899815
0.428575503675469
0.433642838769694
0.418184193459727
0.419392292344111
0.443582737925945
0.441539997262246
0.45098829475123
0.433352520563763
0.425297112638022
0.429651062886841
0.445716191855111
0.429934249984973
0.432443047602863
0.421791779702365
0.431612843729311
0.440914827052374
0.429347953295855
0.428602896367942
0.422689284188912
0.435230675754909
0.441522394240463
0.422870728292025
0.419280890752613
0.436617833507686
0.41365735241792
0.423454140626373
0.438731100805601
0.417411833300263
0.39883421793798
0.410850639703999
0.406113274292692
0.400828869890284
0.422080107406588
0.401519284478719
0.394424281656188
0.387157640231218
0.380377850512915
0.384519888883782
0.379099916028234
0.375008254006811
0.364246210603164
0.380009298232242
0.36061712970068
0.358785036780678
0.354971781505941
0.361228809054197
0.366126064246127
0.354968946896102
0.341032805598469
0.34974880246924
0.354498812233823
0.342099304996311
0.348929054666074
0.336478983392156
0.32727564230195
0.335548898328817
0.3220338070558
0.314593057762603
0.31574875734848
0.313402191994289
0.327620993572944
0.325990361465979
0.316737464674966
0.303966034017296
0.296792975730562
0.299258449005636
0.296831545733539
0.295843356819317
0.284465033599039
0.293609847220675
0.292602299452658
0.292569032181627
0.313798051568981
0.29416599039793
0.292609873231703
0.289744600262134
0.291091255911988
0.297903919165069
0.296176410543921
0.309442136889285
0.299577400105676
0.299872027556254
0.318900065304298
0.304723333370259
0.307767668114261
0.31335113638172
0.322524631891641
0.325191698617456
0.335061293896535
0.339647435633368
0.340220929865562
0.346810299326049
0.353275971227608
0.360841456564537
0.378938249927863
0.370746217903932
0.389564468513301
0.39178948985692
0.409705945840291
0.411390671649784
0.412158484867867
0.421775488617873
0.426095945180497
0.438773023578941
0.438707501148883
0.447253015032063
0.467125061267387
0.45624686748223
0.465400340455372
0.467367142537465
0.477851029523111
0.476786779824868
0.484972150763036
0.494908448437618
0.504833106542006
0.509439645182989
0.502297333847257
0.507559691113207
0.497733501241851
0.507277190097821
0.507045841465939
0.513205550356437
0.52261251431085
0.515644802349791
0.526665654938964
0.517360091429677
0.522821047814376
0.530764274005437
0.525985397721077
0.537363979735469
0.537071323050506
0.542737610217638
0.544036596171506
0.540948080487192
0.55275608655512
0.554560787134876
0.587324891020832
0.562588887829651
0.562281153164074
0.578324143089194
0.577049450546661
0.580540828194654
0.573398530066945
0.589652471824044
0.599534130207967
0.58863767714961
0.598858458904117
0.606078063817044
0.603994597773252
0.607826026869187
0.617329358909479
0.611704258716859
0.621196924920626
0.611665869945183
0.629142511556387
0.662302048338682
0.627687623971079
0.636980200868252
0.642866140059977
0.646209590957325
0.645853996216085
0.648045386651717
0.64928045411674
0.654795043329839
0.652205049023954
0.655490358967511
0.655186003568703
0.64643349818715
0.650054374580227
0.647141184899394
0.659044192035643
0.65646380732434
0.65512678429426
0.657118952657856
0.650829103045236
0.649809562799434
0.662544373025445
0.663930750042305
0.65324832661817
0.650410250678713
0.642509726518375
0.659701564038076
0.665876188625951
0.655229655328893
0.650670646733133
0.650613524113366
0.657225561122914
0.656418970385579
0.646414463286355
0.658373199712334
0.659152073553816
0.679978837580768
0.675404281532083
0.675895454453177
0.67609936815852
0.67675345731194
0.668606174275186
0.671668295516529
0.684237953906219
0.677151274032083
0.676150283095274
0.684806057614974
0.681415648630271
0.681050325988773
0.686922033027779
0.674613948716304
0.674883764059887
0.667145144987054
0.667933535003313
0.677557264234991
0.673238102285548
0.663495880384053
0.65292359101773
0.649559808374863
0.647532352339618
0.650474725431478
0.633233829176131
0.630575997998042
0.628458072276093
0.619868433643522
0.627992195262065
0.628742019517161
0.618220685654262
0.613355863439495
0.613144727967938
0.605370018317618
0.598598906118379
0.593634731698211
0.599550069306226
0.594404110655652
0.591284608607739
0.590224943200507
0.591689563017976
0.590055639195665
0.584488210258433
0.585796864225615
0.585634389764993
0.584449084172717
0.581608135149116
0.584112551280523
0.59039803299075
0.587018362853672
0.587669484339159
0.591056152196034
0.584048222930966
0.582902579576842
0.58624347949662
0.58176530000118
0.58426378308761
0.578016208782852
0.578866822554544
0.580963757967522
0.586384184255241
0.581620779328003
0.576133220714496
0.57979440922633
0.581537979552381
0.584933136972093
0.581364275143264
0.575699655174587
0.578675130282075
0.575894773280963
0.585065531786041
0.577954658744348
0.577231742641592
0.582855575691235
0.584576405129052
0.588089178369208
0.582116342237855
0.5759745248561
0.579918834572238
0.579536497978327
0.579239034126281
0.576574043947434
0.580950309993457
0.578134605779653
0.581169955475309
0.582103491699503
0.57238741484278
0.571628214867602
0.570413376206349
0.568698628088551
0.561970815119016
0.55912006773626
0.554296627349683
0.546881831906544
0.542616527079581
0.536013276174209
0.531330586183112
0.531066059434746
0.526339617280657
0.521645777555839
0.518669827491314
0.516183346117316
0.516746400009734
0.513591230751988
0.51112923598584
0.508883415284907
0.505900755512478
0.503193497198331
0.501796174555723
0.500174940261046
0.501436247988648
0.499940119511014
0.498405781570943
0.501990779563228
0.502371782653611
0.501972622154126
0.504497391156557
0.501399063913669
0.50673679088321
0.503231011287184
0.502152329714871
0.511786533722925
0.509498034193291
0.514175134377677
0.516354121209188
0.51526022584032
0.517158834103391
0.518819790832188
0.522465108355816
0.520802391171802
0.528816969371581
0.531179124397015
0.532323920260921
0.531646230611599
0.531226239906355
0.535094053816848
0.535008128010619
0.534758524489903
0.5319972762313
0.53173853795457
0.527677687167343
0.53274520086605
0.532727163727556
0.527354698651522
0.527900947193869
0.523198341248765
0.52726989541331
0.524149291579631
0.518848527514525
0.523318675010716
0.522028423884242
0.521406746736628
0.520442232189242
0.519284156814964
0.517916146279115
0.507345821971833
0.509178613457741
0.509132437677758
0.513042416161309
0.509269375053745
0.507456414729425
0.504004983721561
0.505759625979463
0.506554696706584
0.501721820499275
0.496214096126244
0.496497537151674
0.498429832954211
0.496657401469408
0.494266594617449
0.494406707393975
0.488871025603844
0.486851446152274
0.485332213348051
0.482017291390847
0.482559663488002
0.480201430298075
0.475670468613774
0.479059296127198
0.471971772178143
0.468104667902866
0.463987968544827
0.464425117872423
0.457912711338457
0.450974071977431
0.450450955074905
0.44869021850259
0.444198444932553
0.440049638153592
0.441065884132758
0.436590393148451
0.432375286205026
0.432857914240377
0.427539404381341
0.430335547887274
0.428956988981285
0.426367747696214
0.424757034087419
0.42455332646898
0.424680691843929
0.422076359244621
0.416376618123227
0.414479486352309
0.412049304272544
0.40667403219183
0.401585684338771
0.399704199460265
0.395094311452319
0.388075480750792
0.382721922587742
0.378993744705622
0.380297154694571
0.377789127888769
0.373086716869196
0.380108532432313
0.382694954816038
0.383841854020213
0.389210546913532
0.400634743061231
0.407365295319082
0.419550049279708
0.431614322325624
0.447559542487097
0.460797558463097
0.473386873036357
0.492387893380635
0.513422718373344
0.533811046489537
0.556089510518457
0.571145711607458
0.587832454381181
0.605601681965672
0.618984095756603
0.639714220965729
0.657331990654796
0.675284070569094
0.689462966321575
0.702176688715465
0.717183380191201
0.735638091254879
0.747279402747037
0.763129187053402
0.772300652892866
0.783175868832155
0.797938398321501
0.8105717459163
0.814434249745727
0.817295939629763
0.82710306986037
0.842761254090336
0.840364689736854
0.839974966192189
0.840786007376725
0.846247855079735
0.858187273501785
0.851191228516504
0.857949933568012
0.851669911800817
0.862111534522237
0.851420058306858
0.858201052735236
0.861918882418748
0.858854818322861
0.863504655844481
0.868904272563815
0.878763857164103
0.886948677312542
0.888650247227351
0.89402283847514
0.894444259571029
0.907394828343887
0.918562020826327
0.922333952270346
0.93105912895732
0.936873792816941
0.951085622679786
0.958158647869765
0.970478925948941
0.982128729729408
0.998630644288057
1.01548289559915
1.03360815635597
1.029492866747
1.03406818091274
1.05450005866024
1.0610434419916
1.06994395619349
1.08943683343393
1.08785997251367
1.10599484762323
1.09516335253375
1.09549382990046
1.09596150726054
1.08715962757124
1.09180268816473
1.07868503746042
1.07857059505214
1.0744050867132
1.08514118910413
1.08491069760346
1.08680486609319
1.10290777343776
1.10269560707742
1.12374958494538
1.13705680436441
1.12881519556465
1.15966519535343
1.1786725414337
1.2051927079689
1.21989824273926
1.21944709737705
1.23847245935918
1.29477763874477
1.28248259502008
1.30342652342448
1.32491553663459
1.36054105590441
1.3692128226819
1.36023383873558
1.39386647845556
1.42849142339592
1.43964435927854
1.44661929996432
1.46354820452753
1.53356629629327
1.56606560282464
1.55665289440585
1.54099347759711
1.60910679530888
1.59478655686742
1.65317144223101
1.71398623090439
1.64098256557669
1.72957905029751
1.71941285608329
1.78436772034039
1.83446932559778
1.89903649675269
1.83535279242724
1.81600658228284
1.83866991115477
1.86561312519885
1.76411867976784
1.96177653914883
1.81369050604213
1.82106291837791
1.80034800931352
1.84859517653923
1.8196810395874
1.79525150873875
1.74819837921526
1.78066353414664
1.78638480178148
1.89413732957529
1.81809275802087
1.89925828043709
1.9403878162016
1.85655127271668
1.9085135117543
1.96042703375304
1.9009873657842
2.10034212813839
1.86490292781395
1.85030526379057
2.06424474169652
2.10948163751237
1.84390556901172
2.18420553387454
2.10390059550133
2.08151708985
2.04073024238858
1.98121137127603
1.98132455310982
2.14595786855485
2.0637891523031
2.12387529833357
2.13847819543535
2.11341211810153
2.08204305738692
2.058788996124
2.04910970079709
2.30523643890615
2.15622913340379
2.02918868793932
2.19409278618456
2.15683245199775
2.13204445076777
2.08097872579982
2.04214803019525
2.1661502414968
2.04818105632778
2.01944250414617
2.06513135746335
2.22589029608165
2.0965728310892
1.9572312614119
1.90139985419938
1.81558091769555
1.8459838526948
1.89799099890073
1.76815218006194
1.86051371849624
1.72324692721892
1.76684470011296
1.72468108334191
1.70903236519828
1.5749755012606
1.49282980325779
1.51280731534653
1.51677874418728
1.46089209747777
1.4711730320247
1.44308279177827
1.41663653741381
1.38272161442701
1.3533787536249
1.32991376053575
1.34061263748673
1.34873988820414
1.33576668555529
1.339362911876
1.3088141945884
1.30815061663039
1.30707663240726
1.24299229159053
1.21885561479692
1.20269512076102
1.23246534484677
1.1703648343902
1.15173195101437
1.11064469589989
1.11229226750454
1.05977461244351
1.02709302489565
1.0119835437441
0.966215403602186
0.944227144678554
0.890331422946811
0.864989496224035
0.819143513897628
0.78991951191146
0.750720899570637
0.724716960994341
0.693769711936289
0.659256677190381
0.629201121914726
0.608744411113125
0.58087233356418
0.567181377228256
0.548314653750941
0.530600795590074
0.513142579396831
0.503793809004271
0.484891083737494
0.481793164131649
0.469841449584064
0.466705398247323
0.455941511427623
0.451212783741411
0.455844843078757
0.452801834936925
0.44237115764467
0.439767935727991
0.451552034932229
0.443417727700788
0.446914065903941
0.444725585623445
0.45029594286789
0.444641897836311
0.456220562142976
0.448079492039956
0.458278921962828
0.451961557191216
0.454428099800128
0.446313797057881
0.437953606819443
0.440342516738461
0.433560604144549
0.433235833824187
0.431803298637817
0.424406028574732
0.427114792821425
0.423028981894825
0.422011549691702
0.412999011222018
0.410774065450756
0.416286205632377
0.420769417556863
0.424043397586942
0.426890079223343
0.42372394854628
0.417359118170649
0.430101946588721
0.431262389981716
0.437941784311411
0.441339245144837
0.439909102352387
0.444107857755861
0.452008189452406
0.447251949142013
0.452891651386475
0.457486775446486
0.462470888958418
0.456392151493034
0.456512276191577
0.465967751987226
0.449160884850096
0.464947273529892
0.460351830589338
0.46695377478621
0.462292888044408
0.464608920192945
0.466663439987729
0.483972937616474
0.476786040336761
0.493695845243867
0.487116278620384
0.505847540571713
0.510763333136927
0.528192085303893
0.538490815897846
0.559622234694242
0.577356774715917
0.587018738230979
0.592465089950858
0.608407695689536
0.608914816610235
0.624681503217729
0.620968188215872
0.632821930385516
0.621437175305
0.604695551190731
0.595294297673052
0.592317763276158
0.571996112459088
0.582365799707404
0.558773533613861
0.551974551582904
0.551041272044245
0.548717203815852
0.550735620708853
0.551175858872592
0.55508972459653
0.54901336353622
0.547124379248663
0.544897808328279
0.545746997282265
0.553057991273578
0.535877645130082
0.541123057016038
0.529847800664093
0.543959466194518
0.524946787789547
0.529347207784246
0.504531339787184
0.516465184982183
0.51111030552216
0.51267120300875
0.502020113797094
0.479948597680142
0.489620987636519
0.490873785553851
0.483526647576635
0.476293187584286
0.47730039012173
0.480028423888559
0.476761990632001
0.461537837595893
0.462828766216492
0.470151678612353
0.455951972444066
0.461285829551843
0.451417812917473
0.449311166817686
0.440855402901883
0.452303706935169
0.444083579671578
0.442225740905262
0.436687273443696
0.446676848386361
0.429610979328665
0.434317954212988
0.430080861111866
0.431275439868558
0.414393160193405
0.426487598801275
0.420678800125509
0.415314494603256
0.407776504500483
0.404653215244394
0.408970307007678
0.409644474482118
0.405014353560137
0.409458991820637
0.415522360925924
0.406270752977133
0.398776965175685
0.415820888797856
0.409417388765318
0.403933173603938
0.412017982667453
0.408243324370948
0.403303767697615
0.40055157623431
0.410943528005468
0.404874204739817
0.408265661435081
0.412137125179809
0.406924858932395
0.416651477112975
0.414241740888848
0.425335101481735
0.418925930656486
0.434685598150667
0.441706112864019
0.435876498008285
0.435670384951627
0.468627504871583
0.433222559967851
0.464068118038855
0.445644307899273
0.456427908108802
0.457141149262445
0.483320358505691
0.47239540302507
0.476403296013185
0.490023334822063
0.497856180693692
0.501743827706653
0.514615469092479
0.537960845924381
0.58985145404444
0.547835424776882
0.578463651516139
0.577166467192764
0.619922543882479
0.620277187922315
0.661136161009283
0.655363603414715
0.671269483712273
0.672365605858504
0.6993659040562
0.68788117396773
0.715711846356422
0.69167025194571
0.742262796886968
0.736618884167765
0.746500420750131
0.714515171111252
0.773372554676741
0.741857970904336
0.762240593730362
0.690200133095313
0.722026088722274
0.734273331592711
0.696902589195781
0.711760338045681
0.725828510552958
0.693247195079718
0.739583731334827
0.68158491632116
0.735569668759533
0.671124786765216
0.696434707194144
0.662685260516196
0.673085391466396
0.640820380625302
0.678597356617411
0.664254380810957
0.674803758829229
0.651072391734653
0.645800867367461
0.639417534641499
0.670689140385312
0.62736841469652
0.661740151686734
0.620530108237931
0.640628305357485
0.62571645650621
0.642232336207699
0.626452605364366
0.675109240340999
0.607666866610315
0.62804502957744
0.629927959155007
0.639196786608371
0.61009446787392
0.632402634999942
0.572038212410816
0.637929342440083
0.580954881506005
0.652369847058513
0.624348327771097
0.631249141871593
0.648257216873571
0.652135027804506
0.677839769784401
0.723995279620919
0.647570173764772
0.732227317602259
0.636886284161947
0.686820852394825
0.702154537728927
0.637453724951367
0.630525802287954
0.706792571115936
0.691484334283459
0.65590749729643
0.621893121809083
0.683381788357812
0.656389139466567
0.74810045344392
0.734421518930227
0.810216913687113
0.747146993278038
0.742397767865641
0.724633664224698
0.746734708091888
0.742861100930005
0.769886295037872
0.788908538028479
0.904061893849103
0.767940914686888
0.920602682553652
0.746231259347828
0.904936656506793
0.8666358349269
1.07231067110682
0.891406286752972
1.1137482764497
0.867178802975939
1.07458333917467
0.802184576191705
0.927446067951726
0.706111570408149
0.856840343442962
0.918405043463004
0.851012153230326
0.747710501970796
0.983879701162728
0.810872404052833
0.852277170774935
0.842736728297268
0.800648495834557
0.658553618657426
0.89330960143277
0.785573593965871
0.883114906908056
0.923483853436459
1.14018752340859
1.08885442305976
0.855825252139417
0.744977753285019
1.07513908345169
0.871371412790432
1.01812091829481
0.654036020519787
0.750414495583825
0.856717029423991
1.02842081955011
0.733794039863941
0.770328526360322
0.683939973304982
1.33803298697166
1.06507121926767
0.873323143058142
0.845116879971772
0.987972009543519
0.861040497256565
1.65422327983045
0.709095514368515
0.82931699406381
0.736823990345327
1.54528793367777
0.929746555406526
1.18993727450409
0.545801209928849
1.37627600776159
0.890868609791916
2.09965805056951
1.14807690182826
5
0.906588347615858
0.699224226823649
2.4487499149878
5
1.04229580861551
2.25923810128732
0.723875712550427
