3596
4000.36533379555
650.420452594757
1
2
2
0.0462131615710582
0.0520695699186013
0.0532383383946619
0.0434742776937377
0.0312817938401446
0.0437638255229749
0.0524337441598196
0.0531634068952656
0.0351405058787732
0.0566143635286459
0.0412816728283472
0.0442871020493013
0.045744483545302
0.0548268840557425
0.0375897569893739
0.0445704346656288
0.0403452113742549
0.0518784807497181
0.0500506676235565
0.0419802481278815
0.0444514420401973
0.0514658430050344
0.0417024524483787
0.0445784611768906
0.0462078329994039
0.0414885223886674
0.0391048623156492
0.0520571532699081
0.0336221577357809
0.0473048135954402
0.0477583240761077
0.0511871406526951
0.0404442106785087
0.0403693927313166
0.0440270107883119
0.0488020435605598
0.0372248599260753
0.0478424679739451
0.0415903265231982
0.0485945666428802
0.0373237860199115
0.0485552128551473
0.0413237436773044
0.0476284454653002
0.0404571190912031
0.0434193648844894
0.0527070346290948
0.048264827869393
0.0355716061188238
0.0449166032815239
0.0409055532479451
0.0470644969610301
0.0339500609118638
0.0581301420737862
0.036709735880669
0.0389439703527598
0.0413637796132447
0.0422219151763705
0.0362155951178347
0.0529856242849729
0.0408144260924892
0.0459918275356752
0.0341658470573711
0.0352180899005882
0.0453290493537459
0.0414912908795876
0.0348033084272897
0.0451205807214843
0.0448608691755161
0.0383595146327435
0.0452656160314241
0.0451304720272655
0.03550928360435
0.0345344008959229
0.0506030899032605
0.0447828444839853
0.0366812908068468
0.0452218430996078
0.0365325918756902
0.0397067882338973
0.0481802232402344
0.0370202712207562
0.0402558427363641
0.0421288748971442
0.0479748244187993
0.042418913843956
0.0439045500595313
0.0277374532811132
0.0353826271652437
0.041559307062454
0.0376320029811308
0.0372920178088283
0.0456603355191939
0.0304932295080865
0.0337599336402504
0.040696947667146
0.0466990650632832
0.0326209223482026
0.0428085819441149
0.0261398430958631
0.0484268701592513
0.0527709272226472
0.0286971413895989
0.0506862524935745
0.0369875665335751
0.0414382185988667
0.0243472527898743
0.0400366228370237
0.0386711725232641
0.030424322784881
0.0388948205859375
0.0371225347667445
0.0474817587899124
0.0421191385127526
0.0370439447596834
0.0370398117876983
0.0425273117204483
0.0379583157763293
0.033235805147476
0.0237306357585997
0.0365973116057168
0.0128812552220742
0.0442637106898665
0.0353815407295791
0.0426009223122969
0.0354054919920393
0.0293265431330477
0.0211891836852416
0.0315369649420405
0.0370097130986085
0.0338610252321301
0.0419592493317079
0.019352243932649
0.0414712882966094
0.0349619359649261
0.0453832841952988
0.0309649791320337
0.041040322034505
0.0342469560029846
0.0376106402389855
0.0448736292625316
0.0310658499308324
0.0298761660087685
0.0392894781630226
0.0249486383715545
0.0402958700994399
0.0303355937925255
0.0249437923878744
0.0365457853850969
0.0342838227545894
0.0271937476414601
0.0324783770437362
0.030031876688794
0.0274960188380767
0.0360423602301701
0.040168317609
0.0320482974316904
0.0488317312404569
0.0297689869580036
0.0500459232344583
0.0186720632810917
0.0351460893881277
0.0246488805326353
0.0336440433938626
0.0372601555256824
0.0393969000325241
0.0469365057576133
0.0206412991337044
0.0241834498437073
0.0384435288504666
0.0289488286895367
0.029122338950843
0.0320508177543927
0.0314369838586885
0.036365233333491
0.0304286288893465
0.0258378370401407
0.0334699124489915
0.0307814041334915
0.0361361614219144
0.0301595770311744
0.0359742945015831
0.0190198928797062
0.0375739699871103
0.0330386677580687
0.0307880808946286
0.0321386573833424
0.0291846673881566
0.0338748444874621
0.0389398707120575
0.0317294267544024
0.0466300232556186
0.0385987650102533
0.0348473107825451
0.0190340771425926
0.0365275153042616
0.0130018444713313
0.0459264692119598
0.0333526710583603
0.0371189821351774
0.0319421232476153
0.0311044033077569
0.0318038688934152
0.0287244467006311
0.0330956258362004
0.0297433287377254
0.0233823784725233
0.0462927310979224
0.0261753913513513
0.0435303600657142
0.0197845547310497
0.0513717810111472
0.0245443809074692
0.0360252267961232
0.0391893806304257
0.0327964960685398
0.0321777634940573
0.0415824350160898
0.026944897158534
0.0357558573550902
0.0331973243422122
0.0241201765311866
0.034135430375748
0.0402674845577495
0.0328330271982919
0.0381708458922759
0.0296811126070683
0.0328824684104801
0.0332487647250596
0.0422142224039658
0.0437570883385378
0.0360697578017277
0.0343119165350111
0.0329480196061188
0.0311306830110203
0.032220794731717
0.0380356184984889
0.0386934857018882
0.0339716012332919
0.0388760924349006
0.0230013550901423
0.0316087122948308
0.0292940945678376
0.036009858418377
0.0302043905563708
0.0467629911425918
0.022124343452682
0.0424351092498551
0.0309042879912801
0.0428104261436534
0.0441534857044496
0.0416190747223342
0.032599288540519
0.0327605929868043
0.031877206026977
0.0384928542642636
0.0515893225295534
0.0428726001560108
0.033137595095486
0.039838965607359
0.0344868109347248
0.0365966491763504
0.0314017606485554
0.0259133636011546
0.0455324083442394
0.0423705558203327
0.0297312465799954
0.0350144217421563
0.0404805289523725
0.0478966538796743
0.0315093741140593
0.030165098614194
0.0499391279147573
0.0208404217176375
0.0400206131195709
0.0416767075491905
0.0408824103355935
0.041023928195875
0.0493516675169627
0.0390337525099708
0.0354006444725486
0.0432345151207499
0.0366888926603618
0.040570747771683
0.026429286429767
0.0498043297945438
0.0436163627558323
0.0531725169009798
0.0482420994520729
0.0430712631720913
0.0346026626008546
0.0383025209599079
0.0386178715467115
0.0461221802589191
0.0472983369669525
0.0293012372195508
0.0438704742823431
0.0412155450481556
0.0450220779749661
0.0351983761979741
0.0514295483112814
0.0370241588082031
0.0469233106278802
0.055975826007507
0.0515574405221075
0.0490711996228094
0.0448598598058625
0.0500359574712854
0.0533353331001621
0.0412637368555619
0.0590183918408311
0.0532682383103914
0.044549875418363
0.0438771732166645
0.0477724227919114
0.0460586095017472
0.0561433797568861
0.0351007250970817
0.0534328504808121
0.0483693942077166
0.0495319389483811
0.0521699605663125
0.0532774106080611
0.0474149830513293
0.0533954408084896
0.05282027807789
0.0550019308716303
0.0567175778917998
0.045056825146415
0.044493611542174
0.0655547676205406
0.0448331884065921
0.0600642203708259
0.0689203714921136
0.0633936247416249
0.0690929805006255
0.0532345331936321
0.0613690911816936
0.0562159140625483
0.0642728653392972
0.062262114537834
0.064289761443827
0.0736679684051706
0.0690169898799607
0.0655914371348711
0.0681381119924849
0.0793899595637223
0.09120752811646
0.0742971475641252
0.0791716754822977
0.0666797317381522
0.0671560557687077
0.0912239657025246
0.059538389950621
0.0941634785148028
0.0741785685140816
0.088496077696236
0.0757580596008146
0.0837348912488209
0.0703067571288629
0.0902861390306367
0.0919501459185336
0.0914430820792655
0.0913957358485227
0.094156588834241
0.0978958808031253
0.0938973542395189
0.101968379437419
0.105544430348702
0.0945173146740228
0.10799625162308
0.104649337041727
0.124392219264489
0.103853514808074
0.111740655662188
0.134636245682917
0.120080317376781
0.133087107018856
0.109733475458421
0.124777905934024
0.120450090994962
0.126374445338458
0.133916729599513
0.131691902117717
0.13518316108596
0.140398032847873
0.141020242007194
0.145474988277656
0.143968915474026
0.149166824914814
0.142847519708194
0.154271334734148
0.154781556970247
0.155005956806574
0.161073184641397
0.166186458549622
0.179248662909971
0.169211908599641
0.159649636481865
0.174652707566176
0.175457241445613
0.168701415861566
0.19161019090689
0.170474423289568
0.196025643392318
0.199452589771282
0.201097485534867
0.180691246193009
0.205442514508037
0.209002652448849
0.193765243821074
0.208293904224042
0.210089775719411
0.213131588746019
0.212059668104225
0.198566112036011
0.228029175437455
0.208733888568698
0.265421477955433
0.231121416592254
0.26817752286939
0.231527828465889
0.24805440457385
0.239586979417819
0.255290178355768
0.249965243206919
0.269591442141667
0.273589272450724
0.273481980664475
0.261271943954408
0.277522784845093
0.27264729449707
0.275818451059971
0.291098975266725
0.2959643132388
0.275926063407008
0.303823529345235
0.307665782754646
0.312074029492946
0.307680546636375
0.327823371904585
0.311571342025981
0.341363665052145
0.294865281950678
0.336861501418491
0.312190217296496
0.327032083107194
0.343182191518417
0.356308682510769
0.357104753826062
0.366345863011004
0.351772942022814
0.360810564695027
0.36961608575797
0.384949458664783
0.346747639039768
0.386473076976281
0.370817100301906
0.397107438286566
0.383704552041332
0.416351241152368
0.373819736222425
0.423586224441863
0.398458863265372
0.484851662807178
0.394622133693521
0.434126922082109
0.411661777108745
0.442699634944782
0.418248409438502
0.477434387302818
0.447050960727082
0.465600744141321
0.442814191636439
0.477313217798443
0.465139484601963
0.490639222211756
0.467992082710973
0.503996292351178
0.477692805335711
0.472801954002134
0.44398653379799
0.534080202693251
0.494265242797782
0.509555015931276
0.530293458826929
0.506142337348965
0.505513796656241
0.577236110662061
0.521523602582252
0.565287195641893
0.583570076782623
0.561776539067192
0.553954654244458
0.585046916582283
0.560128055880661
0.630118745542785
0.574196085796182
0.578483729345115
0.590711003019098
0.60841971886767
0.585561957284752
0.584119589311725
0.601023984490825
0.621997055119499
0.586797992252615
0.633219235201999
0.597241737774648
0.654759584447834
0.613663447819761
0.671381252668315
0.656012210262543
0.689907318674878
0.63762850444978
0.730063202274966
0.659639700498153
0.71195929221517
0.709749527500704
0.69818228731226
0.70952943482703
0.685810999574835
0.673897401790245
0.793293508349279
0.725789493351962
0.74548471113902
0.725280534209889
0.83538565488554
0.709474187369413
0.748792569047307
0.7615944808876
0.812261534364538
0.735909466271413
0.784996344360934
0.767816755277023
0.857264169005464
0.72899990236607
0.787655121668503
0.794992681207908
0.812837541235979
0.786059836418678
0.853714987567285
0.773316922179618
0.846367353790855
0.822201690845214
0.934100997570093
0.876131409504311
0.868926958400787
0.809353718643673
0.889181777319434
0.822876627966583
0.889717302354548
0.848344133099515
0.997103686584118
0.874367215547171
0.965790923376565
0.884843330747287
0.809800586253756
0.811698211443408
1.00679562358848
0.90813644177068
0.976204825536817
0.89498629474153
1.02241916511287
0.90467764956956
1.00970209443657
0.939636110210068
0.946975918289534
0.861825576906163
1.01134325096666
0.919241804059083
1.1286914512917
1.01663093813132
1.13206165315576
0.982135943391485
1.11780535070251
1.03599311840586
1.1075586116012
0.989278434779122
1.09659350007716
1.05081249241508
1.16093951480156
1.00419022874907
1.08150511585525
1.13906987299778
1.20181224212266
0.97585972164768
1.11975849571374
1.07425529657111
1.10698095657532
1.09456451390316
1.18520891565848
1.01485341077752
1.1445019372364
1.11702835326221
1.143727963829
1.01686272160021
1.09878866161965
1.08991606730798
1.32608462311161
1.1229516630376
1.23375389399432
1.08871871998449
1.13489214589011
1.12657358241983
1.31929545567813
1.18945269288036
1.24389389553586
1.18879602710939
1.37601771573964
1.20694185075958
1.34795410029811
1.16441135013628
1.37004614221393
1.19462725348297
1.34787398657225
1.10095091741946
1.34995554605915
1.30626314576149
1.43105799527191
1.27564408186237
1.2676442203742
1.12148010094553
1.38786812870188
1.21577381682973
1.44984567507618
1.27444313943349
1.35080417090388
1.14109501410229
1.24172420175384
1.19885858936119
1.31638171426265
1.31456587708174
1.3295366762207
1.28449163227762
1.49464846543207
1.37900103377231
1.37343270974543
1.34608688779806
1.33152587804147
1.28968029141137
1.36136289871808
1.42020714319187
1.53674498782082
1.55172773608057
1.6869759551188
1.38686907639749
1.6052827075742
1.34304336831611
1.55187053584571
1.26080632924623
1.40653892676544
1.30191946766245
1.45913404222995
1.35090210479644
1.63046354826305
1.37134526920197
1.53947484557291
1.3148092207932
1.55652289694391
1.45225776678303
1.46968515095852
1.30499316723943
1.55767744734409
1.49691941303882
1.60225372402987
1.47770387119795
1.58585047905495
1.33725739614206
1.59692347653994
1.46740875067123
1.891741363922
1.36300608628095
1.40703667315281
1.40683984883311
1.48970762873251
1.52350988234973
1.68829180209395
1.36700554268923
1.61116905050389
1.46472063367945
1.4389907478625
1.51111649375668
1.84475528541598
1.38409544941708
1.57194804640224
1.44678359556201
1.71543174194209
1.44458144970658
1.57786544153921
1.46703898136908
1.6163032372309
1.45799436188539
1.65811185721406
1.4324397538319
1.57998928347734
1.52678192832424
1.65351486871376
1.87009718526048
1.73617441385818
1.51038285176143
1.69831390368125
1.46361230753706
1.47189529824833
1.56108440364706
1.73860127112077
1.45280595316508
1.55149051045609
1.53955659769084
1.74756558937521
1.66791020824172
1.91217783774312
1.4770055299517
1.64324585427958
1.47245247906756
1.55144992308729
1.49912380731832
1.80637201776216
1.68802506117727
1.74375459421722
1.68235983255941
1.53499789042069
1.62184601110617
1.49709535436135
1.6321866443985
1.87976521480397
1.5519438353894
1.65472297135737
1.56316031365517
1.9690373035049
1.52412288326192
1.51092919158071
1.64857009190458
1.72948498493366
1.57869017506428
1.53600768008356
1.50779735448785
1.70501825405256
1.6239634778815
1.60028450926282
1.59827687912918
1.64937131359395
1.5257704027754
1.5706031804069
1.44011405458924
1.65736178661365
1.5428661735729
1.76869834671272
1.83596026433955
1.82671030387516
1.42024062549638
1.62240566307962
1.74318703712435
1.65453458718363
1.46836969404251
1.60594681698703
1.52649525402065
1.6463826335429
1.57107216654954
1.49704382865585
1.48765985154204
1.73940319842007
1.46071239918423
1.65777007585514
1.85239765671809
1.8376207944669
1.69488172265234
1.59113940544783
1.43727118574878
1.62170119098984
1.65427561921277
1.45947711267508
1.42325610879852
1.67023421463171
1.66116133681618
1.714852871107
1.71147278090627
1.9065362689237
1.74611111798945
1.56571869275688
1.62249148118439
1.76800031438353
1.51124213293793
1.51952548194685
1.5731512662171
1.42194593608156
1.50379824532914
1.7064255897688
1.60062154840911
1.67845187302853
1.51213154356257
1.62116253345062
1.60496590920229
1.54269931902452
1.63808610018958
1.58202623055413
1.52692621087691
1.57974986661792
1.51817070364037
1.84473242180305
1.66226433963045
1.59557016497431
1.54968166294987
1.51470163169136
1.51164686211186
1.70172814889243
1.48772236103648
1.50682756812085
1.5149802701457
1.59399191182964
1.50780067314723
1.54834964554899
1.46399389433519
1.4329701813019
1.55132941585923
1.75855663067476
1.6913329545321
1.5055820668579
1.61644036375
1.47917679386472
1.39253923920495
1.59867687953362
1.50879671525177
1.52451330471739
1.44376072510671
1.53825637219261
1.50181036422068
1.54952639797
1.53533433934077
1.4876651951984
1.56624685180367
1.45206195609549
1.43541082603464
1.70020295314714
1.55502582081118
1.5537859904143
1.4339001905206
1.40659007630318
1.52400978406681
1.52323043208624
1.56729008893262
1.42923905011457
1.46657867356336
1.4829660891508
1.46018642736354
1.39223624705273
1.36145387815804
1.42444604916768
1.33672940600332
1.42863462426569
1.48522485160125
1.41444423121303
1.40038360179536
1.42414167124501
1.42475917207996
1.40684350668867
1.45683175749767
1.47908761528852
1.43467737094454
1.40069158971495
1.33330586783091
1.35455614331338
1.4149125712695
1.44310076553929
1.28730894286492
1.28162706233376
1.35240269027786
1.35910817317061
1.3232234885071
1.31004738991585
1.31005312536924
1.30774815470253
1.37785491336607
1.38535946123765
1.40138932246284
1.34934727444524
1.2704478778682
1.26429413056312
1.28235150936606
1.31358246324293
1.28339719976533
1.26360596011464
1.3023422729803
1.30186226942088
1.2199037026327
1.19927393688932
1.23808526132813
1.26250702300782
1.25492314026126
1.20893221125791
1.26875373197863
1.27847353581469
1.21747285047988
1.21738243210871
1.23048187300525
1.20617368610983
1.21551249897574
1.22550051350097
1.20928500835651
1.16175611603289
1.14492601655673
1.16833300710886
1.16000522657767
1.17304900077011
1.18649046514949
1.11823370757005
1.1247727711146
1.18067143503206
1.11596384857488
1.09573406518706
1.13158297707636
1.09999917082708
1.17250718966478
1.13674824412229
1.09894641047482
1.15904060304393
1.10092602939179
1.09272024972958
1.12742843463165
1.08432483603866
1.09421299241917
1.07805037288886
1.10369358808362
1.0658661097261
1.06417639464364
1.06603934180581
1.04427770858566
1.00682998709404
1.07667453542325
1.05812208950597
1.04053036511926
1.01381384546748
0.966860870043085
1.00655263257716
1.00905415415137
0.997851560123633
1.01105760342972
0.976201352864138
0.988059028742517
1.00585733821021
0.977618133527695
0.966455801496938
0.988525694650017
0.945951068983537
0.927624206583442
0.932411586145043
0.961752583805149
0.942307510112717
0.958756950894415
0.950619083477028
0.922632408768738
0.909836583105328
0.906371190902002
0.879038774082634
0.893593136537853
0.9066622392763
0.906948252621341
0.886246891859478
0.895072192148541
0.914048189315118
0.881187613415154
0.840731389368026
0.884592399948407
0.880500719977158
0.870629155944019
0.846840345096804
0.865773834725778
0.867984346890084
0.850757214693276
0.830611106698526
0.838707763402959
0.847941235015693
0.83672068322848
0.821034807613362
0.83507374755755
0.812171530220812
0.802428518120749
0.818951026609254
0.819409850737803
0.811271940492399
0.816134600593714
0.800012191979302
0.807828984562607
0.779641684938951
0.798814212139602
0.78123920301736
0.77514295388193
0.781567598203337
0.78264057530204
0.77400533139629
0.781285554204537
0.770991454638604
0.745655389915938
0.750958707993151
0.757823649211524
0.740805582111813
0.760145549802382
0.743678186085109
0.724827180484211
0.704715066903382
0.727244423306724
0.715988585377489
0.723335535779585
0.733206755202149
0.707346625116426
0.700444627598669
0.707217068937967
0.712974220144045
0.714593187083286
0.710028382018091
0.704774761750687
0.692873069614666
0.700373009160032
0.676749281301205
0.678953245227993
0.666803895298491
0.672925633891188
0.664879965424653
0.660776302919165
0.670383228209999
0.662905053572834
0.658208069175653
0.663627057102228
0.658635906681126
0.654452044513804
0.636900863411257
0.649978735424954
0.633609028124407
0.629929008339686
0.626057980838585
0.631395143812769
0.627212793743337
0.619053338649864
0.628469782622026
0.617024629379152
0.607176549355333
0.614816156629763
0.597507603597056
0.594876200361301
0.593802539997521
0.588649591975492
0.590342045969402
0.594549551033409
0.579683181526304
0.584717820829074
0.583069615736719
0.582218034718521
0.578581295346155
0.5903323682612
0.571354513274865
0.570937524112696
0.553651112586434
0.562207510420987
0.555117280547993
0.564062984426664
0.558219122477025
0.542733321797512
0.542745276297076
0.552599216039065
0.541781977622881
0.547099255020558
0.533089372948096
0.535517896738037
0.533851991422194
0.541337756731165
0.540435890379677
0.53469407850431
0.51988895864551
0.535724408686672
0.524951230530196
0.519916043411233
0.507977345877983
0.518393892016829
0.523115084755997
0.526540792238491
0.520912623544844
0.524838054700126
0.521433084105605
0.519733667212657
0.526887211340826
0.517136523701241
0.524355666367199
0.523410195094776
0.516480680401462
0.527205602785114
0.522843103560027
0.530856408293366
0.523258475541829
0.529081821815804
0.519264264353895
0.535153050267977
0.522715428478661
0.530764738511173
0.529534493980321
0.535026789235781
0.538579463609014
0.544619867170682
0.543868789778292
0.541165702830789
0.549004650551754
0.546817972620299
0.543286536037402
0.567005211759603
0.561559978928961
0.558345064035356
0.57502898031153
0.576818542456782
0.561400177345685
0.569281371698244
0.565725776854315
0.574157790646468
0.589535913510799
0.57787617933257
0.575743071611027
0.597109701795585
0.584904157480266
0.597753251109252
0.592048565066586
0.603398518806057
0.595934429311768
0.598687136342929
0.598542540023217
0.609006796108652
0.609058317228606
0.611457962833204
0.621910278795263
0.630622405882646
0.62228971132441
0.62598837707692
0.618248621669541
0.642257852962872
0.635828358575299
0.656515633923385
0.641322825918244
0.675546614931661
0.648060571938316
0.674317838618742
0.670062412868541
0.665118719273375
0.664081229932845
0.689993518618801
0.681922958951817
0.682558929252214
0.672423261148787
0.684743773998489
0.680552922901931
0.703381824710964
0.701520011033072
0.712828547488021
0.685995043960707
0.716662436243737
0.702587407466023
0.720633118198596
0.704915481020516
0.721653751789258
0.682164673480015
0.731249954792972
0.70476928096121
0.707803997432732
0.704726184960676
0.731146677873469
0.708950036831617
0.710767933627775
0.69122960959669
0.71026152766673
0.685958118187099
0.713966592667834
0.694398837522241
0.714127824527786
0.706911455921217
0.701892609974724
0.683204875485111
0.721061827404659
0.69082010350293
0.707572685857798
0.679680997831774
0.710858141038485
0.682651235014022
0.692879875838929
0.692919012424065
0.714785514205321
0.697988559049464
0.724911444506079
0.70270943134412
0.701830861003658
0.701870077839713
0.70985137571084
0.692659159530442
0.727361435198829
0.69056309985678
0.715802334752614
0.70592368791382
0.699499634776895
0.694168563314053
0.716669050307521
0.687648023653804
0.716315297229132
0.706442501689508
0.696146234202816
0.681675478938342
0.713357595405926
0.702101699392988
0.722456751221355
0.684045941461825
0.714747468734951
0.701614902936757
0.690800568426904
0.696677346071273
0.698951367989654
0.674127661703653
0.702650195116596
0.662267634303767
0.697128566734637
0.672913540317202
0.694450812955465
0.661388361177825
0.668814657303938
0.656829654122705
0.659018886493046
0.639294431131928
0.6516027385714
0.637329612833278
0.641545628248403
0.627300212189019
0.635796848892652
0.62145895506441
0.632049342660166
0.620260274366161
0.619576180663401
0.605838190368283
0.595519520815842
0.584872295079816
0.598908303551133
0.579267422679647
0.586820004277063
0.584877028524539
0.58732258309655
0.57274104860128
0.570885648272468
0.559538192596362
0.563399878854646
0.544911329817613
0.564024099798818
0.539567882268839
0.546423109732421
0.551010194976899
0.534906987800684
0.526052423918375
0.530613581247156
0.521564642199104
0.524092265868672
0.518146413119711
0.517999736269692
0.494686698534876
0.516853851172935
0.502959077215703
0.517135356794583
0.502567362130121
0.50960356976607
0.498979058160656
0.501125666530359
0.488350166472478
0.493051312429787
0.493047747510149
0.491068745863114
0.480531487421594
0.482433512165574
0.473795494678315
0.47701783382767
0.467276934579273
0.480050845059892
0.475861572001938
0.478269938850703
0.459509641048551
0.475086936492782
0.463868902176835
0.462810885357324
0.46085295748267
0.469193849925438
0.457973926772601
0.462092106503304
0.450302702845233
0.459905539760981
0.441677503881079
0.444781193924831
0.439034949855351
0.451017298351405
0.440226894534667
0.442595036779418
0.444055346306577
0.446360182187499
0.434125214820598
0.443239694927288
0.427078017223573
0.442291819894182
0.4283386259414
0.437637256483704
0.419221769410571
0.430611848714104
0.429421074603384
0.42961591256346
0.418205959345717
0.423428140960126
0.417273901856588
0.425268490651442
0.419044054988709
0.415093789120594
0.417836327423649
0.419310778121522
0.417638191824263
0.417416817442675
0.41314856179458
0.41051683563644
0.404473522191797
0.406657786840897
0.399615050646929
0.40920206723908
0.401862898568566
0.411150958767151
0.407104805376945
0.408863105970712
0.392179487542442
0.399972043785044
0.389355544808562
0.404991883521468
0.393467429193761
0.402393914146257
0.397442148538459
0.409201126030036
0.390820903012406
0.391732962483166
0.386988398949214
0.385898270426356
0.385056652383759
0.398874382733077
0.386248045145192
0.384775880669679
0.383506726200749
0.391840115787615
0.384976526085345
0.387650401108636
0.37688542911189
0.386948738068746
0.377312361685146
0.386676409504015
0.371215621275258
0.383781320351084
0.383362371337421
0.379582600281588
0.378518169401999
0.385941457470164
0.377949767277316
0.376915216199071
0.370958681384359
0.378179632986759
0.371274751294417
0.379147058929351
0.365005452962726
0.374554649049121
0.363545171970602
0.373837321561727
0.362358979875969
0.380725250492065
0.372867386495123
0.372890678599122
0.368100221926135
0.372768099885681
0.363674117563037
0.369497792450737
0.363191927452159
0.37703079751201
0.361951814434034
0.373373649458905
0.365617798805828
0.371385399481075
0.363375391508781
0.366879325135458
0.36253804763697
0.366675448630031
0.356476925065998
0.369853268520713
0.361506104453501
0.367266974577217
0.353912459400168
0.359469351203974
0.34695220042287
0.364230411446438
0.35497356053921
0.361399529485039
0.35375373323443
0.353275207399771
0.355541016864365
0.351037498823415
0.347737715869069
0.356580928697853
0.348120228095067
0.348759184893268
0.348377739136716
0.36028060421114
0.348006989427697
0.349699874860796
0.337646048151032
0.350440379423006
0.342410557626467
0.350832986484202
0.342425169328853
0.346270113622452
0.343927630021622
0.344742923854167
0.337035464460742
0.343475612085918
0.33526720882535
0.341879789508783
0.336533789136163
0.340763920569592
0.336267238852199
0.339658775571582
0.326169236166923
0.340509974380533
0.328181027992268
0.333184530080268
0.336254065083792
0.334059984098186
0.330211747819112
0.327572386055623
0.32751326790056
0.327660658942919
0.320047182891159
0.327642240541074
0.327072264410885
0.329414802992342
0.315457358449996
0.329760535253776
0.321484203853493
0.324403394484107
0.312805773962236
0.319152645924108
0.320048632203991
0.319559329128171
0.3108572106015
0.321742696527474
0.310456024580143
0.314060838780402
0.311592190041075
0.314676232007056
0.309642198527045
0.314645010839856
0.31280115462789
0.309105234058739
0.306072938486898
0.306574367548429
0.301304286756851
0.306626346200898
0.305727088471629
0.302476259662742
0.293852470584183
0.295722638409727
0.292908802204778
0.2952318242253
0.291535998074571
0.296856902109104
0.285820852872606
0.288616078190681
0.289049152779994
0.296352268880176
0.288254422340248
0.293685695757118
0.283051879697076
0.290539285888507
0.282766476481661
0.285695369235216
0.284079154666212
0.281856560905248
0.279161480151594
0.278424296767322
0.28040095918265
0.282874981767853
0.276602743939618
0.279469304250374
0.27975927357136
0.277364277183204
0.278042534320566
0.278631423722268
0.275412552290639
0.274135104051213
0.27051490456787
0.270191803560047
0.266571778654731
0.27198732319292
0.26765366759252
0.274690156217665
0.268206091136416
0.263695974754008
0.264650603515092
0.265023209904799
0.261396589173794
0.267288410621558
0.261796935094856
0.271267581040386
0.260176539504488
0.265343615151229
0.258399648319398
0.26169392227566
0.25565238373312
0.261823734564928
0.258046557912101
0.259682612648701
0.254375779034555
0.255463938290659
0.252239957624863
0.250693762193726
0.250304885039481
0.257014282369458
0.251007804183624
0.251977612899957
0.252327425918132
0.253434389631056
0.245768793159083
0.246620789039235
0.249044856164108
0.243016560463143
0.25094267315782
0.250274623917989
0.245497456952894
0.248550210258192
0.248762685244885
0.245417097438505
0.247634649684628
0.246710062158985
0.238483673056702
0.242847879216858
0.24310716091809
0.245874565822238
0.239115435169837
0.243033520581018
0.241947540316589
0.245743218540624
0.236461647079289
0.241556243959494
0.235601029463761
0.238565073872517
0.236162221990106
0.242646810562929
0.236399278755258
0.24247159880241
0.239451942825243
0.242032048198176
0.234713052000693
0.234234908805203
0.232612665334161
0.239924321004855
0.229876771768238
0.237328471117139
0.233105029960602
0.235375465088555
0.229792604068543
0.233398261904388
0.229535905302695
0.225408756771862
0.231329756668404
0.231386393317205
0.230934761143681
0.232107929743747
0.227452141286108
0.23161436357977
0.231604621929879
0.229066334507771
0.227299826151621
0.224637135847041
0.224472448100916
0.222942679139519
0.228190217063214
0.224272486660436
0.220865174927299
0.225920876849042
0.222351350612027
0.228371448849401
0.22237244058425
0.226007069493074
0.222679837295792
0.227189431562164
0.222453268334002
0.226577327542683
0.211959009379259
0.219700479418804
0.219092211803119
0.22084595473685
0.217321660610938
0.218624817263449
0.21988748885496
0.221277659996741
0.218170811037703
0.218453040872284
0.215143277684794
0.21951464500113
0.218914127674528
0.219839178697402
0.215776820199689
0.216054670089745
0.211091771192237
0.215727604970206
0.215279470954986
0.216645504400306
0.211313732619733
0.215709281350698
0.212000105527929
0.216387730307949
0.209973340046614
0.215513210227969
0.211543896918942
0.216169526452962
0.210476041730977
0.213494114409044
0.206766105531117
0.209816717794149
0.207166546275944
0.2100597221618
0.20447632719177
0.208442246388836
0.208776976941224
0.204933017859672
0.202349648443763
0.206649813527376
0.201143670938441
0.208137962751579
0.203835064566307
0.204562665996898
0.200023468004758
0.201774593903482
0.199293521073572
0.200508335490349
0.196449981018383
0.199595981082778
0.197385989718404
0.20080488987158
0.197182458410077
0.199915896258936
0.197855199566631
0.196787851044934
0.194829592681956
0.19540417300123
0.192884702052996
0.198770261512014
0.192108214307871
0.196184465879465
0.186375648035733
0.188783026218357
0.190138139527759
0.185180661918005
0.188180541636952
0.19058977675365
0.186453934651737
0.187087771052575
0.18480997025181
0.190085316196702
0.18421054044026
0.187919189697592
0.181929826848688
0.183559241573957
0.183706863131432
0.185143066368194
0.177204558434669
0.183357193197425
0.183086812074255
0.18159998463878
0.181608660977788
0.180395519736728
0.176516774681991
0.176209367690869
0.175100240603021
0.176467866753856
0.173938668507688
0.180651457339607
0.173276297146079
0.175007206743539
0.171711478078416
0.172580035536811
0.174578716967443
0.175061214366977
0.169126253306818
0.172577189654775
0.169182285297165
0.167891713870311
0.167742921058436
0.169194014330536
0.166982948778598
0.169727213165737
0.168972927354486
0.166886582512164
0.167757781473324
0.171387916653081
0.165223814094413
0.165891038354678
0.161308106580407
0.163448908562776
0.161309713576148
0.162935733103471
0.161776774892585
0.162121282290017
0.15707705473086
0.159756005461704
0.156609670082635
0.158244558811298
0.158378339688854
0.160416520680382
0.155902601485014
0.160072037338313
0.155642169674439
0.157810999775983
0.158172773896834
0.156692836009559
0.153735005041555
0.155336523604974
0.151819205129652
0.154772369406226
0.153832487385753
0.156334068079484
0.149253091008261
0.14983787387188
0.152248448433201
0.154297137946578
0.148489853134129
0.151191893011916
0.149253020159028
0.149839523247215
0.147600239058982
0.14963588102162
0.14659006659749
0.154056808194022
0.147252607440063
0.148141648858297
0.146388535078543
0.152248588304417
0.147042089527351
0.1449675091552
0.142522879684853
0.147446433222177
0.144125199473053
0.14689222243506
0.142482431839685
0.146228410641679
0.144819383098816
0.144780956653927
0.137757175326335
0.143226998817275
0.140638192466352
0.143058828754565
0.140441187014763
0.139650568283759
0.137533128067772
0.145502171914638
0.137921709488482
0.140079980421825
0.135142431752283
0.144587822286571
0.131152941204849
0.14023952856647
0.134865010396689
0.137637660982237
0.129292250323045
0.127550229888795
0.128795405687714
0.146921282216151
0.130123811162838
0.13394850106619
0.13049139939237
0.138874093503484
0.13638035253507
0.129335461353413
0.128485473102748
0.140364153958307
0.129831720177944
0.137244587909963
0.133250635014711
0.137960233399869
0.127041195776389
0.137112035186979
0.127944728522907
0.140820936486854
0.130565877393349
0.139307480758424
0.127734653883899
0.136056579082401
0.13099572945132
0.138396848751718
0.126177830594793
0.134739110587298
0.123908762299386
0.131599848937795
0.125049867434014
0.137601244728303
0.124778806523517
0.137240686242885
0.123473494271506
0.126245300143975
0.128320781507883
0.129125802521343
0.12757401618314
0.126923114845156
0.12963597523293
0.122933854900101
0.136253130159142
0.122645866201178
0.134743679529609
0.119270851445145
0.138712595036296
0.113038445749608
0.137474118695599
0.115532551999266
0.137655888019188
0.11587656580798
0.136766782470255
0.12133222619987
0.131947112587033
0.126897499639546
0.127892499908847
0.128183735334812
0.124981969258023
0.124518802571842
0.122761275790482
0.129193749061904
0.125224192069339
0.122710611791319
0.127752586619795
0.123337358931367
0.12758933509281
0.12486730458657
0.12849491961757
0.124912225180054
0.120259885744794
0.122033367885728
0.124444151055783
0.123726321521502
0.123975676647714
0.121819689534505
0.120730373946533
0.119801327318059
0.125521454519311
0.126706730823179
0.124193508315625
0.12421191178593
0.126003064019478
0.123396932357613
0.124563638008973
0.12479563766335
0.12560261355601
0.123488296933254
0.125778931649634
0.125404051921413
0.124670183453767
0.123064757926787
0.126422755702583
0.125826810617193
0.123728484213166
0.122773095142168
0.124507422616736
0.125654308678212
0.125569795824956
0.123647769452092
0.124649384586036
0.121563446723089
0.124106062795994
0.123143942578348
0.125517101633515
0.124560693651524
0.124993646704531
0.124460357711565
0.124926602036961
0.124746538709505
0.126224940852589
0.12633488224885
0.125260961204919
0.121209035240392
0.123731483712927
0.123584020142145
0.124240549413099
0.124876354779006
0.123941505417685
0.123333023917791
0.122264620847026
0.123731634252776
0.123197068610152
0.121166227034005
0.121183165924681
0.124721171959537
0.125189650471836
0.123649781894166
0.1264563653356
0.12464478373164
0.123671077909462
0.122911393188623
0.122455475445269
0.124001308790973
0.126120090277716
0.127506024246652
0.123146839676153
0.12201415868273
0.124371836036645
0.124830458467212
0.125738698997193
0.124310394798776
0.122988685631977
0.125554612573568
0.123334287861576
0.122742558997097
0.123807841320488
0.123650358132396
0.123019915299528
0.12603304840879
0.128914808500835
0.125842508115592
0.124801011514321
0.126959960739048
0.125584244155366
0.12604860315727
0.126745941878505
0.125242160430154
0.123257938038768
0.121409170267347
0.126547697805216
0.127073971740126
0.12689842926087
0.128576232015857
0.127090215746484
0.123798919009702
0.126339493623621
0.128232924573884
0.12838898789765
0.127688542056924
0.126057958960145
0.125532090155476
0.127878120265678
0.128214347623406
0.128537483232566
0.128670421397866
0.126178129092029
0.12634431653263
0.128256810230024
0.127742506929027
0.132222790316923
0.13171596487211
0.129248474990654
0.13032033608733
0.13040833348923
0.127692830125152
0.128682124980948
0.130002234179306
0.128168259572048
0.128660953118857
0.130150829519407
0.127746629713221
0.127779929428081
0.130792082616814
0.132127157400155
0.127859193203586
0.127387857648047
0.129722192565784
0.132110523246727
0.130285191836284
0.128270411020578
0.130661017187611
0.131744773011122
0.131907691061801
0.130737651749308
0.131953061787203
0.130507203294284
0.129964439052821
0.131434062527299
0.130736627376342
0.134463197903006
0.131024005907274
0.129938372619133
0.130803864957475
0.133131696244508
0.1358862397883
0.134102118100322
0.133774796500487
0.132114846396569
0.130308955505372
0.131693522509501
0.132208047472354
0.134437984836745
0.135212887331631
0.137224116195865
0.132068843651259
0.134301903542225
0.136917491148211
0.131335971372391
0.134759388901633
0.135617562921052
0.131631081993807
0.133043013302802
0.133551242412948
0.133325761626183
0.132326912843509
0.132567807251961
0.128876865452644
0.132705224032993
0.13385742433093
0.131950624711956
0.131039802553629
0.134311275784401
0.13213287177205
0.131627685679604
0.131311962123178
0.128524162377092
0.130778768381914
0.126124019122971
0.128374398463965
0.129659185258369
0.130691032453851
0.129893848394871
0.127704440321137
0.130243580696049
0.130720406811431
0.1301283670866
0.129270232661912
0.130663997710984
0.13144774729488
0.125602641414298
0.128094602587292
0.127654443101265
0.125095643342697
0.125156660344432
0.123590780695206
0.125454850435576
0.127034229610547
0.128514694889343
0.126661980112049
0.12442132024478
0.125882846550343
0.126850411759782
0.128090461437501
0.126621086128509
0.124738528994831
0.128476022592871
0.124377558307613
0.125684382616223
0.125489217997542
0.125759338716684
0.124916979500263
0.122118381622647
0.126079355766452
0.124673616411867
0.122381208023396
0.122435297598663
0.123624824933356
0.124847007733335
0.125186503723887
0.123868559458365
0.123223100269244
0.124840790257036
0.121125719458154
0.121589126748964
0.119981347498498
0.123489690075599
0.121817219169694
0.118543289382325
0.125428167725955
0.125286462146933
0.12306495836942
0.12171436479771
0.121990598208229
0.12300796199688
0.120501530155934
0.124144758187809
0.119166978414633
0.121176380778196
0.121582414465356
0.120174912175346
0.121799239489345
0.123210481192046
0.122897745113079
0.121028634020907
0.120606658424011
0.122272578717049
0.122113800454544
0.120002953628779
0.119703151919698
0.121300214545851
0.121238499469209
0.122485805410894
0.124692436795456
0.120384833830387
0.117774297267365
0.120058868164469
0.11809212811897
0.12079686216292
0.121225367279944
0.117887327638334
0.116246297316424
0.116984452090587
0.117112192684817
0.121378849995326
0.120436182858762
0.118685581989405
0.120110683722115
0.117996792396194
0.117164054366507
0.117969914343521
0.114831575713505
0.115301937068971
0.116510505633717
0.115244730714047
0.117040427311583
0.116467120767997
0.11483573488927
0.114411866260943
0.112860261734124
0.112144214123958
0.113894870077205
0.115947429911917
0.114260646875509
0.114751278963653
0.113309578954714
0.112031357551992
0.111886130398429
0.111706214065149
0.113098473744565
0.112825290233059
0.111393768894012
0.110638804151476
0.107701013552575
0.111528763626785
0.109269161222109
0.109876879422499
0.108210141911767
0.10833031789416
0.109228086462973
0.107988591304436
0.110317288853775
0.108402749866734
0.105436386822907
0.108154517222875
0.107796859938132
0.107491343989646
0.105090585260493
0.104951015575187
0.104530457737924
0.105849521404141
0.103192792003765
0.105847682175806
0.10441662200797
0.105002169319455
0.101805748636746
0.101145266279581
0.103765248256357
0.104520430977967
0.103912596856448
0.0998179041236187
0.10154320755465
0.100754702869362
0.101961031949113
0.100849927295318
0.0980684732289241
0.101860362688983
0.0960123632074593
0.0989706754976978
0.0985577422740287
0.0984343782598182
0.100378878742044
0.0995087715108369
0.100134935281198
0.100629128193142
0.0944097569025472
0.100072744849883
0.0977463315272912
0.0964205492860472
0.0978125113335587
0.0987590425376985
0.0958611506066831
0.096744603178828
0.0963166118664794
0.0965685309054187
0.0982956715360491
0.0972546943936379
0.0941598139002114
0.094734549416746
0.0978336700528296
0.100228947445852
0.0950670496015375
0.0944714112473281
0.094725320447059
0.0970254955306831
0.0973502539330096
0.0976209564127259
0.0938659304716556
0.0941641091983116
0.0959132586915087
0.0961542755905955
0.0929522546139274
0.0926386218323843
0.0934206954091045
0.0938236546405201
0.0934935470870347
0.0931180999359797
0.0918945894072566
0.0905098604268915
0.0923960986585319
0.0938345489229604
0.0904267432101349
0.0910414200427835
0.0927733235694508
0.0899850762701953
0.0907695012451052
0.0935344533593724
0.0924765607336413
0.0874811807373273
0.0898729167215417
0.0907319507259725
0.091034449583309
0.0884641631581446
0.0925980080225237
0.0866730556280295
0.0886156495456516
0.0886452688089145
0.0904366983541114
0.0873533735496298
0.0910127339109274
0.0906368096181882
0.0890952486603627
0.0855064291049472
0.0856674558983383
0.0888026522473735
0.0885506353380496
0.0883258031278294
0.0886450789212348
0.0867199671362548
0.0854908247821651
0.0887529500605843
0.0880656209408566
0.0929221021989489
0.0908890099124424
0.0869245207885819
0.0934610097197665
0.086806693898752
0.0901130675024834
0.0865002488987435
0.0878165717900705
0.0912740304698826
0.0866451452065139
0.0900917080094432
0.089181478734568
0.0917604076255841
0.0860257491103913
0.0887859018852775
0.0883349541918814
0.0882805233170726
0.0821423639144033
0.0887347639139721
0.0855734746299482
0.0868667092793761
0.0872020250910963
0.0848921025543112
0.0883058897113661
0.0892345235414573
0.0856729132248144
0.08878953241981
0.0873215576211691
0.0899870562127489
0.0854805379086566
0.0893445315570487
0.0868250392072456
0.0884099063780192
0.0840396009669284
0.0902163441645126
0.084164598051587
0.0868540712159812
0.0868567012932266
0.0857762134796993
0.0841097839328177
0.0878479876451098
0.0864430539748301
0.0872125495063886
0.0853144129529389
0.0837352533393639
0.085556881868863
0.0851173062720278
0.0846123395289727
0.0847745636554078
0.0834030740980357
0.0876434938769801
0.0865486045010052
0.0866288294436214
0.0891864307701323
0.0858347517629521
0.0845958793499113
0.0894243577608471
0.0911527189824116
0.0890339814558971
0.0833118192665486
0.0875909752312173
0.0836787513994759
0.0879428972809907
0.0838503234220142
0.0889391288261674
0.0854952216705623
0.0873768535749056
0.084581431007664
0.0844162109708866
0.0855990172696421
0.0857531736373107
0.0834207115210604
0.0858237882179581
0.0847724572518945
0.0856898444271269
0.0866156260154032
0.0854830312648559
0.0857047942516115
0.0850784093854605
0.0886748575159192
0.0863609137593981
0.0859588495566145
0.0826165503388359
0.093191017958355
0.0864545430606776
0.0889237118349511
0.0864096133411644
0.0864951044014022
0.087778995969615
0.0897838410172135
0.0868958973955015
0.0877082992682456
0.0840598131973191
0.0901765476037876
0.0895280938152644
0.0885960015106181
0.0879735990663666
0.084973977272873
0.0890085030958644
0.0915310082869308
0.0881898704854697
0.0876621019312978
0.0847674936830843
0.093017657365927
0.0878020896828663
0.0902897527059703
0.0899918920026413
0.0869647139177845
0.0918583478829281
0.0910635565260043
0.0899179555354575
0.0899952038614482
0.0927993969807574
0.0895683671606489
0.0933704352509726
0.0891253622130795
0.093044342447093
0.090182644866653
0.0894124821362371
0.0903187696735731
0.0909436941722371
0.0918451997332838
0.0925406347773324
0.0914077936819314
0.0937884297208098
0.0929705316599235
0.0937847671538116
0.0918576639259649
0.0923428780897777
0.0959416183349627
0.0942111906975604
0.0955419448916623
0.094105142405056
0.0953568379503228
0.0973759181359003
0.095049015233643
0.100480553464363
0.0889016016449367
0.102740468964953
0.0944936671084201
0.0989071622790526
0.0967502010808191
0.0994844770090643
0.0962268170612577
0.0977288990851839
0.095860570854355
0.0969559060910939
0.103350551880182
0.097600608005764
0.103263800791883
0.0932156633976381
0.106636846794399
0.0993911957956346
0.106213606497921
0.100920614330288
0.103964274660432
0.102767281097102
0.107168830945075
0.0998242627717993
0.102318292041473
0.110871369641419
0.106304060002777
0.109721394784442
0.103762442433201
0.10769192070721
0.109143978386612
0.103902497274715
0.110560130568485
0.107178315437277
0.110345550427842
0.104964076883481
0.110133958368068
0.112488551834309
0.109003059019162
0.116234253907594
0.110267456510795
0.11106359039226
0.119258359197168
0.11416304994962
0.114233436641514
0.11492430882524
0.115018493545361
0.112661905198405
0.131648001427198
0.114287009422191
0.121978771198132
0.120789211543086
0.128965701463246
0.121580511030375
0.128361028114001
0.124356991114037
0.131486552342336
0.130861015575112
0.13290455886812
0.128352212693191
0.140184567983425
0.138761125771545
0.137403843297118
0.136900578432692
0.137912422316713
0.141452953926882
0.155648834409834
0.15139877174365
0.154197491416174
0.146867615312994
0.149696604375561
0.160231942220833
0.155591370925842
0.158498610551272
0.157336603154841
0.156330295520107
0.161334698676459
0.161657964802672
0.164794810533539
0.165831148071302
0.171111286768259
0.170158457911146
0.166220330922347
0.175994213828302
0.181236103502585
0.181326717437636
0.171790793296232
0.193105254520693
0.179595778889877
0.186166047620329
0.184741970745967
0.186902349736576
0.189354299870367
0.190505546954387
0.193963386526464
0.191673010882282
0.209120975018328
0.203544141098331
0.200604064922241
0.214788579746525
0.212063508969188
0.215108161004666
0.218391873516215
0.28258883754895
0.233548985009474
0.245263504470689
0.250207819211441
0.258803511713159
0.270893061070926
0.2736756693328
0.281559329164506
0.29436285810864
0.297310153862913
0.313909522902972
0.315085421797065
0.324675143109429
0.33562989267643
0.346117371459869
0.342675480110015
0.368798302010191
0.378526170395576
0.391986833950114
0.401548833972101
0.404146640101033
0.416567459248167
0.425993118190257
0.430531525492308
0.45180345500862
0.448175058506347
0.468974458303317
0.497380133591075
0.489409783522811
0.4932583494277
0.50978420696335
0.530386501381988
0.52146723468186
0.549632778242699
0.563524975330242
0.56216668453667
0.58039901967537
0.586423126330011
0.594714422904496
0.609810043385755
0.637905667834521
0.624427294097015
0.643202429140199
0.649393373217041
0.66708785833638
0.674780396562151
0.677709477986022
0.68369321352005
0.691762092477835
0.709447561186562
0.749672027358419
0.779812815141452
0.72043467007439
0.704558456257404
0.723270436579743
0.723972917055372
0.764124517045103
0.710053580873515
0.773117776367897
0.754745010654307
0.746635431414555
0.737677287104224
0.749477620373467
0.737834695397135
0.746099561546463
0.748348150376378
0.760224022119623
0.762003351411944
0.732482796505256
0.75534239641014
0.786592788081139
0.745649017427924
0.755810746716844
0.75897600508955
0.764871856543024
0.752873247012897
0.754383894273105
0.744044943082912
0.769582653850776
0.721429215231134
0.729170838801039
0.711463308116347
0.730372964959538
0.713378413487236
0.687409011180723
0.702537113249449
0.678090959768976
0.676720341577439
0.650908262443904
0.663663020545555
0.692925686925039
0.638008182704598
0.639797290003939
0.622978389694913
0.625082931150317
0.61612765907809
0.608537501054452
0.616991250723553
0.600099452050624
0.584089715687762
0.595316502206454
0.580398289726458
0.583858515958003
0.582269057261697
0.585965540389639
0.567094493495877
0.584273915935102
0.581445824682295
0.580481177198638
0.56768599175778
0.573667858443195
0.570430475332808
0.575188521011967
0.567917759467255
0.572197083313791
0.569537895443661
0.569603532856079
0.565290985184551
0.576433122194533
0.575490272794341
0.564811092552978
0.575892393868138
0.573953462071924
0.573640875794537
0.57215202118948
0.562182152827163
0.570689608741925
0.56935998377871
0.565084770454915
0.56414711300341
0.568398778279677
0.564440208258264
0.544842291495907
0.614050306206092
0.578375937493265
0.555658049913574
0.557090418311675
0.546897333989063
0.554004198904681
0.540804057112777
0.57298604439306
0.566559867217629
0.55911296444261
0.545645570808554
0.544856418047051
0.554365342677004
0.561678266181762
0.54134052976466
0.546109611495412
0.520782831213943
0.561905169027464
0.575258447601878
0.543169474571763
0.5822905484284
0.5516465278018
0.530374767067366
0.533540163160571
0.560374714517054
0.538111755817223
0.539788784723077
0.538647847415453
0.550640863747696
0.545153220728067
0.535500449246253
0.540860535434055
0.531458181812186
0.529594246062269
0.543920796356662
0.523644938455687
0.521846013750487
0.547828416518127
0.509044723975553
0.542339383630485
0.54869698390325
0.518554387159878
0.505806274417406
0.505857896475344
0.498126578250769
0.504557984096169
0.538054724013595
0.490959398910387
0.493152447613681
0.493038783170216
0.480027227919245
0.482471849741094
0.477956683739348
0.47432345099328
0.454149176565175
0.485530111925332
0.446139981225969
0.448172837067589
0.457442604891541
0.467382088394413
0.45655607380461
0.455866510231606
0.438751992308093
0.452923942255409
0.457366666690711
0.436900689574329
0.440311497598323
0.427551715885579
0.421487609959249
0.429116607615318
0.40830551301769
0.408734143852596
0.403677638201001
0.399168391531354
0.402479532587864
0.419779427810442
0.407417892372305
0.388603670120506
0.384042586032079
0.384383547047927
0.376954372874877
0.383094618871463
0.372588854018362
0.382135453683909
0.379928230246862
0.374508004412127
0.405039793801277
0.378681057974174
0.380007725742801
0.382798187520503
0.37669403292479
0.384427636154792
0.386305500627094
0.401711603908706
0.393701024966724
0.390659808902639
0.402527366418072
0.39360231059161
0.404190534843127
0.402470938508015
0.411883088868357
0.410968632731884
0.426721274603683
0.433381983796057
0.435819952364075
0.444696471919745
0.449690749756191
0.458514822663916
0.484354406211254
0.466861721705999
0.484117449484664
0.492738427553376
0.518849918964059
0.52283515900645
0.518185232492943
0.534396983084627
0.538820173077414
0.5501105487754
0.549475674087478
0.559606167754857
0.590533166564129
0.572671358159813
0.579275469323643
0.585452768006648
0.593014606368604
0.587129959367641
0.611762774507947
0.611579561666979
0.591049981565793
0.647731052412256
0.629351982428709
0.632612348210468
0.629189718693274
0.639215553260221
0.640673211056597
0.645537038233761
0.643701907106694
0.644818509730528
0.677994598370149
0.65629834937006
0.655646673008787
0.65755249396043
0.667831370349351
0.669324459841532
0.674762322250317
0.68754223121544
0.676870847806933
0.684765080975137
0.687295642969989
0.668755545203444
0.73413479197013
0.711917054043897
0.700868371776775
0.705577927871156
0.718740305335671
0.720570694921448
0.703149037367539
0.734375974716722
0.749321560829436
0.737738093211148
0.743684887437644
0.747276242823813
0.75451476200524
0.767165271934607
0.777656099782073
0.752231965610015
0.769851198205212
0.761339326405883
0.786278496456025
0.830799566346112
0.774295149805817
0.775721484168746
0.781204664284457
0.792261379010461
0.789744353263663
0.796713196074569
0.794341190493118
0.810073261543889
0.806952988833724
0.80020994536904
0.8114999151362
0.820034251250356
0.804232215316104
0.797921991700967
0.817037899297702
0.806568993674037
0.80481746398585
0.810905093627875
0.802891574256851
0.798806331696615
0.817634978144874
0.832411546688396
0.809208385769828
0.808361477337753
0.81337539774792
0.838885946519388
0.819316329428908
0.805349295871778
0.811462415123708
0.816702557259775
0.815360821771833
0.803479391437138
0.80057577768239
0.832958313576892
0.816867643701672
0.818477501744114
0.833685021877032
0.836245071555107
0.831864470976487
0.829313460102304
0.825830373386058
0.849707235964919
0.85338589423135
0.858896895330958
0.856310168040944
0.854907614458453
0.863419318774846
0.862611687726243
0.85941854762923
0.847555396576209
0.845296552899658
0.846868310258198
0.842781133368391
0.840615495668274
0.835924031285972
0.833236636699975
0.824399810105128
0.822267247215552
0.812336607096179
0.827000714053665
0.80653688560046
0.803575128579126
0.807780190078435
0.798760069843743
0.793352938285442
0.7797541192699
0.774023850537066
0.770980831946789
0.781632738381049
0.782367485343703
0.767173658715432
0.765101455817193
0.762477368437479
0.745272168385181
0.75967900780128
0.766187963453732
0.758565841523018
0.751722623078891
0.748113919876018
0.760603408638843
0.754027303520839
0.743698909365368
0.750729081302399
0.747850411966272
0.746032816087829
0.749236771090823
0.747820629799562
0.742872754965504
0.747023993285043
0.753149005903393
0.75439159509568
0.743353450654211
0.750269229577961
0.755134287896566
0.747398463717588
0.745840120559275
0.748837708317838
0.739505207647285
0.741410094360142
0.738617735034695
0.749695008263705
0.747309290425854
0.743060875914316
0.746407882961888
0.747549194070814
0.744490071104927
0.745886863520487
0.747285499565575
0.746040049240999
0.74756502507894
0.740545868693049
0.747997342448046
0.750258784933276
0.741660672886031
0.742416433235621
0.739242320146415
0.740839282220575
0.738069512625227
0.74391459973503
0.739290663601561
0.735621608544408
0.749830836443511
0.742205057402292
0.735399911965243
0.731370629904547
0.726709329286352
0.720616343571076
0.719356526160375
0.714224751652161
0.705891259203744
0.709971878195977
0.707320786006671
0.696975896229123
0.687605664824617
0.684363456798316
0.67632296448037
0.668766687218836
0.669467330792826
0.669944354802241
0.66442901788535
0.663082627158355
0.65876765458473
0.653219935082856
0.655289746362701
0.653228249150072
0.647850030967708
0.644625991699619
0.649020555092742
0.65374325765812
0.648685993074609
0.645961470851087
0.641925664682677
0.651972630239271
0.651080740720338
0.648046956667337
0.653935079610078
0.656703934375104
0.656828916636522
0.657460964202802
0.66126245918203
0.661468346606668
0.670088704326668
0.673928084335481
0.677145060095952
0.673365319894787
0.674762806144955
0.676816887274611
0.682599537854871
0.683406110376249
0.684818508266273
0.690931308161584
0.684926328271792
0.68652055715668
0.686030983949045
0.687104289937626
0.690412491634905
0.695170139347808
0.68221018385495
0.682271138125341
0.685724325959334
0.682609247528155
0.678444948159351
0.681612491819105
0.683093369736645
0.681540333091456
0.677845266563562
0.677472706399346
0.676213914415057
0.672146358428363
0.670087240234222
0.666274047265129
0.668567277631803
0.665809465519655
0.660403882189863
0.659757933527018
0.658432176128908
0.658867651390532
0.654559812296759
0.653001395326132
0.645544646916247
0.650537706101013
0.649598436105077
0.643551611060844
0.645296295457711
0.633796983100845
0.632324767661589
0.63712998887931
0.637114347250583
0.633606560561433
0.63526480589808
0.634085353584885
0.62699437103735
0.619219274874932
0.62068882436891
0.623198218276213
0.613784220489757
0.610505041956752
0.608515331706681
0.606114710357966
0.599256637267937
0.589476976278541
0.584019552012914
0.580541873830537
0.581072166136191
0.577582721607666
0.569165654187051
0.565724915312031
0.565286723991785
0.566022604943574
0.565772007862399
0.562804099202735
0.556254186531091
0.554628112233771
0.554994410851843
0.552080695711152
0.550895852626321
0.548851515292428
0.545168394163838
0.538240086789124
0.536924940206203
0.529210083026945
0.524163027282257
0.521004442207582
0.512794354977993
0.512540017345102
0.501909457150061
0.490936198623748
0.490362716076161
0.489364970946004
0.484765374278763
0.486704792874783
0.490964168252648
0.493059946069046
0.499464186727262
0.505904861701226
0.514564983484217
0.533153107085761
0.545447401872397
0.561770095482577
0.577734425037131
0.590683541814563
0.614239116050597
0.638466493810996
0.657004455142003
0.681634257664248
0.704362761769492
0.719858651783718
0.745818054596007
0.765371279052741
0.787912540255053
0.798963250804945
0.829268892494251
0.840289982972174
0.856043732185035
0.87977109020547
0.905990910082157
0.911404995497414
0.928646774271319
0.952801544834218
0.964929353461328
0.972031627487537
0.981525623000783
0.991527540733498
0.997181611725999
1.01558597194412
1.026990032184
1.02009102703287
1.02584071857659
1.04184921085511
1.04115036849411
1.03432168346729
1.03394364951486
1.05820372015173
1.05741134335256
1.0385234526273
1.05233590345424
1.05100246525755
1.04832405761518
1.03874076142513
1.05670896936979
1.06899056664539
1.060298628102
1.05037657825746
1.0835244718471
1.08589972309578
1.10026782097867
1.09372174416888
1.10433902025027
1.11286155901173
1.12633007295293
1.13985828701213
1.15437670384242
1.14938840093427
1.1680806218647
1.17535204297281
1.21029673007093
1.21240445610845
1.21882013781576
1.25044206387679
1.25962178300976
1.26723338669047
1.28918267565525
1.29911461031213
1.29311720694251
1.30428641141879
1.32188476847499
1.28893647448532
1.29905730560306
1.31558512257385
1.30450856885397
1.31486676770785
1.30776019435058
1.28938604466345
1.29502470386794
1.2950482542768
1.31008197933245
1.31029370589541
1.29480628552883
1.30861954119767
1.37297480083197
1.3348370466203
1.32084048171523
1.3619564501753
1.43047998096473
1.40711013834684
1.43004996885736
1.4126336791807
1.46106105450924
1.51162994036916
1.54290968517109
1.51405340248007
1.56842372380958
1.52226425510326
1.62124467851223
1.60054783030337
1.60086813690567
1.67293072284482
1.66461759666245
1.67071822577369
1.67486440579117
1.71085258173747
1.79783094627073
1.83421345744481
1.86917459397951
1.82149349568504
1.83933630047489
1.89909356281221
1.97254724226618
1.87097091903616
2.05708099363816
2.04430965805922
2.00271501472746
2.0602169276437
1.98614681113518
1.95813847652463
2.20356044456652
2.28131037435049
2.33482005030023
1.96122152062406
2.78519867181603
1.99687592014493
2.12733414012738
1.90554339458958
2.19226647848989
2.13386475041501
2.07880296104376
1.91224140419844
2.32346557127206
2.20174450969949
2.1186300337468
2.07294220664034
2.09367683593382
2.03921641372298
2.17070975707362
2.20604422582998
2.27495564027531
2.07487643725296
2.23276323744092
2.47409280106979
2.7323723981252
2.37016715094496
2.50363907473489
2.36950081788242
2.22999682759183
2.4004941525133
3.07807218741386
2.29600024166644
2.70355697261621
2.35914361609366
5
2.14944652917541
5
2.18783046406022
2.25067882300134
2.1306552288413
2.24460686197612
2.28403871975372
2.67426193519554
2.34679626111396
2.6158024959435
2.37280631288421
3.06624238776256
2.40996820668549
2.37424662208848
2.55493186640207
4.54219427652308
3.25133867244488
5
2.2370122096245
2.39408012021488
2.38942536972903
2.42225734690825
2.54982222774513
2.64351933794207
2.47274050164182
2.48775605330722
2.24319162917306
2.54057518334443
2.23696032741033
2.8356202858976
2.30964108760958
2.25834447211941
2.00125954873395
2.09846938110173
1.86991821332433
1.93170836277184
1.7541843276466
2.13462812400398
1.74686650493094
1.93598558226122
1.84015649803174
1.85374195189535
1.79378230845548
1.90095551896106
1.72662734186717
1.92738446114854
1.75090148882345
1.88733104856181
1.67821127678405
1.78904980032048
1.65272661499021
1.76387348167921
1.66043309016206
1.78032028923394
1.63736802402615
1.70295258623322
1.55770194119731
1.62769343269346
1.5841215375534
1.54751675525458
1.49152685430401
1.45755810625019
1.44875537702739
1.34615478227617
1.34000437115733
1.26654398564479
1.19479197992053
1.19568022948344
1.1521067101503
1.07779230104412
1.01124522403254
1.02857963690087
0.988789170795994
0.949648290427597
0.891191618161085
0.872204332348124
0.840371235308939
0.830386262855824
0.813612756270919
0.789930885692305
0.782853872666794
0.762490612146763
0.73516878223659
0.735571862983436
0.730879717112972
0.739557391454367
0.707933109741684
0.713266976707496
0.702025555190117
0.721498808051821
0.713114335715028
0.720550817966009
0.705784796394557
0.724197605467079
0.720509987300612
0.725864760632728
0.712135167285952
0.71823111511178
0.702918543605863
0.70414630463405
0.70093296455454
0.703024939615465
0.691949601841171
0.688753636282086
0.683662906054145
0.679320444116109
0.67162881636106
0.672415856633629
0.655644428970481
0.661558555951773
0.65549026474375
0.655826059342043
0.65222414912826
0.665059497159768
0.643243471186855
0.666537084385435
0.660298180559821
0.652519566007683
0.651912983201226
0.676579250461729
0.661670165182451
0.682402111232402
0.676436727003664
0.689648809194883
0.686764999001249
0.692142031763221
0.699210441810287
0.70127394940311
0.695813259329785
0.698000545988892
0.708113883088824
0.707355561775375
0.686494434911428
0.710790898682382
0.710752060269608
0.713722948030074
0.709413161131776
0.719574519643523
0.70948406906067
0.732768102681409
0.725372315810022
0.733081359258693
0.735838562463599
0.76129782709475
0.761410671134883
0.793606054917303
0.805799216547115
0.843072836560972
0.834117761190693
0.866668276480249
0.864071534567982
0.936687944430622
0.881165865345999
0.937845222481741
0.919864094415676
0.934795185549834
0.915984899393972
0.905713083937802
0.891400851729433
0.882922597413057
0.877676719273249
0.883910814597578
0.852372908069501
0.868635650341566
0.820394995837694
0.83817033847204
0.80204191736228
0.834794915258555
0.822384505867891
0.847659606888415
0.860867307625841
0.839883364879271
0.809496472484971
0.85141837746395
0.829374251532391
0.829583647869813
0.807624469220498
0.820579211377894
0.785487827350344
0.826939755409689
0.781783286352948
0.796652558104378
0.775471807983022
0.778574471963759
0.756223325240209
0.766389120906729
0.750818032400616
0.75330168571465
0.741224215078647
0.74999077834833
0.724998369481592
0.713425820072947
0.734887516903346
0.746639242976419
0.718027797283406
0.731628111000424
0.707475177758839
0.705315399134347
0.715477932485682
0.709885739955504
0.694762789373088
0.732830835694474
0.678184778806475
0.704833528306014
0.660494708293819
0.698793018510361
0.654188805815243
0.705480975918572
0.680358642077387
0.675179938290982
0.663240224139663
0.672463466093591
0.670385629481187
0.670944429759664
0.682577234191015
0.678175385289367
0.631056498348184
0.660878871010995
0.661323087656556
0.672850190124886
0.637891421566659
0.654692354174743
0.651640479843594
0.645160513427836
0.633762481890608
0.649320392438384
0.644494083917663
0.642005385733353
0.62792248931941
0.649987152579806
0.635567790463866
0.661557890824433
0.623459011869458
0.665929031699501
0.628803490533338
0.660585536159686
0.666500796561175
0.681187522708851
0.686295932255627
0.699427927354808
0.662946240189218
0.675190221395544
0.658790020792602
0.671396746185777
0.697395437091457
0.711935661976287
0.722065157204913
0.717073236040145
0.704144546350902
0.737771464665919
0.714844315179346
0.751310729092146
0.735627706415673
0.737093350719835
0.797152081577134
0.809574061466545
0.770220261602484
0.881085039725841
0.792057357930551
0.875638182784312
0.924419978736888
0.886173375970662
0.922881248386883
0.937569276346423
0.934466591803239
1.03459089829565
0.965829420871802
1.16042808346231
1.02398521802541
1.11877145286238
1.07248302844287
1.19985804173989
1.07028709034256
1.13408773864463
1.02228128261869
1.04330650768807
1.01736946926836
1.1830768771723
1.06093694216313
1.10200031331711
0.998437174298684
1.06976366980831
1.17157831647049
1.11208964949339
1.12966710516894
1.10066084543582
1.03620618207257
1.11458987968894
0.90509047295187
1.01658908432304
1.01259321133959
1.06270878344517
1.03044790375726
1.06921718709561
0.972235873743851
1.20320002342875
0.863564073172309
1.06395714097354
0.919622775029413
1.09437821651119
0.889255933234074
1.08598994656529
0.874652507282101
0.998157099397038
0.992246744854174
1.02688965040165
0.931189998443983
0.90969639862566
0.888180299697726
0.999375692675738
0.949730481093891
1.04165524455429
0.9006629782977
1.01439010442281
0.993480166553495
0.978115179180594
0.887889224843375
0.984632053003216
0.999039236699663
0.954812346687494
0.9112677221619
1.01008162318523
0.949292033020848
1.17028800801832
1.00392356038371
0.971585779382314
1.04366731460375
1.000451747967
0.988758343379641
1.14423189045438
1.01049334296993
1.17007706283591
1.16060072614823
1.1930601588922
1.04352541246894
1.15022552997175
1.03074525858046
1.19774900218168
0.934059446042878
1.09511662787254
1.01009023770854
1.60798920678978
0.931814977566701
1.13563665867687
1.16960923965304
1.26136551169633
0.973249210565424
1.08006911387566
1.05095848225997
1.3305143507474
0.944155851424074
1.65022508388754
1.30269773382514
1.44377879693245
1.2808700616904
5
1.35955325801838
1.40933180934026
1.18399369685942
1.34528145078561
1.00819189574008
1.12816840782344
1.19743264966373
1.31886310247943
1.54398304651263
1.08060562390264
1.38237790984509
1.52191900987303
1.3273992561935
1.50745761083034
1.17527798386665
1.52955141095178
1.15933400111897
5
0.979242952732363
1.01390266408327
1.04298620367086
0.959981719194724
1.28238908418606
1.71641425993879
1.01581599318204
1.27853282248969
1.60397276500201
1.83543954563743
0.954884521655498
1.06534597717305
0.708647007905593
1.1694808944667
1.1858059480116
5
1.01547101477902
5
1.21490989212762
0.969346434148161
2.38387036298242
5
1.16029274493646
5
1.00922876848286
1.72084468703099
1.22520962836123
5
0.970406760436128
1.033120522254
1.21778857684771
5
1.38134825549016
1.19826443039963
1.8296225765881
2.35658324116248
2.54069496070138
5
1.22208310212503
5
5
