3596
4000.36533379555
650.420452594757
1
2
2
0.0552542044754364
0.0538292181354536
0.0534644462516836
0.0558452180061741
0.0368609250441911
0.0548507820729056
0.049770428442268
0.055235959090144
0.0468537243197135
0.0573634464449917
0.0508108967425545
0.0515227069917868
0.0550212853254866
0.055722246920837
0.0410495573391053
0.0583395318278234
0.049404201188313
0.0588030689365165
0.0585177456738085
0.0535994171001118
0.0534508444342659
0.0534627479378236
0.0458797764950263
0.0512305085066352
0.0559560529227735
0.049961981330981
0.0502259897208703
0.0637062435666253
0.0447188934323918
0.0525993009064903
0.0459622298112538
0.0499565839428098
0.0538287176263272
0.0494091417607518
0.0602216877671786
0.0564551328211902
0.0411069199836292
0.0513181675545859
0.0486162171987672
0.0581583688086686
0.0430731223749853
0.0516913029142939
0.0479378442497076
0.0556141516793126
0.0449883133890622
0.0549826283302403
0.0513163937283131
0.0567775769463803
0.0526719231261948
0.0565881153168979
0.0510993202046967
0.0501830846326046
0.0448896899682759
0.0702713872957615
0.0490762236357902
0.0449193105297224
0.0495619477146219
0.0464864994776907
0.0432860063751682
0.0632575803069757
0.0472738333010026
0.0524544039464406
0.043864029478159
0.0429320436274494
0.0493921161062446
0.0520368475240277
0.0450499129103317
0.0447333723110631
0.0529617748077492
0.0496145612069193
0.0573464535462833
0.0523414072812974
0.0420106546738098
0.0406495359232242
0.0528496563044627
0.0490311208532532
0.042268755892867
0.0516824561128922
0.0403851942711698
0.0467342085191847
0.0497736958367492
0.0420376051401381
0.0484508587217615
0.052201661470475
0.0584740853538875
0.0546550820151614
0.0402252104634679
0.0483845231379079
0.0491907792093158
0.0464819123683057
0.0502548382124298
0.0502555286909345
0.0511600865633932
0.0433769321670302
0.0549051639417848
0.0474974431273315
0.0507055661790066
0.0443270453900981
0.0530356295803678
0.0331985039261938
0.0476467443857579
0.0639829041197436
0.0414259349630696
0.050206496275035
0.0242702484377101
0.0549566211202992
0.0374799158406545
0.0439195555469953
0.0379912550815711
0.0345203241324713
0.0545099455187056
0.050232239626801
0.0508855381847158
0.0393338016678968
0.0479703869830422
0.0390189122045021
0.0496732411827367
0.0367501063883738
0.042006023137056
0.0430876382544924
0.0476917549748018
0.0335152696431405
0.0405972636376868
0.0491014189705836
0.050325717123549
0.0434949766851418
0.0504550928857164
0.0311217562111767
0.0385186951883257
0.0444937421145832
0.0457232681462952
0.0432843302209579
0.0241268804958129
0.0583261738382418
0.0468132100072964
0.0443033918746567
0.0315099081524996
0.0503528239949636
0.0500450330245145
0.0357610517832592
0.0482221244864636
0.0331722615379418
0.0378939225194206
0.0487298027815558
0.0254874283377577
0.0458479383298192
0.0494378494217646
0.0306597554881056
0.0365213514312214
0.0497169578059563
0.0440505667388605
0.0462310121640086
0.046013274666855
0.0399488288145039
0.0501121957674166
0.035130371917714
0.0422913092366747
0.0648746545842109
0.027156324784687
0.0573368476751234
0.0217484736919527
0.0494951218106895
0.0343444983556561
0.038118455815279
0.0365915622962861
0.0462511373660804
0.0561042780235839
0.0332764223122647
0.0331469247256307
0.0413208405072635
0.0400236378629135
0.0367610406549355
0.0482832143054181
0.0310511376092712
0.0467842891488785
0.0419987751358723
0.0392293659521276
0.0419822743243948
0.0482029239158136
0.0525146459414969
0.0397392934043759
0.0542847095141496
0.0315129948139837
0.0497426139400167
0.0461183974413257
0.0368793294631225
0.0416202289981993
0.0423765087818132
0.032854582581671
0.0446883826031159
0.0333506614471594
0.0654496552894316
0.0419706972604874
0.049504049413893
0.023449743130009
0.0556800276013228
0.0342076959209045
0.0406210381826934
0.0378860994871086
0.034006713930324
0.0458374231206356
0.0377595232638176
0.0439293049063244
0.0376914536024132
0.0377347694871383
0.0428521734990951
0.0320949185658755
0.0524235615438962
0.0362117979430222
0.0444055928516318
0.0274273036586193
0.0463465471777388
0.0405391711528273
0.0409112343767577
0.0447397106020822
0.0432144752993914
0.0463218776455825
0.0443297439598554
0.0307648249334271
0.0484896332136695
0.0468079543926806
0.04386584395331
0.0426419304668853
0.0427437082813433
0.039126450471442
0.0530239694310511
0.0430323114207055
0.0370302009099531
0.0328790137040261
0.046038246661417
0.0509146314651671
0.0424876928887197
0.0402287140480465
0.0345348016344342
0.0343325658294339
0.0428833272407356
0.048758574216174
0.044710859627119
0.0409161603019638
0.0433390509512766
0.0409288191643683
0.0417244877716201
0.0347242753745728
0.0490608422790925
0.0398251454357549
0.0621425940998046
0.0385224270481784
0.0487914372482236
0.0291970130505057
0.0511695953135497
0.0370394458680433
0.0487848653996843
0.0348827231116176
0.0461078012659192
0.0454698217885591
0.0540731815203733
0.0577812670922339
0.0419236574661646
0.0410635886469319
0.052864737505285
0.0430626470777835
0.0506497000114442
0.0399888169592073
0.0409224571367078
0.0629926737617577
0.0560739154548979
0.0493493805177548
0.0475869533379609
0.0380017777287943
0.0483032427277352
0.0381696895440952
0.0438137058430491
0.0797325402014271
0.0359572107423938
0.0497653567004817
0.0485584182432404
0.0533223549972473
0.0492172349852284
0.0506033657581001
0.0375548694116396
0.049394470801896
0.0690872276232496
0.0376550918110601
0.0589856119696005
0.0349954434589975
0.0569386602111526
0.0538045762666854
0.0571763947332871
0.050381365599755
0.0489755055080854
0.045079942058792
0.0475211698145396
0.0463533351265903
0.0482888500642858
0.0579325949601316
0.0467475799465133
0.056677960241279
0.0515937713792899
0.0471406387213508
0.0494120718709205
0.060438183744526
0.0409168817573858
0.0606780859157151
0.0465394928608731
0.0588639884141955
0.0503211177225751
0.0528104309022014
0.0524829317409676
0.0587598139514639
0.0529782509569663
0.0640948861777622
0.0449493843862533
0.0548337841813792
0.0505647068963917
0.0574639344018671
0.0576677527045371
0.0575248226364619
0.0487222195231415
0.0684364016847681
0.0556331436238771
0.0563886000596538
0.0524974782896184
0.0619156774569023
0.0539374943350417
0.0643619116528126
0.0636906164067293
0.055833824748438
0.0617474641124658
0.0622083874888376
0.05612387718584
0.0808192262144167
0.0536211624444266
0.0752586128157327
0.0876270032794005
0.0649827488429669
0.0762503085196314
0.062470220770953
0.0691462714657712
0.0573451646405989
0.0719903366410913
0.0710685669647953
0.0701369604751458
0.0728625683352467
0.0740830329221805
0.0720426367226947
0.0771988774088294
0.0855954781795701
0.0872535450113398
0.0650126091426158
0.0872243755096409
0.0740506333247994
0.0813480795226082
0.0973725633055313
0.0730287875746942
0.10289987453912
0.0763114061211733
0.0903292321575237
0.0846144335287594
0.0955254286483615
0.0814261430630268
0.0909704994960172
0.0902684854706605
0.0965244404516086
0.0918632240623701
0.0978852434340108
0.101930937450947
0.105695644956162
0.101330442956432
0.121326956979573
0.101535726110672
0.107635867962766
0.099879561606908
0.131609167039439
0.100559509272316
0.108336101548806
0.14138446632492
0.119089247959782
0.134675605492409
0.110989175354117
0.126084727618303
0.131408952798581
0.128079511666985
0.132143665612612
0.137462667315728
0.135103762757582
0.147192604797444
0.145346892863758
0.151217209144282
0.147785597210637
0.151264659563932
0.153970842165346
0.160286564027806
0.162703041426739
0.162214458639493
0.170858841775308
0.166302365234423
0.194492228911188
0.183249945281957
0.159093847376019
0.173101544652265
0.180682727692889
0.182522307346738
0.190447664889367
0.178434156523483
0.207224924139605
0.19318646811457
0.218502561434471
0.191914590039286
0.200485136410007
0.197247527246284
0.19807912344375
0.204694760861105
0.210307810250943
0.205592818906258
0.232697324740163
0.220227112719373
0.227471022790653
0.227366617387015
0.266513818563897
0.236121280650457
0.268021885345166
0.232853293779334
0.251464595025214
0.239422246659532
0.261263577826891
0.25103969622831
0.281783428829786
0.273407180519274
0.27774198588661
0.267695247782147
0.272523650399769
0.277744529611857
0.281421669042991
0.279914868843515
0.291112296685148
0.29049311921969
0.30054430993973
0.305494593051555
0.33558013123318
0.298009736916675
0.358628601367715
0.305905451775263
0.353492837406406
0.319595917359062
0.323816048135377
0.321520991120268
0.330483191746827
0.344728106520497
0.361290031231679
0.351147931037803
0.375938659500587
0.370353810318265
0.374540575425577
0.369363919072393
0.394333063743444
0.383129349135046
0.394130464334386
0.369665050636757
0.386664826029934
0.390131691148668
0.415889078812041
0.392881801951319
0.473825443735802
0.400309560648635
0.473064978824571
0.397848921013212
0.407691889095303
0.408903233261544
0.449271174337463
0.412967016917849
0.453606089133534
0.449622351298483
0.461013779238236
0.45626587197027
0.477071264315136
0.445504043556572
0.484297905701125
0.476756783551995
0.496210003530069
0.488700488714306
0.502258545300186
0.481442317429062
0.542102281371901
0.481641392679227
0.527953483327679
0.487740170202125
0.52815602691768
0.480403790015329
0.527599504209173
0.518656003355427
0.558402695273717
0.525641383335578
0.575210199315155
0.536074123900551
0.582940922833534
0.547663601633989
0.605701347571974
0.573708569009189
0.588929348032067
0.575419626758195
0.615786774322516
0.556341140876176
0.643572562676388
0.590865138013762
0.635122307231078
0.601436042378865
0.642230551172256
0.623457997292472
0.631823952744107
0.588016354873863
0.655411950799999
0.654264558503927
0.686146023802507
0.652107304382067
0.6903975466109
0.643086012448951
0.719660162581819
0.66839013868995
0.703504507378205
0.632488427897729
0.740011994250602
0.673807349559137
0.733982738981062
0.664298534077072
0.760087617833332
0.711294220951484
0.800154409290458
0.722350708726045
0.759511659039617
0.719142903173856
0.809159324153191
0.681268542107411
0.737103176943299
0.729949252277263
0.775923851305383
0.735608786250972
0.804425151846864
0.786875177043635
0.834753149977777
0.810843411404395
0.867837952589016
0.79196375888692
0.839848684286348
0.781352692556547
0.912879025521713
0.821201074000977
0.888946212983585
0.825575793990455
0.884638493800682
0.79503549768287
0.853932014441863
0.844874945096253
0.877628428840213
0.851828147511952
0.934688241158671
0.834129344646878
0.943502654160932
0.794608752190687
0.941245570067724
0.943918223808045
0.966653487529604
0.927237971684639
0.91263837484263
0.925081326497598
0.977386976928495
0.907948923558
0.956986429594004
0.841040103263522
1.01208695366068
0.889285475181784
1.01712065546261
1.0195764816334
1.11089786514866
1.04866705413589
0.964883009590605
0.948045402780264
0.996437505693665
0.944757404316383
1.0769852384026
0.930311053015984
1.0985972479538
1.11043161336802
1.13057101812626
1.06184253949815
1.04476161134828
1.06269446012537
1.14493535821555
1.03054662909242
1.07868199807498
0.931582883414897
1.07422626103684
1.08183941784156
1.08736698156682
1.05468682523744
1.10964335097049
1.04372655931629
1.16114316133411
1.06764963732525
1.19530515317933
1.16484882373934
1.1438324181743
1.07737976958561
1.18307602936118
1.08309953107763
1.21227338258542
1.06448706768103
1.24312701279455
1.10636738629176
1.26679430541522
1.12870823180055
1.23034836103701
1.17211566579897
1.19315091390941
1.09462804083868
1.20812078213446
1.22102039857532
1.25565801676124
1.16364737766992
1.30823900123474
1.24193170479936
1.33108507256199
1.16321686511954
1.27708315220192
1.12099865249976
1.30601204162903
1.17477556720479
1.27855384002591
1.24832460644556
1.36412345923692
1.16724779775619
1.38268207529415
1.2982417565663
1.31160327248753
1.18301621702802
1.44632089510844
1.32877122427091
1.48303851181492
1.2149041798722
1.33860368392848
1.28761286195131
1.31551805750753
1.16233363679586
1.40505132180795
1.37376956609767
1.4029511050742
1.31070030891275
1.39168515026661
1.28668257912466
1.50822462986902
1.27914472048465
1.30075765258787
1.22413747208524
1.33186283221317
1.26900612039434
1.51588624106146
1.39710820548612
1.5229564178786
1.34400668738748
1.62108861180033
1.53607040855246
1.50006689526193
1.4438221669492
1.51200307285002
1.37030542420322
1.39932499162492
1.40030066126117
1.453533239708
1.32320383121378
1.3591306885902
1.47510293396667
1.69844188817171
1.31096294081833
1.38457705805912
1.49486332155867
1.38969385780476
1.34749785890183
1.51373917710866
1.31644526431559
1.40879477367097
1.39948461443877
1.62315924901999
1.46770168823408
1.55363888184041
1.34617357214343
1.44918201731618
1.43889351062814
1.44186090031356
1.49339305152393
1.66823193747462
1.59907766739903
1.72869624524202
1.41119389845524
1.48215540948102
1.46755470625899
1.45581314224457
1.46225765337819
1.50566048535078
1.40779131783106
1.74660481589035
1.48169729376925
1.49473659132993
1.49860080590721
1.5505005383569
1.39478051402701
1.63458656246363
1.34635191975636
1.42670514638998
1.47535522777939
1.53554290737028
1.36958033334568
1.49774254371303
1.50703987072582
1.56256434934888
1.54719619458746
1.63844144753095
1.62982397220142
1.61290708550877
1.64183068048309
1.54611534999617
1.43546936312541
1.62181456038737
1.46531853379048
1.60062345676966
1.56033301505047
1.53176931304966
1.4681806160108
1.48639506664269
1.4340830339378
1.73986563425885
1.45166360203278
1.66034386767231
1.50703869404343
1.49412357045514
1.53631889799614
1.49573757636786
1.61310065689515
1.766580853711
1.59603026209266
1.43151182348191
1.54713588524857
1.59288654971104
1.51327115179338
1.56228152337497
1.44928006677921
1.65291726103419
1.54628977506838
1.39973128861377
1.30974362133677
1.42099971903048
1.60085851325951
1.66594409129533
1.46528564073373
1.44956568208313
1.70442864656548
1.63368374355654
1.54915908745493
1.57856717873951
1.44956115903852
1.59138110275746
1.44996467079107
1.52845223232562
1.50738656061531
1.61667496053869
1.60414548902836
1.62522989940644
1.42544153126876
1.54830838567113
1.50782673386285
1.43367466730428
1.47765991754662
1.5965409915409
1.82134686479298
1.56279665122305
1.46974695340853
1.56734587327403
1.43443769495273
1.53949441416226
1.55190706033791
1.59729962846652
1.72571607247465
1.52724129002642
1.42080146797599
1.52370522526215
1.46354924435574
1.75619409939572
1.54768861763574
1.49199910424196
1.41957784648092
1.71745613343241
1.7594230867964
1.49568446666096
1.58737525734152
1.57820767713528
1.58515577071771
1.59953871915438
1.47565350540308
1.52391810084102
1.51356423236552
1.48634910327874
1.56960698005195
1.63844485002333
1.48175845630071
1.47354045258105
1.45194630279044
1.54716168943489
1.58489217841107
1.46933381339472
1.49125328409194
1.59116998996687
1.49453553738117
1.41649303163425
1.38394481778325
1.4090480663641
1.45606385715216
1.64305713711628
1.41142022364392
1.41165332093556
1.5068970036457
1.4475823509959
1.54493876823419
1.51678621458412
1.40494394662004
1.42285124624383
1.31724172105995
1.43157342337339
1.48206683862173
1.44468851882966
1.41832812207521
1.39148632056179
1.38207865938405
1.41065868690835
1.41666553863814
1.41374320442148
1.42804474060284
1.43319542802018
1.43307029765483
1.40340625416021
1.32653912478855
1.37828722458251
1.36075606017071
1.45328894326241
1.44692025942796
1.4055187601762
1.35294492190929
1.37651660442769
1.42662902390998
1.37408670540371
1.42031307880206
1.39854573338716
1.4132639060702
1.32296351013168
1.33772187708056
1.34386308629317
1.36669951649547
1.40331507785471
1.26981529143548
1.3339035566937
1.32249709865344
1.33156345498197
1.31496752591934
1.26552911098053
1.27760994643644
1.29970416247295
1.29798363941664
1.24708988366906
1.29630860121198
1.30892155679099
1.29741859726195
1.28906902146974
1.33175784972342
1.34043116048869
1.23579232383194
1.29051234599836
1.28354326400024
1.24693900069079
1.23324432433317
1.21111109167478
1.27641849463696
1.21125107544351
1.19033522506315
1.22099638692559
1.17780304036111
1.2212691520169
1.20398715079417
1.22373422897314
1.19882410116107
1.20115342785135
1.15638799519687
1.14222465731388
1.18102877831313
1.12240975786255
1.13786499339997
1.16478858068771
1.16280261203725
1.17863939882225
1.10326098449799
1.12808181192132
1.1817482060328
1.10594764069004
1.10208667639752
1.09544180868396
1.10599005100028
1.04814789705899
1.05000719430041
1.14226534544068
1.09275074130475
1.07252015575532
1.11481333166867
1.06893088763468
1.04215510516031
1.04942230065401
1.09167050294599
1.11797092785578
1.08212571707886
1.00429488791386
1.02050039114813
1.0500136244456
1.02699092738414
1.01402411938924
1.01235326368811
0.997144615840347
1.0347131673551
1.00187111058825
0.992919186788452
0.989714365162503
0.981293826888871
1.00895190865987
1.02053991364348
0.991036366827395
0.995330632211951
0.969014059707373
0.957991696713325
0.927588492323054
0.936316393507874
0.947882075033847
0.933548369781002
0.948810866272595
0.934599255093375
0.908670852475824
0.930714321522245
0.926692061741022
0.915375177079523
0.903486150471451
0.903338835503278
0.889571386518315
0.909384620920987
0.883616286142864
0.887992050265582
0.925461215047231
0.88525130337666
0.856544285126305
0.879459610487911
0.856836487425745
0.837526240200151
0.834585618315122
0.875796055998929
0.858317162122417
0.834717297828643
0.83221504400721
0.854525451043218
0.835301181626301
0.836972647905064
0.813531093874316
0.816693920718074
0.838616534703272
0.802593802602906
0.811363361229217
0.80629660211487
0.788070715656961
0.793790101454104
0.776517338611261
0.784247877778078
0.7872889839067
0.757781328629942
0.778333876342712
0.799008923912235
0.765496783852877
0.779302341216379
0.772379071674826
0.770904590665399
0.752362359834357
0.757273750753987
0.76095587936244
0.746047236736503
0.735247426228672
0.752092700494495
0.733039032660929
0.749023323316869
0.743473807376845
0.748237441577191
0.738767801794401
0.71628382707665
0.726001477907648
0.711744468151679
0.702734208253952
0.709314213011709
0.701635807800067
0.725387167003301
0.69002177577202
0.686228740957457
0.683830019066481
0.684490019659125
0.678908774803412
0.688577654400588
0.680907643813372
0.671497812473609
0.664546711600405
0.669086253239918
0.669244429533641
0.663880844500929
0.656376432224211
0.669840064842146
0.659420658848964
0.650416664940492
0.658350998167836
0.651071942487233
0.615213033137642
0.634768080523908
0.648663033393432
0.63415216983236
0.626438040723924
0.642649476516697
0.627059291465936
0.616153699707774
0.607655480463159
0.604446275192203
0.61108061744518
0.607764965837934
0.588555400995354
0.593904151890432
0.593032891163407
0.595262315270638
0.59460165847619
0.588183943206455
0.576461391860056
0.564516770888214
0.573020789769695
0.583032376176931
0.571367321980997
0.582299876616868
0.568138097943807
0.561628200156893
0.555753041812937
0.554778462025593
0.553634716614985
0.556565316879083
0.544929441226294
0.547349946855573
0.54085987188648
0.53600464459902
0.524996600847806
0.534323410758517
0.531996269153528
0.532750544333983
0.52430120322922
0.535787838775196
0.527250880248678
0.525484122553301
0.52315034570443
0.526085781328484
0.514101320687786
0.512138802150513
0.513929865085074
0.505610647438836
0.500840649891609
0.521315844268544
0.505808292562938
0.514629732881016
0.513546007546864
0.498301308226049
0.494591250627901
0.502860620290047
0.49563558502898
0.509707856722751
0.51067858793588
0.49692886185767
0.496115722185652
0.496393229572672
0.500459628517358
0.495480849357022
0.490660820520885
0.50499296726458
0.487606419221557
0.489807245690121
0.488761986373575
0.507550239657945
0.501554444723397
0.505106731991859
0.501479945847145
0.502427793226696
0.494095270543954
0.514913281993722
0.516777423350672
0.508112257786857
0.516482677727444
0.51433485308464
0.507088626454495
0.516935509983603
0.517104356403947
0.517363001949215
0.519725197962593
0.528086352730228
0.509678439636536
0.531745135134666
0.531553876190686
0.544485511608382
0.54300343545981
0.547966200750143
0.534572056781413
0.536674646583038
0.544684286767154
0.557958091272568
0.542642107327502
0.562209272144566
0.548569649636832
0.554680745800008
0.567013666669485
0.562664189382126
0.55799985538913
0.570175469493308
0.566252545625662
0.585592847414284
0.571394082835659
0.572808582230942
0.578044840472686
0.576477782692617
0.570149919103614
0.596891892921402
0.586181687498265
0.59386736877145
0.600534608621228
0.610032943140735
0.592578756577623
0.604516322171047
0.604784304713849
0.621258745400652
0.61715888426012
0.619797203482223
0.633265863089385
0.633011817726177
0.633281059264999
0.63466014190336
0.639696504591511
0.649146301810577
0.636453824796582
0.65150518806319
0.64941345491762
0.65589494156469
0.648681994323193
0.667826639243837
0.645668896943752
0.673167844250043
0.651407412791577
0.686871660506148
0.659501207113424
0.671331063735713
0.639701128982517
0.651072789519922
0.652098701885395
0.684154611337402
0.644422243234097
0.673947225558404
0.647690303877333
0.655121942457357
0.63671381183978
0.658115691751325
0.633981128706506
0.656160432798637
0.641925680926985
0.646851817910815
0.632583049402902
0.663688668257152
0.639700765614918
0.644808557915153
0.652173760682401
0.674222942589276
0.637736624134234
0.641037266775159
0.639664731181078
0.658314371094746
0.649439769724292
0.67286883903889
0.64520776103633
0.651476834321275
0.648612291583527
0.657200726771521
0.657852413962114
0.663669431508876
0.626714548359629
0.66053225002111
0.637036788996846
0.647750127346035
0.636642394050125
0.652260251627737
0.64341107801837
0.65444871459378
0.63891252841828
0.66118375168815
0.647740727356384
0.66114673941713
0.638862927531841
0.659709253066967
0.626185004580191
0.658060113621302
0.643603396384955
0.642773782498057
0.634620733727293
0.638376818214569
0.638715473307792
0.63083421705263
0.63332261117174
0.635122959586213
0.620730980993049
0.636189487609719
0.615358765689544
0.610191379448178
0.608509956776638
0.6015227967248
0.598999724595361
0.608002169069921
0.595405897627167
0.596348652950708
0.590258275563315
0.599630834145987
0.572662203559828
0.581569595970687
0.57390162155795
0.565029107236999
0.561736431357483
0.558536205071418
0.549430612890776
0.56116438108164
0.538383823780915
0.540896821061141
0.541510670430721
0.551521421467494
0.518231857634366
0.523045854333182
0.517886937046848
0.532460058363358
0.507927771059429
0.510109695141318
0.497282994652807
0.506321676198996
0.503492898129515
0.498115627449747
0.492205635817577
0.494535739067093
0.47781665597619
0.493487008895033
0.473018975925114
0.486424284432782
0.478461099728112
0.482243857154263
0.466069448248887
0.467086922959958
0.470611520551348
0.470061779561424
0.466619983341424
0.460241981628798
0.459183794452546
0.466728493629898
0.454559758058807
0.455120692761009
0.450442470259553
0.452845256227475
0.447523156624387
0.45277491305327
0.444607818046599
0.44324046221252
0.43931685532383
0.437010153684584
0.434672577858386
0.433053842843854
0.418868826190872
0.441902946388173
0.423978781373319
0.426266450603227
0.426662165920041
0.424963752509162
0.424724140519817
0.423079842168115
0.408500626181824
0.42807048581571
0.411340931398418
0.416460537946059
0.40773887843096
0.415238989801539
0.418487804025565
0.413585742969945
0.403579312703461
0.413936864083115
0.405423161090517
0.407478515998179
0.398594386284467
0.4044901647357
0.407567779096925
0.402270763753706
0.399956159443967
0.391344131412021
0.402508877218338
0.393636834534713
0.395811989215384
0.390656929837117
0.384487433215115
0.393906531160995
0.384820933191742
0.392181826389985
0.38865574369212
0.389356241363313
0.385103399409869
0.383714036783024
0.384162956144682
0.383685228257248
0.370093100439664
0.381151869537063
0.375809830790124
0.374126359803309
0.374941216156067
0.373945808993805
0.371779761050364
0.371296915896049
0.36981045517592
0.372415921933103
0.367684096381478
0.373245445109183
0.371860396162844
0.372597455732652
0.362390371403342
0.370896293159277
0.362547700586782
0.369791200268731
0.358994850597684
0.368344219543719
0.353566721698308
0.366332642781324
0.362471395329487
0.355935571912482
0.35762243342122
0.364355746917198
0.354897086673636
0.362985351180331
0.351362931121537
0.358562138308719
0.356830587246192
0.352646515481791
0.356322079378768
0.356086182524429
0.351103590785584
0.352524861758694
0.348800254508381
0.355489367865436
0.346085791720647
0.355355882363492
0.348128777033587
0.351520407273711
0.34737622919106
0.352914688469484
0.348760113610012
0.347922812982422
0.344514142466276
0.343820091201867
0.342264527403235
0.347087206421895
0.342571416570622
0.34840951241052
0.349072421725876
0.356156760508005
0.343072530495193
0.350498491906924
0.338609277187919
0.346129062868004
0.335962739237403
0.340816426248673
0.336064557033432
0.343617841824645
0.337873178431469
0.342468559659973
0.334662945413584
0.346158751675313
0.33881391697091
0.334753791909252
0.327031115126632
0.331441197606674
0.329897858859296
0.334241877181936
0.332834677471332
0.340300768243746
0.330896915645472
0.333426953733358
0.329379043894741
0.327098395791717
0.33144230093117
0.333682837771983
0.323839325507909
0.330346534572862
0.324721471145735
0.337602836088076
0.323079760864382
0.324055526946811
0.321021912299554
0.323233755236941
0.327083061641435
0.32599879748758
0.325440639567732
0.319838003113594
0.31909412399558
0.323046087504899
0.316342774223187
0.322790092249303
0.313003654170753
0.31915171878657
0.308366745844306
0.318056678281078
0.315879276006208
0.315038567986797
0.314942981911581
0.320631921985394
0.307881585352612
0.310273207080925
0.312093129147512
0.310519535854344
0.306860523757192
0.314414008811582
0.307568666753803
0.306042388481511
0.305154502265633
0.30213132582994
0.29946408977662
0.310855359112167
0.304450532653322
0.304014856183314
0.298163495076057
0.298549642991581
0.295458058086126
0.295690139274385
0.289307413716105
0.299165966787379
0.295424734638444
0.300486166604172
0.293090357009913
0.296417360150633
0.287941857385934
0.292752296864185
0.291525976852769
0.29139824201349
0.287797208936583
0.293215813970157
0.283063016304172
0.294773660873536
0.282306526034317
0.28695818608431
0.28306297690795
0.283537185835562
0.274440336510685
0.281271417262868
0.27792998831362
0.277610027613677
0.274985107264098
0.276746393705341
0.274184398618193
0.277652944873309
0.272844031982881
0.273005545244976
0.269599748826765
0.273366782796383
0.267293851816718
0.273828959592579
0.270664284082585
0.268910309225793
0.267257372958352
0.270296995413869
0.262407427989476
0.262376228425195
0.263826663617359
0.265407624057476
0.260975439612806
0.262695336366044
0.260552498713723
0.263391848442746
0.25418416755734
0.262844283199481
0.256738304263954
0.259213337658797
0.260290489029042
0.260803806690828
0.248325649469283
0.258114677494034
0.251941963221838
0.258144711984484
0.25088174586616
0.252311394150529
0.249249874140386
0.250920349621913
0.245455881509328
0.249028506789395
0.246305874758404
0.248913294882692
0.245623589427556
0.253377681450278
0.24687290794689
0.242559839840313
0.244576655730696
0.250959791877737
0.243634602823458
0.246049929352855
0.241873305808042
0.242279140753074
0.237499530089534
0.241711838914572
0.239856980409473
0.237425554249609
0.241115163073682
0.242192254604222
0.240881921770262
0.239517544749328
0.235354523960571
0.241238522113763
0.234473229180822
0.239169841740601
0.2372799953551
0.236130094211044
0.231468309993667
0.231519069626617
0.237026646082902
0.236415967238098
0.235621560358071
0.232924059663479
0.226292748554825
0.228026685178282
0.225620792083846
0.229198361255762
0.233018432979918
0.232871124779181
0.230955106661218
0.233417519940219
0.229398594608946
0.235156389413644
0.224024632933319
0.228525564505389
0.224138205928726
0.226404658809424
0.227512728089468
0.232152863593878
0.227775963463976
0.229231586015559
0.221536317766581
0.225761237806836
0.226848409268226
0.227682109911143
0.223560118234062
0.22980748516616
0.225248576127615
0.226434856950631
0.221043943570827
0.224395975507783
0.220639044720562
0.217568421112105
0.21560904424658
0.22374283536063
0.226112237469703
0.221060390002244
0.219634341929573
0.224027465176452
0.221181857034393
0.220261908750968
0.219123356366434
0.220383488209323
0.218274102389323
0.215557929256338
0.210683387153615
0.218029316179605
0.218425893196547
0.215954159846231
0.213498233017704
0.21528252390794
0.215581492914266
0.214676272570049
0.213381146833872
0.216702746277462
0.217194219119555
0.217205828867883
0.207770071142162
0.214764602953625
0.210568181075439
0.211125491040705
0.20746827493801
0.210851512831441
0.212000543074872
0.211387244520664
0.209153752638399
0.208482472488707
0.208732049845358
0.212772408709099
0.209394892769968
0.213701526955207
0.208265807701966
0.207276726240359
0.205470226719067
0.207056328335637
0.209991688509848
0.208885739896339
0.207082428855817
0.206315648479263
0.206189041807419
0.2071956308715
0.199937247320367
0.204517515862677
0.203552336215149
0.204006200936655
0.199841840066385
0.207484381385498
0.200994943684632
0.202100436912076
0.200481285068562
0.201427488727794
0.198156442952088
0.204257687702489
0.200810426498201
0.203873664210019
0.19976551598981
0.199755789417037
0.197251502255892
0.197925599720984
0.192997705463805
0.1985911718836
0.198422557450575
0.197381209639655
0.19303670552153
0.193563644867698
0.190985469004218
0.194353735445697
0.194232282328637
0.19139898276584
0.188775526019848
0.197790369674377
0.193463299679918
0.190600805374004
0.189444048668513
0.190564865071423
0.188517459233924
0.191644873593371
0.187965944987763
0.190878460634563
0.187676753506781
0.185528241271923
0.185394147161636
0.182636843283803
0.184030192585185
0.187705298769315
0.180175564427296
0.182805149533414
0.180429326864327
0.184420779310444
0.182784638537213
0.183497398036215
0.181737064347204
0.181517461601439
0.18081545067473
0.181079112146308
0.177811937293852
0.18138392699419
0.181100351434399
0.180864212581357
0.17705739884693
0.178653030053913
0.175187115932016
0.178090710997695
0.173932732068637
0.173630335633173
0.174382994678133
0.179415371260893
0.172271220047576
0.177428931863947
0.172974432076573
0.172020100183741
0.168487194114673
0.173918993673207
0.171680786524419
0.172702248214842
0.16952704771173
0.167653063514912
0.169943280782543
0.173398326931077
0.16960484658159
0.170407790920019
0.167222289500359
0.169541093076001
0.165327531058898
0.166182166488873
0.164116988914278
0.167912180151483
0.163438954815521
0.163197477469585
0.161108758422672
0.164649204012325
0.161272483047596
0.163491356255043
0.16089272354062
0.161957538408355
0.16172420927426
0.161070049055543
0.160666133852495
0.161139720791089
0.156347083120756
0.159443644826323
0.156045709181624
0.157349670953391
0.157019087501946
0.158614699556461
0.157737547352126
0.159446069178125
0.154250641073181
0.156900537626726
0.155780927793342
0.158762442173945
0.157017097885252
0.155826928843306
0.155437391605098
0.158294529794218
0.154073215122282
0.156349602655451
0.152207637713421
0.154752965106756
0.153548977247958
0.154959313676124
0.149980849935778
0.154178668638988
0.150576283722002
0.152792654501535
0.151207571896889
0.15362517633775
0.150310180609221
0.150677265065763
0.148941781245691
0.153453502325958
0.150560599274772
0.151706417403603
0.144239052800059
0.149702762300213
0.149038426918996
0.152371153037853
0.148640093949679
0.150306059493347
0.140672449931677
0.149476071631673
0.14799557709611
0.145927988233908
0.142235771995226
0.146172139077444
0.140587215795737
0.144625581943325
0.141463472211925
0.147179565727411
0.138197926175824
0.147452476174335
0.142493301527581
0.145100373648266
0.13729424219292
0.143230182808542
0.138001363260589
0.147961404357895
0.137699169445918
0.141568423308453
0.135681452930888
0.14089108445198
0.144717673448324
0.140303697029877
0.136109118613916
0.143671159507371
0.132599898978892
0.140598306038596
0.1389468454536
0.148937219506162
0.133401754092305
0.14613041452635
0.140096879510097
0.145133006802872
0.13433886298878
0.142081454731082
0.135175992798669
0.14432897887434
0.132676171461574
0.138579650742471
0.129623994989188
0.142146247428486
0.12920746630055
0.139384062916725
0.129582628440325
0.140827431754962
0.132891473007027
0.143073338971821
0.130536020530769
0.136360608520252
0.132986282834062
0.134775599170409
0.134996128650669
0.133355677025714
0.136250638285553
0.129892324356759
0.141659387582265
0.13190696655822
0.143289919301932
0.127591725664944
0.145721312275694
0.120800887257685
0.145471497942047
0.120705502291261
0.144662551737491
0.126145391884097
0.143047337765156
0.130467928301269
0.140296145171321
0.130592723127116
0.134456040869492
0.135975937093219
0.134278533789965
0.136574547561248
0.131625061491876
0.135425432609836
0.136022247957987
0.131634474813265
0.132109404811376
0.12968618449661
0.137049223943391
0.134017734283956
0.13457621684829
0.131636821190171
0.132786217644435
0.131665467354831
0.131969962615249
0.131631434450949
0.130775277167235
0.128892319902998
0.129929768480569
0.128351504146707
0.132535626524693
0.135371563564284
0.13406501881805
0.131520076328758
0.13532590603013
0.133915504829494
0.130669642602688
0.13253094336682
0.133296013879833
0.1311263794376
0.132574540720353
0.133326268165877
0.133193982466314
0.130081140130494
0.132423724260368
0.132494333447328
0.133700166802334
0.132809372738457
0.133618280149598
0.134328741291068
0.134100968918451
0.133891536754548
0.134986829434995
0.130540322474426
0.133446295194269
0.131008701816147
0.132719570700945
0.132012399694184
0.131017731168144
0.132446577512211
0.13318728775052
0.133001835175411
0.135900763390346
0.13326443364349
0.130750823924467
0.130857546584349
0.133768361499304
0.131942506946795
0.130545496361566
0.130959959551742
0.131479167598955
0.131101691507406
0.130854674664919
0.131516485606863
0.131461809472439
0.129348390416375
0.132413484989973
0.133580710456331
0.129664115785401
0.132491748408452
0.134798340945729
0.132033439042932
0.130539274584946
0.129130249209818
0.131301036367198
0.133127387412079
0.1326341579434
0.131542633911684
0.129062587443411
0.129499266114695
0.13120825287465
0.131152591075519
0.130423437024617
0.131135755803271
0.132145883691946
0.133650692497694
0.132437895219941
0.132436287358664
0.132734397959974
0.1336252632131
0.133317034271331
0.131550223089357
0.132286966206807
0.133858683528196
0.13106135417029
0.132037445844761
0.133137158599089
0.133822892143867
0.133272610819276
0.133201358577406
0.132844365500359
0.131989656420178
0.134262928582291
0.134587846020364
0.13422041752637
0.135479956387833
0.135982136814933
0.133992337269155
0.133480776452009
0.132953587567123
0.133461651522874
0.135135364987402
0.134454769775668
0.133135489780411
0.133526265042514
0.135193752822539
0.132747591237419
0.137476768644067
0.134103481230123
0.130973161081566
0.135868530318728
0.135063061575022
0.137554251166008
0.13570698048802
0.134450146193037
0.137076648750504
0.137710586470234
0.135530060171524
0.135533964115807
0.135561313186023
0.138943621858678
0.137670800445623
0.133042395312346
0.134907980391135
0.137655528541956
0.136312040827285
0.136060815320751
0.134784798475088
0.134029799004391
0.13502408545264
0.140085811981268
0.137268705921234
0.135204319366312
0.136656846402779
0.137043416816482
0.136757998596374
0.135135780560384
0.139291283686473
0.139824799241232
0.135147717991951
0.13796883680129
0.135924652921306
0.138787290140414
0.137543268605173
0.134490995948349
0.138634490660986
0.139983395390309
0.141311592144713
0.139068401685974
0.140024800553563
0.138592993979999
0.13827364325538
0.140185735820068
0.139127221905566
0.142180598056193
0.140355063439025
0.140112412536288
0.137868194148731
0.139550498231963
0.138907285701125
0.136949036236582
0.139151160133746
0.139307758322061
0.137443015667728
0.138317611273717
0.137280706965397
0.136207468948928
0.139041349434764
0.140765268834952
0.138386698108003
0.139390409810201
0.139505758677564
0.13658699532543
0.137125379616695
0.139929418779894
0.138329372849884
0.135938764792602
0.138088925716557
0.135920532002574
0.137238152616188
0.134498891107203
0.135870538635007
0.136548257983836
0.137833627730215
0.136543921259957
0.133927428068353
0.137286517934314
0.136641551887103
0.135436053730715
0.135504403013152
0.137341988725217
0.137071076565299
0.134996971412917
0.134114343165643
0.135382195268377
0.137165669343538
0.132505928034043
0.133722008819297
0.133132797952752
0.134587549996787
0.133826488942613
0.133805911751082
0.13359373500479
0.134807423276877
0.132582163495542
0.132651403460089
0.132980893718963
0.132853816429262
0.132044573871975
0.130321136089985
0.133277433432537
0.132673790845544
0.133044632013119
0.132416875449381
0.130524056334601
0.133317202935185
0.133793742345223
0.1321970977504
0.131905536129824
0.133991182722734
0.131823839654937
0.130223934224519
0.12848436274387
0.129281761192723
0.133803065261762
0.129062864378662
0.128847718612273
0.129454029171279
0.128994883210607
0.131883116321719
0.129593819208038
0.130032720076348
0.130434230131261
0.12843576775266
0.130294236946588
0.129511183786062
0.129368758872833
0.128998412881077
0.131576797976589
0.130066007869418
0.129032875399561
0.128807996473542
0.126071594509124
0.129650025807628
0.131386454925773
0.128152519940755
0.128971212009076
0.12682113319238
0.129351348256241
0.125733287452703
0.128041286442715
0.130433073002999
0.127361529910313
0.128957756976123
0.12436869460676
0.129467893560069
0.12660737169842
0.127320231589345
0.12698457546742
0.124232945463805
0.128967697964842
0.127740860769486
0.124424239716315
0.127528744718726
0.12877763307045
0.126765111990181
0.127102158317439
0.123944121513093
0.12678005959875
0.124288350212278
0.125344840722212
0.124931228482156
0.123325163089991
0.12390369152309
0.124689095308921
0.123426624463332
0.127194383171099
0.125581371124333
0.122503550249595
0.12421537226499
0.123065829534239
0.123135268554909
0.121732020043412
0.122019698955885
0.123021336194125
0.120761057321704
0.119871796567033
0.120186831525034
0.120035436513856
0.120188283897824
0.119811235363579
0.123555513122063
0.121399978612554
0.120932543243054
0.118338282416851
0.119691613653182
0.117507859058508
0.120056944461389
0.118950740494043
0.118864466511717
0.115006993627169
0.11750128417631
0.114265981606152
0.119134056040754
0.11574642406092
0.113331963253035
0.115409450414774
0.116353111214457
0.115292435816103
0.114954906510997
0.113029658729374
0.111873914977958
0.113129622681967
0.113041086157703
0.115547055725815
0.111878167104483
0.11309459099216
0.111733972589259
0.108724651841336
0.111927359830082
0.112389567493594
0.109209627082945
0.109408169471894
0.111304625669157
0.109458143946137
0.11116981106603
0.107591071189157
0.108384463944881
0.11207866705311
0.104448168797631
0.109401319479923
0.107521543689603
0.108693626795374
0.111055383145647
0.107150627688722
0.107749843954954
0.108437883803359
0.107873308330043
0.10923899699494
0.104303322341001
0.105952825366821
0.10680101772807
0.107792494505046
0.107214730995129
0.106849064169185
0.104221886234497
0.105986326306219
0.108904722448714
0.10487775661578
0.105722778956521
0.105386099040716
0.103698140592642
0.107112162777276
0.103763483165853
0.104114116889918
0.101778972504765
0.10632054216495
0.104601877699432
0.105005730086511
0.106566817832761
0.101835151234163
0.103245450898749
0.104416047888375
0.0998731315840944
0.0992670741689271
0.104491375388071
0.101996267458215
0.102774806947524
0.102139163638763
0.100380157384841
0.101015089119167
0.102828525868291
0.102384225131075
0.100017303855512
0.0976153691834108
0.100371047715449
0.0993378934330425
0.100715140050387
0.103278962772067
0.102554764174826
0.096578296953289
0.0976499425021158
0.100993542897015
0.0999914552813532
0.0973659983319278
0.0995761416962617
0.0968386802998711
0.0999200705793381
0.0974650296263523
0.0982905650423467
0.0976425257340149
0.0991459588030078
0.0988339702046785
0.095981325089284
0.0958775716298809
0.0973127341432378
0.0948966300573547
0.0980379570992217
0.0977436826306219
0.0954575596269462
0.0958340025420179
0.0946168219467598
0.0996617619671036
0.0952018683782042
0.0989825708919265
0.0986443847737156
0.0969363278080888
0.0994748141051826
0.0965641661286642
0.10124823644064
0.0945497819557587
0.0938721391115939
0.0976559832664014
0.0952244493650476
0.0953790416349296
0.0953615804587764
0.0981734118250447
0.0952357143441199
0.0962930320967235
0.09584841690166
0.0949173437478571
0.0928843922372603
0.0937882423064869
0.0936748612747641
0.0943749992659744
0.0938806194958463
0.0924915206055239
0.0960558899414764
0.093654035634967
0.0941249783725276
0.0956452927044302
0.0963552673981858
0.0954427810716042
0.0941558774517221
0.095883146480446
0.0949582187194914
0.093134894140395
0.0919909405451017
0.0952084015791462
0.0904846542934863
0.097519731508899
0.0931446131396157
0.0921146751886386
0.0915860018125089
0.0913816027064435
0.0927584798873798
0.0929929143035614
0.0929712108833102
0.0919416630325037
0.0931103822761857
0.0902670097526769
0.0899633242834857
0.0913432680298368
0.0901843954508291
0.094758192885374
0.093433780307982
0.0905137419668635
0.0927859352727191
0.0888765939662128
0.0915723514147413
0.090743580708366
0.0902398007590892
0.0946448497178319
0.0924921009615592
0.0923221411836553
0.0920342143841102
0.0944928680320109
0.0900883767254897
0.0944620661505285
0.0902949758495743
0.0911338841554995
0.0899492604010992
0.0902646702235834
0.0888608458716867
0.0950001259483945
0.0918872309404225
0.0938098644260918
0.0890511087462896
0.0906473468775252
0.0887538088832028
0.0910827601190577
0.0895065510047572
0.0919257230586134
0.0896968132551565
0.0909630850743511
0.0885293883095071
0.0903188632631998
0.10042560515078
0.0900632990345389
0.0938382884602673
0.091614950673223
0.0934986346627895
0.0921519219803064
0.0951026925951327
0.0907569141807481
0.0913341831834909
0.0897352684736821
0.0935067247158372
0.0897235625204046
0.0894173291203219
0.0918386866666777
0.091464067583241
0.095093262726324
0.0953534677032581
0.0912851952783958
0.0930192224213803
0.0891908939872097
0.0984980604660863
0.0931908144247034
0.0936358592985313
0.090308541849972
0.0909902637831383
0.0928547802782872
0.0927597727481242
0.096680726488144
0.0933072762922906
0.0958066858988362
0.0925703406226192
0.0930908901634761
0.0911477690346163
0.0953481700066233
0.0941924553761796
0.0953149378005206
0.0960662050842923
0.0953757761822843
0.0949958763723317
0.0972899277540169
0.092840596590934
0.0983579068064933
0.0935125453868166
0.0952442828115663
0.0959746636187811
0.096893160166674
0.0958509329234898
0.0970667704143634
0.0985425394170397
0.0965895308819382
0.0979511028085443
0.100007044321354
0.0943154793182355
0.101252213788294
0.093674421277177
0.106267119428186
0.0923778279889282
0.100532139802361
0.0973531596287017
0.101188336276
0.0970289300176479
0.101602108713181
0.0995903882026434
0.0997010317321442
0.104210778943536
0.0986497644347681
0.102732176213067
0.0990592444405318
0.110555467257999
0.100911095556056
0.10758987176354
0.101688702873416
0.106189613917362
0.102381237433206
0.109742726595743
0.100577736389667
0.106010805324005
0.107854686473356
0.10456385170259
0.110836619056096
0.10021543991489
0.11059039992369
0.115262307359675
0.105433308374696
0.111787141014655
0.108142437406653
0.11101046692925
0.108283766546396
0.114140303345886
0.114392538967225
0.109694267256355
0.113537460000309
0.111805046069663
0.111552656303025
0.120051098733931
0.114045816931491
0.11721680391199
0.114581031850131
0.116822580161684
0.111854014764716
0.132662946356714
0.110460651190229
0.127277058182373
0.119980079510359
0.129656025994551
0.126532287279485
0.127094268626232
0.124149399237495
0.127387462941047
0.129366069169389
0.12940102433359
0.123160771196595
0.145009530580661
0.133526335039843
0.134553994236653
0.134963910108324
0.137236352340305
0.139856031935876
0.148184240355081
0.149750152089985
0.1527038051623
0.144098905924524
0.150844068153966
0.154490479074275
0.149523873271144
0.15314651951835
0.154714126700003
0.154884410643725
0.158122195804369
0.156967196245955
0.164725425573671
0.159459163197321
0.167416242258761
0.164149757166765
0.169012960234325
0.170568205989604
0.180838889124134
0.178847898290111
0.170140084305608
0.18657825509035
0.176109821003232
0.18225548159315
0.179003597887416
0.185479192713573
0.18841601196416
0.185935452368054
0.189156476852824
0.188104126723766
0.19850514313096
0.196049652884442
0.203726733502474
0.204305698289568
0.20593129964565
0.20761195664599
0.211200314616495
0.261710807348621
0.220726983144638
0.238115619131728
0.235355961378669
0.248862900827316
0.268139853639987
0.265792779745706
0.274949338911864
0.285525623001891
0.282799058608631
0.293967245609863
0.305501903558816
0.318212204121943
0.323543372523661
0.331390847639748
0.334695685150717
0.349412184014833
0.342439739617054
0.371039703772047
0.370767628224325
0.387025566249755
0.392100391020368
0.406786923236129
0.404891325081617
0.429290149178485
0.426873275806651
0.440094310748036
0.466656141415075
0.460870164929592
0.465863654366712
0.475069169598761
0.500670518734744
0.499242344163923
0.533984444881077
0.542820118060912
0.532623557578199
0.544330595959172
0.559236681977367
0.566810463072219
0.566500045610067
0.590761102625867
0.603296212010235
0.607547663699942
0.617802499215609
0.621957571679828
0.63363577864369
0.65091807675647
0.650749080288642
0.667034693446038
0.697448794296617
0.694798544150864
0.768687959645007
0.696766147281342
0.667399835282034
0.693387986286229
0.67152390655857
0.692431278117536
0.688887297621435
0.710371734806661
0.70730850585611
0.705391947902003
0.695465558507176
0.726943835802818
0.710683132614415
0.70309043066649
0.706515161953797
0.71202725400681
0.722333864777034
0.697641471327573
0.737303910914447
0.831406907313352
0.713683355429491
0.727174184573978
0.704805029300763
0.712067900952281
0.721387089510552
0.72189507906276
0.718446097494757
0.740459464880411
0.698181556477839
0.696035252095154
0.678260412436135
0.710293342549387
0.67367796868297
0.645611927837025
0.655272951626774
0.651955853672068
0.634874334544204
0.614247464554824
0.619801391148403
0.670345141677419
0.596847179805464
0.602772458425645
0.589122102141837
0.584242839011729
0.577597811597893
0.577025202861895
0.574317815323947
0.576796481417143
0.562965542157987
0.568571842366511
0.56120684914458
0.556868631652252
0.54692986121377
0.543754084227962
0.539052600216579
0.53895071487744
0.529858384978838
0.535585213571508
0.526081865251226
0.531208521630451
0.529988757421973
0.537602717979358
0.525468324483536
0.536219191952927
0.532422065469179
0.536893341554581
0.527505278015147
0.533098588950944
0.534453108980372
0.533865543934116
0.536338685897521
0.531483114462496
0.535009961747012
0.532032866246652
0.529871775455921
0.531557502250221
0.529948070735109
0.528701214199735
0.523609997551417
0.527964697586806
0.523666590522287
0.514981777853239
0.56553618287483
0.543706098439369
0.514392706983582
0.524384522844759
0.518686552699605
0.520985101937066
0.51243043412634
0.549704322342432
0.525892197056121
0.521753515459837
0.518495128919189
0.512917792748013
0.518892810955159
0.517165679214971
0.509852728903068
0.519748456077718
0.496391275464537
0.534847624725596
0.531663550149365
0.506176899205299
0.556467929576306
0.518758477269616
0.508066366057025
0.523010881609434
0.514801820670569
0.503891741974711
0.509695246914225
0.506645490070517
0.515677388803795
0.519159949769871
0.509617845569509
0.522487904033259
0.49657331190891
0.497350514460745
0.51324382660381
0.496711698022857
0.507109286985182
0.520071861910105
0.493629461815181
0.499928947127128
0.488553905383714
0.497774275371845
0.476189635010068
0.480672224415771
0.4714551127746
0.4622511029734
0.497458222551404
0.462389370702233
0.464838072866858
0.465243686535711
0.459083251039776
0.460954909921567
0.450163527886427
0.45545476032484
0.436902342668557
0.454979917249102
0.425701621844886
0.428170173465446
0.431526907389107
0.45050745090185
0.441659850963468
0.430326518236048
0.412107147552203
0.422382414909983
0.435494994689217
0.41141331629855
0.420750116033038
0.405357178854517
0.395428246621371
0.40704840603695
0.38853642092835
0.391548670098701
0.385997621845356
0.380937460300188
0.376502138352955
0.393463103129526
0.387459906353389
0.368802921802576
0.3633848338816
0.367773409874328
0.360343695443144
0.361572399501171
0.349456463868543
0.364298880725407
0.356449985341966
0.348262603023234
0.372469049888989
0.358756712229048
0.358561708754045
0.360711673767301
0.351750777165872
0.350626188770601
0.36282008201663
0.37141862700807
0.362621631660413
0.363348456601515
0.373865950267304
0.369259610423447
0.379970369372755
0.378541203910807
0.385294515205874
0.385830452754086
0.398784982906831
0.401149971668657
0.399818405635506
0.413165217443016
0.411213814311572
0.420698604700869
0.448995867729195
0.433498633845224
0.457233498436919
0.456082464982261
0.482809803236322
0.489954934432578
0.489598465374639
0.497190760984809
0.496255712552079
0.503652060865508
0.503598314356318
0.514052498605356
0.552285538474636
0.528950279282957
0.541518800496312
0.54054994652642
0.544208098282598
0.545381905265127
0.558047448912041
0.560763519537586
0.562906011773905
0.581822231966412
0.574411135130704
0.578629557313181
0.576471127530889
0.590050294833562
0.587483169555829
0.59030010360078
0.594682240106755
0.590561539921793
0.606831847796445
0.597726249977277
0.597573823577789
0.608567013210084
0.608594053634278
0.615046907282348
0.61257200874416
0.622339282318
0.621361129177738
0.620620450576946
0.629599137859362
0.611174818662546
0.669087956273195
0.650691206229914
0.637737548959292
0.648713139741667
0.646556627567793
0.65351658184663
0.647912250605545
0.661842302345103
0.675010119952753
0.677047003479823
0.670607931358599
0.670660311678092
0.679908213112164
0.676459970738542
0.697768167877471
0.695228985049915
0.708327853095624
0.698873230212381
0.685182353234116
0.736369568898324
0.704165501197428
0.727165818454718
0.72694344321253
0.719573717676332
0.724590884390122
0.728407776617093
0.731974663300076
0.73904315674803
0.730838263184846
0.727799066851692
0.726663885274874
0.73699406045454
0.741199951924323
0.738869111017105
0.7512584555708
0.740630385325996
0.735285586409753
0.737634931358791
0.731252256741771
0.732364923023864
0.737431983024933
0.742945190890005
0.737752692891413
0.735560402065726
0.729505554842063
0.73486160486893
0.738116185801131
0.737002835705449
0.73993511997167
0.735947545730184
0.73322536932066
0.734282892220861
0.726542117962013
0.751746905529954
0.75183889351548
0.756956680159872
0.746101966183539
0.754205230383496
0.760267272599216
0.760577963885767
0.764472864857219
0.768266764198912
0.766126342574072
0.781112941891817
0.783378493694894
0.775500592373782
0.76897290859555
0.773924115140292
0.789034763811409
0.781112413291868
0.763534517329724
0.767777588574028
0.773342173054575
0.776673528513141
0.75709325257524
0.750315117862497
0.751777777379748
0.74175939494477
0.740342486008542
0.762338621338427
0.738254615908327
0.737421367001484
0.734679696176491
0.722123692465204
0.716648343762148
0.70823332136398
0.708897114051062
0.706145401344778
0.70724336069026
0.697261773224568
0.700916144867122
0.698267226391985
0.699099757654999
0.700234667183665
0.692005647755304
0.690296534700986
0.680061791160748
0.682123747065435
0.680555073829393
0.683460879354394
0.684069153462414
0.678212364168638
0.67423228112383
0.681894838782876
0.686553289526554
0.687087517356831
0.686101170248475
0.676138687415118
0.681003428079562
0.677342702366841
0.680910491971046
0.682590443822734
0.688773136647233
0.685696406331881
0.68423632431226
0.679448037170639
0.673897966879283
0.676748634764445
0.679998660500178
0.679669059295415
0.682528367338899
0.682834301954252
0.67938621933892
0.677430793660453
0.674996120133084
0.675221961104213
0.678708335390778
0.674729223498279
0.680714153275495
0.683275307207784
0.674786219375559
0.679343077429872
0.678546896274813
0.671848139617464
0.67305107093369
0.676829793215671
0.678762167626155
0.678637173914879
0.679535108082801
0.677804676639028
0.67833169753914
0.679483026880569
0.672734338077471
0.674574535336411
0.673236176382895
0.653195380253869
0.654324389932319
0.65857385732023
0.649643498873928
0.644021932467739
0.648445951177238
0.643602742850335
0.631842352968637
0.623378992944998
0.626091337642924
0.619054311824218
0.613914357727758
0.615982935064516
0.610584901347435
0.607787210211364
0.602104730928018
0.600953570581366
0.60031276537114
0.598850916371072
0.598408475240641
0.596145708817673
0.590587549696642
0.595782568221361
0.594409652541926
0.591437954531365
0.589807219406758
0.593038582840652
0.589555025772081
0.592290390520647
0.592105421219496
0.602936765281854
0.600766642362178
0.597013362021449
0.605728274319191
0.609857928341399
0.604560737139884
0.610255591256706
0.613994110387135
0.613626023073118
0.61168598102973
0.613865768619023
0.62351202203655
0.627578337260636
0.624458938224528
0.619159498014919
0.627477467992069
0.623055207475021
0.624931552316572
0.628873792958925
0.626233128208774
0.629551514762824
0.634218338584723
0.627853597454208
0.623431977700324
0.619863169348189
0.619294468199972
0.61886227882292
0.623462774859075
0.622859800540647
0.623495804531486
0.620830676894195
0.616930243695477
0.610953280907389
0.616513301670766
0.614460980068742
0.605694966914239
0.60829981709418
0.603716007579489
0.597799895753122
0.59830697679124
0.597448712745458
0.602070210986192
0.605124531677013
0.601170139411468
0.593577270385983
0.592063640123237
0.589525005154629
0.590247474012971
0.589028051634486
0.587909688159882
0.587915286968003
0.583004912314275
0.5829180377508
0.579877692151083
0.576476160922708
0.574016158385551
0.572283217590087
0.568072515510152
0.56738826874223
0.567588800975236
0.562529491859054
0.552732600025747
0.551381250213717
0.553337200852438
0.547149786833877
0.543200331789331
0.539661847210836
0.534193692859047
0.533096991565742
0.524775662405433
0.520822272662886
0.519563216377418
0.520055952322038
0.51845121467921
0.512613037305586
0.510118887314004
0.50687809921237
0.505422594769303
0.510489985747643
0.50473308727082
0.503853021883452
0.501433393462036
0.495064857155101
0.493435916360255
0.492316256034849
0.48488385985345
0.480667777885926
0.475735162173227
0.467509704162452
0.462515318855688
0.455487744229685
0.450439273015069
0.449633337282627
0.447658374731598
0.443760701733362
0.44517068350784
0.44913426662552
0.452811382806422
0.456609481296153
0.464033884742616
0.47186022495705
0.484978273231307
0.495060276537188
0.509007080766711
0.527720784625155
0.542095125056988
0.558472345921277
0.583277729301748
0.59794536113906
0.616211068558413
0.637129639863323
0.659167014728171
0.672297998962431
0.689883242893612
0.706597474891466
0.732047945426955
0.750269743936881
0.768529657468504
0.780165521295613
0.799140907672322
0.819763352546194
0.833088322191061
0.840054737331421
0.854337728105236
0.869675286816351
0.874828090349385
0.885263910950886
0.901606026833435
0.912276116031928
0.908972547421762
0.931338213354373
0.935270375581831
0.931588536696111
0.939469038735587
0.938052113750551
0.941143381136725
0.938638207582142
0.943163977135756
0.937837024537827
0.943299658467443
0.947627009301228
0.932936883153623
0.953964063377436
0.955350393754365
0.945851049894776
0.962320611674528
0.957683068628108
0.961270592030934
0.964640407712912
0.978197021273259
0.981161686799732
0.984976318162112
0.997633307759429
1.00376695124983
1.01898683428772
1.00506038069159
1.03312570817397
1.03966767460952
1.04845499503073
1.05914028572587
1.08317796290461
1.11589672860378
1.10233940632479
1.11263376462222
1.14009700689908
1.14188239471924
1.16415099902974
1.17252640510227
1.1811194620869
1.18621556543892
1.19795676016446
1.18711066366882
1.19741481312615
1.18921237297375
1.18562825302794
1.20117507152282
1.1805144657553
1.17408967120893
1.16649386674787
1.13960376592087
1.17143026852862
1.15783259538369
1.16718486847926
1.18841324036635
1.20958480967552
1.23453811711455
1.22807179862381
1.22274289505094
1.25535263785322
1.26487109484705
1.28451517631962
1.30165635841555
1.31689510121936
1.35026120964953
1.36452920212527
1.36457267624738
1.41532542343252
1.39166954049599
1.42522761202581
1.41487269068265
1.48480107552584
1.49070086560567
1.53501213050512
1.56999997154669
1.55109796715327
1.56922464630572
1.55517070221668
1.58292897711493
1.62897498732764
1.7117625857604
1.70818725788605
1.69487460554664
1.81527452791509
1.84620444279651
1.83254304345406
1.76073055561171
1.86076858440741
1.78020457494972
1.97622431790016
1.80425821971926
2.02835896041111
1.97878030679404
1.90408220021067
1.95499975223039
1.86756842494321
1.9391525347756
1.95591549459557
1.78441054694902
1.99597549147261
1.91020050141685
1.96162785930443
1.88191070750815
1.96468866025749
1.89295674823256
1.98981433852916
1.8547839734264
1.85891039407955
1.86651472684113
2.16148766224345
1.92364522493355
2.03887509270048
1.88148657171161
1.9929196201993
1.88784138957136
2.02639255846671
1.91597466483242
2.09903366953624
2.09078055299374
2.13940198129117
2.04429718128064
2.17184222755398
2.15640706569584
2.10877365794004
2.12268450548
2.17218494046398
2.19407941469411
3.23959069345057
1.99079616659085
2.53160051870587
1.98206905838901
2.21095464179388
2.23023845991847
2.20084161582206
2.4013123031031
2.16944363961207
2.35120382466979
2.04114025347634
2.27223915221934
2.19470135710039
2.09889647256477
2.27635241905741
2.1094271478701
2.12236148929025
2.01830838127729
2.51732638437292
2.31741901788304
2.25810009416288
2.09241884318231
2.46149978368105
2.17337914779708
2.18052321402813
1.93894369118591
2.31703883275556
2.00489687314358
1.90305597294567
1.88061641453971
2.04334152134376
1.7776287920384
1.78954132225969
1.69895458643025
1.88371593025256
1.64101867059144
1.73982308088261
1.71809132849638
1.69632599101652
1.61750802999085
1.72908256208571
1.64420461818345
1.78540036430495
1.61732245878812
1.61046347827775
1.58263148457917
1.70955878349177
1.5598786406343
1.6397239281357
1.59580823786766
1.55062908019943
1.50965832206755
1.60556896067211
1.46062511758265
1.4997637097397
1.41054469022417
1.43892786227111
1.42629625844535
1.40481036127914
1.38322128919247
1.32741662251727
1.29937576283018
1.29780624308989
1.19966254710164
1.21675174043974
1.14626469613387
1.11727718938393
1.08346271227745
1.03295844278618
1.02214938940313
0.995626748937702
0.943020499528472
0.910879299255882
0.88184898103721
0.857028719299564
0.837496660753837
0.823469571648949
0.777794448867236
0.764440827906791
0.74343067161745
0.744180009858323
0.724258268986169
0.724187027892823
0.693075656150505
0.710926053588393
0.704059033568514
0.698909947757543
0.689367377541832
0.69005597599494
0.675463112585052
0.678978858635218
0.681030063454516
0.690685260586414
0.680432648077703
0.69382051624027
0.684027037643164
0.681830817962053
0.68272101045308
0.690059385533674
0.681437405552179
0.679848518100391
0.657040190731688
0.660588909707808
0.661795776899471
0.659065706633848
0.64478085005889
0.643400709358922
0.630991258203195
0.641835596946198
0.621832272279486
0.633827085466469
0.629782162492984
0.632807007765342
0.630086155470442
0.634948905218944
0.631957153077725
0.633430943668475
0.634398170652476
0.646937392244583
0.642778287281044
0.645618993428485
0.648008452846473
0.654877149903555
0.6461575610064
0.672595867148555
0.664466164093974
0.655381282171593
0.670443522537195
0.668256893497149
0.671834439031547
0.672446943554301
0.647699581948152
0.669906685095821
0.672272133021241
0.679161542813856
0.673488862081085
0.674531561286832
0.677823360598818
0.677171375648951
0.690982403104977
0.693682717526281
0.696557345023442
0.716697050321641
0.716788972862184
0.719513225949445
0.75061126729401
0.779266964303784
0.789494886345126
0.805245727492576
0.822465811312303
0.839211844110242
0.824428905473571
0.849663028252144
0.856838701330661
0.866451174525962
0.865717093685733
0.829733095873409
0.825232074761836
0.850155310394927
0.809532663276739
0.814458861225123
0.780480169535861
0.773636067519266
0.789764228009071
0.807904689563831
0.780275796426303
0.794971391788752
0.775358489790224
0.789038825341261
0.756702090374265
0.819024908519271
0.778964513770683
0.790966100616611
0.760438980963733
0.79070290065162
0.78248925073259
0.76519251004945
0.749798016607612
0.78778989934193
0.772210042997683
0.783717212118286
0.749339809859824
0.758674171705895
0.739313521115007
0.747206023001199
0.716055836130752
0.723370381801822
0.704610892917279
0.740206853658273
0.717772342500952
0.727683509482891
0.711990055843509
0.712570032460938
0.710427871570595
0.705101814166125
0.703469636985826
0.709736965609959
0.69530378214794
0.699225679374219
0.694327671165095
0.690661295807481
0.648780915695183
0.695810090007152
0.657579374995513
0.695637581312058
0.674520380937737
0.679277833583646
0.656168751844592
0.68115632599616
0.657314704025801
0.661573793484383
0.645733416540397
0.664112337665113
0.656368269290341
0.647561936306375
0.656284399455522
0.662754369878769
0.644261018187668
0.625929230816508
0.658703006043143
0.646623002120309
0.637742484133183
0.65673670425098
0.654903810061754
0.653601231097828
0.650307129825098
0.658719248561331
0.643226206039621
0.637480314966681
0.629581105200386
0.651633310062735
0.646197194033726
0.637181364257195
0.661718146873378
0.653690852008013
0.661268370806862
0.654960355126769
0.655506300729849
0.680783903318525
0.696875527923626
0.681794518503959
0.674321619865813
0.667661527916455
0.67165302750999
0.700037506693469
0.701385128313684
0.736334611933291
0.682407972850629
0.729277406846079
0.695031395581722
0.722543728163063
0.714097060064624
0.758620607106796
0.762615375713076
0.770874181920136
0.787950043574889
0.845460579379854
0.793486953428429
0.843644318807563
0.843381777300907
0.862350747357829
0.91094281015462
0.927056176713917
0.903434476215874
0.987447592964313
0.958409591269885
0.958763541243686
0.929640268115555
1.08262363098423
0.985760140927959
1.0772237994072
0.986472366294304
1.05798366186895
1.02437505568491
1.04238118012931
1.05286273902825
1.04915331734783
0.964672778336731
0.990023052127555
1.01649273979868
1.00857573506372
1.04131483490712
1.10851637818396
0.974991531030591
1.01075732350349
1.0379818194641
1.12545240794369
1.0231368217492
1.01407565754766
0.980742574603009
1.01092303640792
0.981340526475633
1.08121340538789
0.915939844339452
0.977960311665928
0.972225546614104
0.978136804294774
0.892736723354411
1.00020545598653
0.937754681994005
1.02408793958025
0.893073535802803
1.08293793560884
0.947496721920005
0.930784321137427
0.860005636082277
0.977568616856895
0.932139901604982
1.01451640469301
0.983687850551001
1.03129013484475
0.94133779121695
0.970109609283422
0.892364039817861
0.985049882913282
0.912891754769405
1.03385576702381
0.9687434962255
1.01037973606665
0.993040810099546
1.014312820672
0.865278662892974
0.995986490437125
1.01694424073021
0.936976031809216
0.874915918369557
0.950532760438965
0.969452107146368
1.01857700528867
0.958517658223335
0.980086620020028
1.03635429422397
1.13244923701651
0.965360601846448
1.13551763673699
1.14576582994939
1.14583028513905
1.08978789816576
1.12340640182482
0.946458261998161
1.10125902582139
1.02209192230709
1.08232435564495
1.06395206052568
1.19640922795144
1.11078228802972
1.11912429604719
1.15323421193018
1.01829044866159
0.981819396111959
1.41702602472456
1.06832184956176
1.81694792327695
0.926299479476237
1.53476420392433
0.995811682590168
1.73563938485054
1.13452264917022
1.39887335782703
1.12525906703742
2.6751124276554
1.19136808126047
1.33461927768922
1.09952826548607
5
1.30549534423761
1.35454731274209
0.97045803543147
1.88423304061488
0.991656248254273
5
1.23254294425926
1.36711715753573
1.33455484587192
1.52956724061222
1.2263584023488
1.57098011005717
1.31068527781135
1.60043856766685
0.845357087583296
0.967139990820939
1.2665942737493
1.03485725948415
1.1738775274265
1.51175074648601
1.06807283128165
1.30493438303739
0.92864450303706
1.35018856056114
0.922678090815278
5
0.928553685744055
1.43983250152264
5
0.729271535921415
1.20585746603337
0.934760220376157
1.73551295786525
1.93233866980797
5
5
0.99776383625442
5
1.05530346748222
5
1.16097219783407
5
0.777224284121249
0.909733100312491
0.748879329517014
5
5
1.13234795377906
0.703530910736358
