3596
4000.36533379555
650.420452594757
1
2
2
0.0262681058847861
0.0191476845984933
0.0311593574538418
0.0118714245797397
0.0179904165312521
0.0275058157455984
0.033459528739043
0.0309809820911402
0.0192608737202501
0.0334843993890159
0.0269920442660857
0.0296358116391284
0.0237230930973636
0.033823621211664
0.0230719276796142
0.0294737244422001
0.0219783808244447
0.028831939025119
0.0304567443859389
0.0256219033949889
0.0280222624620923
0.0313105129343847
0.0304584046200021
0.0251400298968737
0.0198878451947482
0.0145430747640688
0.0270569461003911
0.034250813049705
0.0190682030568735
0.0183814592743985
0.0352200069834879
0.028077364102045
0.0223759924456958
0.0199200225864702
0.0353607630241628
0.0297138901674179
0.0213885522504236
0.0309101911793815
0.017813511966319
0.0334750129069919
0.0220277990482889
0.0294934204584759
0.0284214524803575
0.0296110011317243
0.0278215018864495
0.0256968374894206
0.0260460069965694
0.0309232147926143
0.0350793432901493
0.0259258955921669
0.020625739913184
0.0214074033095844
0.0330853043125211
0.0366843572441535
0.0215875233149367
0.0185116829028786
0.0278081251463623
0.0236691573138421
0.0179063667382856
0.0293751589343681
0.0295339359959288
0.0244459888975954
0.0224889935861499
0.0177262568046736
0.0271958086617852
0.0209223481839785
0.0122216563156058
0.0306404679167053
0.0266892857204508
0.0237312643570109
0.0272950179135584
0.021225465521671
0.0137231941350172
0.0133245345345185
0.028927553188042
0.0234257493130494
0.0161853191886356
0.0327691729477018
0.0174623413561587
0.0235692716446615
0.0205625971206276
0.0177855586334948
0.02103501881069
0.0336823821404053
0.0292218459615916
0.0185030142408126
0.0285720255222705
0.0178691215386049
0.0165330714537676
0.023376003345186
0.0296980551499367
0.0298191661054058
0.0279210572676455
0.0209646563861745
0.01986354273694
0.018571196235084
0.0250391153055207
0.0199327397182427
0.0263841986174634
0.012949963591027
0.0226574107248185
0.029495378709666
0.0215470895514293
0.0283019300087257
0.0235771969483754
0.0174455162556893
0.0161436722366573
0.0180884674768974
0.0225915417364213
0.0103802622708176
0.0272426356671476
0.0249831670485795
0.0293653148462331
0.0308892554355982
0.0165563701724316
0.021457230590551
0.0171427757964288
0.0219491244520312
0.0221966088540517
0.0197014430108285
0.0194459307282551
0.0128691815063106
0.022830783155214
0.0261149284352405
0.0176901527789175
0.0214027764385374
0.0192706226087589
0.00905889303614493
0.0184223103540959
0.0224141874038051
0.0189404869872033
0.0286861119812187
0.00552181018303208
0.0256637092050894
0.0158951798379654
0.0234409078813615
0.0179353838827945
0.0188944626238065
0.0250363719987903
0.0162301389401677
0.0219618298490382
0.0216910954295011
0.0144487336208186
0.0245097975009043
0.0117088446589575
0.022979747097319
0.0162931718875703
0.0170924974424615
0.0199145104766888
0.0205750960254605
0.0142092324327131
0.0139269940791396
0.0273161513501735
0.0237088195270682
0.0196550535580807
0.0221553934256126
0.0079090894801403
0.00886749169952261
0.0158869558763137
0.0307643459861329
0.00762641422834935
0.0189856335464411
0.0190753747362287
0.00717426684269415
0.0151291744240491
0.0165483937405451
0.0247463910658441
0.0119530431132963
0.0194662528892869
0.0119609251529071
0.0154465229747073
0.00326917768736849
0.00643389084692112
0.0261203377164375
0.0211747003305495
0.0154889026240075
0.015091486093727
0.0187892572127233
0.0233070337425754
0.0169861822870575
0.0192043398021812
0.0231284703655238
0.00916813413639795
0.0116356180796638
0.0236728979152938
0.0135901034242085
0.0153680078567413
0.0177254133478913
0.0168018800581181
0.0168961785711081
0.00250789611646611
0.0237812504153983
0.0255326210449548
0.019114080699985
0.0126225801961039
0.0184509897754692
-0.00606766193971262
0.0209056669492829
0.015593454604204
0.0184807562381024
0.0124830149059587
0.0110289039408174
0.0242118961031695
0.0193976831352455
0.0267292395123003
0.0174044134093807
0.0166010145321803
0.0209135538286633
0.0196491603502355
0.0177341189425331
0.00670714067452856
0.0137860697050441
-0.00253406551598932
0.0177141427286434
0.0142402497635739
0.0182148630321331
0.0139142001454262
0.0197752152873868
0.01534322729324
0.0228452543082914
0.0231293105398223
0.0142783115566385
0.02031640334869
0.0200780810776671
0.0179082032328343
0.0225618891290311
0.0165656147732753
0.0180513296084131
0.00828208576377364
0.0258597301173902
0.0236958438438404
0.0202525245568599
0.0202740881714147
0.0122271519036565
0.00629502750890672
0.0210532582036974
0.0250713306813441
0.022438661487312
0.0207179552069892
0.0159442602727194
0.0171697184830156
0.0197576835911783
0.00954405196751539
0.0161033586861874
0.0145517850180774
0.0258407595005424
0.0162476982892599
0.0158000282482406
0.0239682957427549
0.0162808658215353
0.0191795264014005
0.0171780748925481
0.0170284655345066
0.0110556826560282
0.0187455755801723
0.0207415229206421
0.0275277496834241
0.0268897766047139
0.020395292292069
0.0254441527574973
0.0176364816359692
0.0158424256419528
0.0213564206353112
0.00945204746563061
0.00961140159837834
0.0322516923906336
0.0227017044622168
0.0182173181491999
0.0306851007746727
0.0203399352559602
0.0221775139564991
0.0220601251953473
0.0230492726118299
-0.00524014730438611
0.0240657582271162
0.0241451498680349
0.0202148742946889
0.0249939401359316
0.019621386080014
0.015260958832061
0.0166843966545145
0.0211638542065491
0.00787219509957426
0.0189337502181091
0.0168448562297228
0.0209535968794729
0.0340486415083771
0.0269872249382477
0.0222082074699744
0.0287253255143597
0.0240679046965138
0.0127669684868428
0.0183018409916455
0.0208309170589297
0.0253842224726109
0.0169126169191763
0.0132097720203903
0.0302017736090172
0.023866979062262
0.0233139056742132
0.0332558913415844
0.0242198316669463
0.0298806691174658
0.0326909285244284
0.0270417009981771
0.0208542142568358
0.0249974823015051
0.0216986295191539
0.0420927334837168
0.0359209816062128
0.0292414066418906
0.0266087276110023
0.0283902863355354
0.0214531610425944
0.0298450787043941
0.0261334976388786
0.0349924113997158
0.0266249296587949
0.0312233073175028
0.0239208620076185
0.0232126773744402
0.0317250173187741
0.0308027908761571
0.0278068761527494
0.0353053605299764
0.0321546143951089
0.0252096288347443
0.0332273094401689
0.0281705659567013
0.0280453811827602
0.0354115430117433
0.0257396048744078
0.0336147062212018
0.0407193923160237
0.0351986472750544
0.0451755634199184
0.0390774045870788
0.0276056681188062
0.0376540567797671
0.0431529633296766
0.0363797922180805
0.0353417987224102
0.0412555082662345
0.0430958172116594
0.0445782808572799
0.0380031999772302
0.0530821005447424
0.0538613316580565
0.0374052786282215
0.0554900436744974
0.0333912469790884
0.0304438137908102
0.0549102133061932
0.0347321429949821
0.0654295204983657
0.0550547156843428
0.0488262875771374
0.0507614247364034
0.0475575925494624
0.0526748923276309
0.0537271895159917
0.062224612146639
0.0555272953717334
0.0525624136824231
0.0649993678640778
0.0626151590373795
0.0579121751039144
0.0621961400277371
0.0753585066895179
0.0676796720234997
0.0684380034540001
0.0623578747239314
0.0766156786159534
0.0575663423287968
0.0648934440432153
0.0771786787371435
0.0801506789316602
0.081673039700675
0.0804119859474942
0.078838461418266
0.0850775690432438
0.0853399270919807
0.0938134838867764
0.0894509595010726
0.0950917005936989
0.0929964468777334
0.101042377601942
0.0987922958348125
0.097995360944907
0.0935103881026768
0.0981122444031155
0.108350099264232
0.114830802012076
0.095127516797021
0.113445050038987
0.112854551249972
0.137719878082718
0.117112656964104
0.118931619372362
0.120252455104603
0.120022783095524
0.126506617645711
0.133484793857282
0.12306438906043
0.138100615542969
0.131238005096022
0.137985107015195
0.150989276038096
0.141407386369697
0.158221892634232
0.142891098671138
0.13857763714062
0.147591889141992
0.150630343620601
0.152211649575766
0.153498970191252
0.163914845457843
0.170491243539371
0.177557576447111
0.166023318698716
0.172995728147786
0.163387998639653
0.169961471036027
0.170346073533705
0.191017360473694
0.181526424497386
0.184716046741213
0.182945540717561
0.199396636994494
0.192884916711661
0.192502815145609
0.205701424804894
0.199814029459956
0.193623420454298
0.202091476465902
0.212135695566452
0.205612112868535
0.205359547690668
0.226810136065759
0.221492833080632
0.23194280912233
0.223116273885952
0.246988507898962
0.227363312881993
0.232651113971483
0.229720224252104
0.250536381293911
0.244048885025123
0.25133917383352
0.261346577635974
0.271816362975827
0.260964427121508
0.268405318020864
0.267223538995125
0.281147652807215
0.272858987041676
0.277096264238502
0.278447291500493
0.288473423111664
0.274407015651394
0.300023139537876
0.305519891603296
0.312495262649711
0.294250200101972
0.322508888673614
0.289294631615575
0.306739391011184
0.307357439716481
0.318748783728011
0.310741613974176
0.3409279573981
0.32538553347819
0.336461996190688
0.346064868939508
0.346353595403611
0.343390699759681
0.375506493587999
0.346667702846963
0.371491099472088
0.363900975196927
0.359304658653953
0.378511940956791
0.391548226324915
0.360450247988927
0.383931351518251
0.382243063441135
0.383459384841671
0.384192586876374
0.404078941820379
0.402535665687504
0.413416453183035
0.416371570497034
0.437805520463289
0.407298081338986
0.421340785580361
0.411578080825682
0.436034733608431
0.440048060991869
0.460897940109643
0.448823524549846
0.459319438830642
0.461736722993772
0.464779746365513
0.466157310728522
0.478483557661198
0.454958175898814
0.493991147728323
0.48000819331537
0.505866120171857
0.486208758114234
0.520037803745668
0.496273651841322
0.54404470822905
0.504207662679122
0.515765337534085
0.502076703563721
0.507972661203845
0.522686549843689
0.556513031232544
0.539630854856215
0.558344422806176
0.52673084540998
0.551148953452785
0.550042200413973
0.574075111688679
0.565673496514672
0.60365163343766
0.574124614021874
0.568248823729943
0.578106030024769
0.607354181494214
0.566159263170392
0.594715507708586
0.612686394594225
0.643509180998309
0.598941573790158
0.636449327556539
0.595632010170642
0.655418554238588
0.654465052491079
0.673298847984874
0.647692921576234
0.682846487339944
0.661693818653893
0.679000702704018
0.662681734514551
0.667791873187362
0.671901394581234
0.667346413557818
0.666722921853502
0.754016770512468
0.699389311800138
0.674078666846781
0.669117096231138
0.712879112383699
0.712497053351401
0.731111481360323
0.697094427183393
0.734297386888522
0.677087800558272
0.723920714359539
0.773741839633871
0.776573534189114
0.720625970504457
0.782646116622776
0.787376063490827
0.809450740457
0.75408536768491
0.816866351041068
0.794868821337944
0.827088893759037
0.770727884289125
0.770633175248036
0.764628809738484
0.812485652126678
0.782186070987158
0.811901932096875
0.803593397593549
0.814050708910976
0.835635152544101
0.872417791721355
0.846066613763943
0.837623305251835
0.835200358169065
0.905848861435948
0.835605810315051
0.862224614711008
0.86218254226785
0.883758725753686
0.867311003116219
0.901850583395762
0.893849357741688
0.973319782977409
0.895835151281443
0.863706392445423
0.884498201099338
0.950644068699176
0.886366666795284
0.914990920925238
0.932230252503048
0.926336812738927
0.872679179354929
0.984164302725295
0.950853288983008
0.967908213785203
0.957838785522726
0.977675637286848
0.969137655263584
0.988785455182005
0.916866875276138
0.952193259799261
0.975946854944966
0.971082677661321
0.987257075117675
1.03563365968458
0.9198770814255
1.00413945632568
0.978801744078958
0.951050400024179
0.950482895989505
1.03183856728147
1.02523360444628
1.11441123356462
1.01483074439358
1.04720617489914
1.10666460978771
1.13869110617935
1.03889812514111
1.03337801994447
1.00536345450823
1.06585771729045
0.977557955077418
1.04724473707074
1.02132660287187
1.07514560889511
1.10997112139018
1.07586356928606
1.02705514388736
1.04614350173484
1.03601746693011
1.04834588637431
1.06366935740149
1.14788333264297
1.1288359390452
1.20602720516465
1.11442311056815
1.17481439538657
1.14692055893692
1.08752914357562
1.07190992525792
1.07807595358118
1.02823405598966
1.1247465023242
1.25201474229035
1.21007686915375
1.18899713258502
1.25483103433268
1.20282121536026
1.1803976779849
1.13480986513127
1.21709848530919
1.11580446560148
1.13205854347348
1.18432011939901
1.18661691182041
1.15821343760095
1.24413623731612
1.13472533322311
1.19308641677051
1.1787544534908
1.11239871061912
1.11347201706273
1.20908182195395
1.15225775592275
1.19673622711616
1.22402032390864
1.12873144429643
1.18791368506256
1.2214115131499
1.20949345942125
1.26645476858043
1.23993484731163
1.28591176864779
1.19583545929341
1.21207007749816
1.2086412395487
1.17738123869981
1.1266409540448
1.27482692635245
1.30293397538821
1.25912435806792
1.22722731893088
1.12761091559168
1.09455311302309
1.19529712005808
1.26654111126215
1.25993093674659
1.19804887459372
1.17001541784129
1.2024892316566
1.26247566428222
1.1625835425437
1.17597910690727
1.26091466735493
1.31266477273427
1.29991327531863
1.31843761937935
1.25832571038135
1.19080996531981
1.19644586218047
1.32534713609947
1.25671013172556
1.16093136059224
1.22354704587156
1.3103016191078
1.27702065911371
1.26494298269839
1.26160157830036
1.26375855020916
1.27545614909682
1.25685769199219
1.24998466149735
1.27488519641355
1.29762754742308
1.30069796391027
1.2140484219565
1.28243305602286
1.38527791687054
1.29529321652725
1.24087906423896
1.21251222933825
1.22329552459748
1.21934862502392
1.18150686248617
1.20989936749112
1.20827361657605
1.27703562727837
1.23783536319822
1.23935128589912
1.34787235239397
1.22200780936742
1.22447652126188
1.25183568781573
1.21517132062798
1.2207106025987
1.187966254259
1.27316950580065
1.42069190280092
1.32253332068723
1.33105777402094
1.35811514394861
1.21959037440972
1.23059662638252
1.26523338700735
1.14859287321044
1.20038749544582
1.32373794657399
1.39657677730138
1.24016053786413
1.26269936493666
1.21698300970175
1.25839190445546
1.32262022775088
1.22217972561899
1.2562727964866
1.23843176842564
1.27966002978903
1.26714493357145
1.31170173742765
1.25148339175047
1.22486152697422
1.28522828482277
1.25736612685722
1.19531568961718
1.18806830616885
1.23329560682345
1.27095882710942
1.28658625354715
1.21634276336756
1.36900604218784
1.3184164603926
1.21598516563249
1.24620912105295
1.27650160621658
1.18032435271172
1.21618661886458
1.27429508276323
1.2035152427635
1.17283923604238
1.22601250579145
1.28413844363805
1.2890522211526
1.1839455862548
1.19214293274975
1.23835920902426
1.23362484404315
1.21710347641456
1.22781284359477
1.20215410448833
1.17932722014155
1.20661700572016
1.30738284680517
1.16987278156078
1.14599376867813
1.21470031233718
1.28714331766562
1.1671090218528
1.17990140629056
1.15701587719543
1.16669168011814
1.16471901237407
1.22152879751995
1.23960923313233
1.18421036393265
1.18994477785191
1.19059542662398
1.2350105772171
1.25342237916786
1.1947656852657
1.27330448472529
1.1579079325435
1.15171210882128
1.16837787147388
1.21432204194829
1.15942140921299
1.14290708743548
1.16002469906663
1.13041988760926
1.12706434559723
1.14165386003723
1.11083996440657
1.15701345947019
1.07274111369906
1.16209959802489
1.12203613167537
1.19913395692303
1.14709698371585
1.18658962126996
1.10534816265632
1.05283032104407
1.12071820667176
1.11581106459124
1.06034774759748
1.11244020245168
1.09140068786696
1.14407848140558
1.13709523505651
1.09681316897149
1.09855371666634
1.11201358995589
1.06960246939737
1.03804560305938
1.04862828053964
1.11624419857169
1.04519452422897
1.03362464862898
1.03369409745967
1.10568466668367
1.0588160232007
1.05360776061327
1.00948864763778
1.04872562118319
1.01989337015066
1.02317625856134
1.02694250537187
1.07532438495062
1.07987771318176
1.02798174441905
0.996110763197717
1.01235272369068
1.00615170468147
1.03167618847989
0.98794301453174
0.983779748330218
0.949030793424419
1.01324080793861
0.979758878430469
1.0296233063448
0.977197743147573
0.939777004029121
0.954453584067173
0.983595305525166
0.963080301440791
0.987140125262733
0.927080355178746
0.963980189961635
0.96764709935478
0.942628690778646
0.937510227636434
0.961236069361664
0.903751677766934
0.934599974862774
0.943980834006024
0.907739918822466
0.89370021888771
0.924852054902136
0.903966028763576
0.912534139669613
0.892457017273307
0.893882818282203
0.864829899556611
0.850149786531669
0.856586755820842
0.864899970163446
0.885116489686285
0.867292209608446
0.846826778266674
0.877096126176218
0.883401857744688
0.862105767682841
0.832111757192974
0.842941632547254
0.841555482025373
0.847762587693739
0.83498687247961
0.836087691526658
0.812124906188608
0.839405358688305
0.802459176558382
0.796113947114494
0.777270661621281
0.821294975400131
0.81649510534716
0.81293039610739
0.77297075111519
0.811060291408842
0.784706782417742
0.769261627007972
0.769392446844493
0.773775266578378
0.759708319559319
0.782840989475784
0.771908221265473
0.755439190611062
0.74737268226919
0.743786309321063
0.738353377703441
0.761168190296664
0.742289468399123
0.767240807306338
0.740003634433074
0.742839576592639
0.696859079145303
0.73179650177881
0.718870320440656
0.720892211080666
0.696971833802752
0.697833716255373
0.691525339456581
0.701677426111131
0.701260057712449
0.695547089940842
0.68941414839488
0.698849188438812
0.673970315098217
0.681727262048238
0.666385673870041
0.678196272998507
0.669342732184095
0.681864423063885
0.66362661306531
0.657917870231828
0.653253957825768
0.665175863695521
0.650982201496356
0.657079379729675
0.637471595346563
0.663914582189182
0.64135044356062
0.634633738216756
0.626455310033295
0.621751806957852
0.620821637230158
0.628494892858144
0.612056800496249
0.610576466002816
0.599580726441977
0.607919619195892
0.600875839882661
0.612150876371842
0.59521541198268
0.592680990917388
0.58019827773674
0.593695174595244
0.586161507181838
0.593227971477563
0.577189865224617
0.589555577145881
0.569420330702852
0.570989496763138
0.563104299359674
0.57500288298825
0.560290765823912
0.560926551197903
0.549118509028232
0.564641879301084
0.5573456055948
0.553662713724174
0.536234994146446
0.547827601746742
0.547314555127405
0.558661980326731
0.532186739474234
0.538766230821709
0.548390636774829
0.545010465207319
0.526458199140104
0.524929638214022
0.514253698331722
0.534489746229854
0.523010262850466
0.526814898898474
0.507182846646803
0.513132953479726
0.507212115107597
0.517666488023424
0.487286629333043
0.503775239549522
0.497087707787806
0.503553535169852
0.490445238667326
0.493587248800736
0.483360577376571
0.489922084172169
0.483572590211222
0.484889291005594
0.474787228958622
0.482781894257821
0.46379690887973
0.479264942933494
0.475561486914063
0.459522816204272
0.467458847596895
0.466160269046929
0.460959034367924
0.463819193894494
0.455343403870976
0.465213281538334
0.458490991357063
0.442860137970844
0.439174002592187
0.455757461364176
0.434125077871562
0.445734536969899
0.441275269653895
0.448924726060288
0.436882938607979
0.424357533145805
0.427161301362572
0.432914085356197
0.43017877759931
0.428140719926127
0.421381183751113
0.417377867512605
0.409805831652278
0.432259056623458
0.41465789845488
0.426263516825847
0.418446475139965
0.425792865312248
0.412334048450034
0.412220915947059
0.401157575093812
0.410600141024425
0.396722485766665
0.408997116771872
0.394920899284918
0.407205508743865
0.396049152547784
0.403733414005044
0.387856636892119
0.4102918945761
0.394141895156654
0.391883670147044
0.392735508963947
0.396422253863429
0.39447177441962
0.398353977273818
0.395274369402069
0.385607074510673
0.391889824168832
0.404240234718601
0.381382246768173
0.39760252466955
0.385183625827128
0.403475249944731
0.391242465459601
0.405084963815878
0.394125856515311
0.404912922153907
0.39373136060428
0.392584884455048
0.405959176997112
0.402758401778212
0.398212672045147
0.397859998046881
0.400746182172068
0.403615095654974
0.407233712995935
0.414504317567445
0.409569672453262
0.417193231431994
0.402796875991134
0.423338005826375
0.418175838138449
0.427013093447129
0.421223625437518
0.434292627707055
0.413199188160489
0.423296489517283
0.426312241342669
0.437493696761544
0.427233052853351
0.447969205879855
0.426719466464746
0.446633899826195
0.44717867142444
0.456650609066436
0.450163897662426
0.457476049201366
0.452068725991913
0.461267068287671
0.457743807969608
0.462841757537249
0.446556963792969
0.463141534801366
0.467167449434569
0.482392183819638
0.472863222155683
0.476895181856816
0.474514445213419
0.495349667973101
0.489058565454969
0.499460543195964
0.477777507951963
0.503557780365993
0.511284123881171
0.506781690505946
0.498604815878379
0.517468539446798
0.508377554258585
0.521106805462643
0.509433575564979
0.545129806841466
0.524019936125454
0.527659633036048
0.525006308888309
0.537655406617095
0.531361729941497
0.559936795495683
0.529521771609209
0.544338686332651
0.531268583795985
0.544474665111922
0.531425312296232
0.54414981365663
0.533837932471433
0.542479992781759
0.52308319521044
0.543523758605598
0.519707052165507
0.540811091676663
0.544606009765261
0.544181359941358
0.528433268363412
0.536840167427945
0.520452026527013
0.546878533612648
0.531711231702738
0.529587620803506
0.536680395236354
0.548973109288829
0.524021180872147
0.550405772921677
0.531370416746705
0.538622028773265
0.527837680378552
0.54954178432696
0.533787950602517
0.535598606566389
0.540555592253323
0.550877850505791
0.536655650612804
0.542040581415683
0.546648269660978
0.540269117821996
0.529068615249869
0.561274574938396
0.542379067505728
0.551144305960624
0.550687960505777
0.541473644483282
0.541196875208115
0.542006331129003
0.536838728325068
0.539073514044052
0.538921264278489
0.553624897726573
0.535233541003856
0.535701219117465
0.532667639040477
0.548446759148732
0.531785055378838
0.542973146372926
0.53463424376356
0.527188651688461
0.529743943380753
0.536110949738188
0.530980368080194
0.535002894612301
0.521476301862915
0.533595865476076
0.509826114882594
0.524926797960701
0.504871458363841
0.506046642751912
0.496263683479229
0.508118849746214
0.499166661783408
0.496223932762376
0.484021414872737
0.507868930878082
0.488244629720539
0.488218804839141
0.48963787690304
0.475499369536844
0.473764667570537
0.47293376465674
0.466375663600976
0.474463047078185
0.466837416297388
0.460790810975701
0.449107016474366
0.44532309213928
0.452127384477268
0.449462798542308
0.447950784918094
0.451825663767311
0.423468996905611
0.431055105301188
0.427082161316755
0.425744469785673
0.423961421498639
0.424351385388385
0.420306981631543
0.427191568904198
0.417283661832957
0.419198606421148
0.411821959201119
0.411160050351254
0.405129672457955
0.404693803032442
0.396031217869077
0.408360641231402
0.397229729863079
0.396723906722304
0.38926166627494
0.393547626243023
0.384535185241179
0.391807194836261
0.38367664914415
0.386498395313213
0.380584468861237
0.380103857520987
0.371945168461083
0.37867866738132
0.365133570728467
0.366921586270875
0.369723121575168
0.363289378372017
0.361859335555881
0.366478948220728
0.36208687783997
0.36211035997037
0.359086559518062
0.362252279902488
0.358898005564254
0.352325200015896
0.359543205654982
0.35499688949464
0.345142618826587
0.348439368875831
0.338657050212194
0.351442601138207
0.344352793111732
0.350522870321274
0.34209648777602
0.342509643124052
0.343040043854606
0.345279663558037
0.335703700985122
0.343612286910417
0.330032012643088
0.345854802194552
0.335422161328852
0.342690309654828
0.331759557356125
0.33597052466062
0.326957181060809
0.331306863394126
0.330550153264188
0.329854526736651
0.327925119600815
0.331058146991877
0.316376929615012
0.326913154891709
0.321246263986372
0.323929971725587
0.32213521619843
0.321431829608497
0.31243133429748
0.323423437077995
0.316571001070838
0.319460251201789
0.312866630990813
0.325415357351039
0.308711298283503
0.319838288755928
0.309384599120779
0.311957204993965
0.308210434270417
0.308083256381635
0.309903944472342
0.306280241558021
0.303485477682078
0.30978352759485
0.305745483121855
0.30155637919653
0.301761914462812
0.302239342904628
0.300412411628625
0.303115840926795
0.298492049321964
0.301992371455898
0.301785244869407
0.305142161189739
0.302475494605869
0.304572134866662
0.293483478871415
0.299857500498613
0.287552407526929
0.296340038543151
0.294664501374419
0.298713713120896
0.289964972114748
0.290611468647958
0.289888847479335
0.289220319232789
0.285786087047388
0.293487897133563
0.284883458345434
0.297916059865206
0.291316402001284
0.293230740451667
0.29090473938856
0.292423897412863
0.288259468931381
0.288707900539426
0.281588913157886
0.289800233553323
0.278655719198041
0.290544165483587
0.279279658881115
0.290769373375225
0.284575618824466
0.289617247159429
0.283178846181903
0.285865948332254
0.276108409802063
0.291652546277496
0.281582604897279
0.286684528402466
0.275971455015113
0.282320876566899
0.276083197888991
0.281798265970889
0.268549819552227
0.281352755740884
0.277910734147064
0.282143182062209
0.272075386338385
0.277542212030239
0.272266419317806
0.269861550695454
0.270933914587339
0.279922759149032
0.270054643016757
0.272510607073768
0.277435598460634
0.268081398121789
0.272697247726123
0.273570423881868
0.27254759664614
0.267862021498064
0.271161053619544
0.265918878505027
0.270251352276492
0.272798054218525
0.268513233489558
0.266439950458396
0.259783119397637
0.266316821080898
0.26346924006934
0.265860304153675
0.260553054771045
0.264485866680166
0.261207052339065
0.266594543912978
0.258465839164899
0.2585956701039
0.260785190234128
0.251608779844505
0.258640350709857
0.257769744695944
0.258435227534705
0.257590082269014
0.252514644380234
0.253092520613438
0.252416977014142
0.255045681471854
0.251603389885739
0.253161549668453
0.2472974241773
0.24727683640061
0.254066915450592
0.246452257507006
0.245505277355395
0.249126282053477
0.241222821478005
0.246698342381803
0.244253983618128
0.239466031683939
0.240046979544305
0.245167326122972
0.238373492578818
0.243890635818887
0.232720499649803
0.241306107738009
0.230567758116332
0.236525081099371
0.232671208973989
0.240818085196902
0.234936732914177
0.230800051181973
0.233643566442204
0.232291119763242
0.229810543629352
0.234836038788195
0.229123820444765
0.230189197393003
0.222360363612879
0.229803571604705
0.225288950399709
0.224367240784137
0.219771398330687
0.219623976049847
0.217000648809357
0.219980772105378
0.216462804255021
0.218035380509587
0.213092962387131
0.215272359888864
0.216067480163315
0.209227823146314
0.210226509866194
0.212500248692364
0.214845242416691
0.211515749279962
0.208666921904047
0.213540956980087
0.209366899994716
0.211701773312576
0.204146916427215
0.205125397112686
0.204943827103041
0.202164793663705
0.202918400458592
0.202974000399346
0.203205954202886
0.204664284972132
0.202261990146259
0.198776355424864
0.201173970978346
0.197462039764119
0.195378586764235
0.197771292385097
0.191986710470429
0.193176553729255
0.190598038144751
0.197246667827024
0.192662216095359
0.191319209878008
0.188821844607641
0.189069891883785
0.189675215736528
0.187803897226836
0.186227659925859
0.19235740550084
0.185169698989889
0.189560684408731
0.183987794190517
0.18576024880972
0.189236902909291
0.18799386319537
0.185668445954488
0.182961244342438
0.180410937181185
0.180226225997147
0.183015514076797
0.182173339396507
0.178462804032874
0.176834522099849
0.181155352519139
0.179985707010725
0.181042262359348
0.176806459487779
0.176224769884951
0.175835191871428
0.173768286348582
0.17453403570995
0.175502545842352
0.172915963613711
0.169210200138696
0.172605486921179
0.173708209981562
0.173064630810782
0.172831736484179
0.16761441979873
0.170906071131737
0.168619367164317
0.168575325343791
0.171669127234491
0.170608882805449
0.172823758054407
0.169705926225732
0.165904328644806
0.168087265350549
0.172462955734721
0.166395527382254
0.162815952082795
0.166042674824396
0.166525885027312
0.166042670130705
0.163567055304333
0.165398900116234
0.167774854705735
0.160642227185979
0.162427233627381
0.161137302560712
0.160155149016621
0.162189655508862
0.161243118488092
0.160861613987981
0.161371694358654
0.159734732550797
0.160921796428348
0.159401647924978
0.160337763646599
0.154400318806649
0.15975384372375
0.160181596716794
0.157262604143159
0.152559751966921
0.158853322492342
0.15968113630523
0.156840956362077
0.153347200382326
0.154657982574437
0.154352437807287
0.154228127921572
0.151635138132151
0.152855212432153
0.155160993937898
0.152801042276952
0.153707360665441
0.151416429742499
0.149182221100724
0.154119147467383
0.149074022124567
0.151843742426263
0.152647080040907
0.152810007862061
0.146571318909837
0.150394973108431
0.148704841336247
0.149700563481054
0.145308303930154
0.147166557799576
0.151219985881194
0.148497811332095
0.149177258715941
0.146929668209057
0.145305561426165
0.14426692159638
0.143820769948081
0.144777506321265
0.144486018160668
0.1453116694934
0.142522485209273
0.141540471789725
0.141206724989193
0.144359785410291
0.143005474874883
0.142282310076242
0.139580336338124
0.143568130457925
0.144998005511694
0.140157575986744
0.138552363952097
0.141191030683126
0.139801288639672
0.141937070572245
0.137659442604834
0.140344702929918
0.137176130538647
0.137277439945407
0.135750533141927
0.137138643149492
0.137438518719108
0.134390616116817
0.135279585632124
0.136267134247324
0.134263717930506
0.135738140261356
0.134635885691707
0.135305983422979
0.130982945182544
0.134180360761489
0.132372880395217
0.130650958803596
0.132404964371904
0.133164899151172
0.128198916882125
0.129274378267492
0.129656273588702
0.131075523943551
0.126397336140056
0.125304388798795
0.125867470712977
0.127344714319893
0.128789324541451
0.126210040284072
0.124894379033433
0.129522285225104
0.123786272410926
0.121919805958815
0.122764058005871
0.122247771393264
0.121575131831489
0.12377293029257
0.120053280843225
0.117368258366374
0.117889773929722
0.117698594705699
0.120849918966305
0.120433278746991
0.114493090844742
0.115448452933959
0.117963154714309
0.116396856330711
0.112400652570692
0.113613269548975
0.117340425220606
0.117345015672355
0.116704041133145
0.110911213298815
0.11106175084501
0.118323628448221
0.11129567867934
0.108672223410174
0.11058263284009
0.112140870757383
0.109373532401232
0.110176292224355
0.110117689193403
0.109681505343835
0.109020648176749
0.107468286995321
0.106280832190063
0.106174660761959
0.105523762763465
0.104996891602287
0.106041414561185
0.107138016558182
0.104155421288465
0.103689384822648
0.106307296878432
0.104397528207549
0.103887360545287
0.103449316606103
0.100964012362384
0.103006116017046
0.100503497940298
0.100314670747041
0.099480903707088
0.099177850715484
0.0985670109279314
0.0978307200309175
0.0967374158941203
0.0988411413188797
0.0975752666065259
0.0964848723937036
0.0964327878906246
0.0957176706951184
0.09634493658597
0.0969655063268692
0.0923141150434825
0.0928158970650961
0.0957058639292032
0.0946562030309524
0.093567091577429
0.0952241362388768
0.0935279012533125
0.0926885333749261
0.0927685768498983
0.0947412647681696
0.0938652269552632
0.09376674628249
0.0943784805008554
0.0926239880350242
0.0908920966864501
0.0920118213497216
0.0916492847094392
0.0895827503778881
0.090875485742343
0.0890510341835282
0.0863632065644706
0.0907827784588897
0.0906256065312006
0.0868848433321493
0.0884621344224867
0.0898794397319967
0.0883007526300441
0.0869493289469047
0.0872665125455255
0.0869555358587192
0.0880767260031289
0.0883164426108551
0.0831406504054898
0.0865237094655999
0.088560326613635
0.0845491066910895
0.0838676002389705
0.0877664070549746
0.0816245474759274
0.0858447895434755
0.0886727673801384
0.083026815925542
0.0854528372465846
0.0845637807902847
0.0834317017886486
0.0848277203920679
0.0759885390553947
0.0846859459483814
0.0894602464028687
0.0862709529987545
0.0843290179884331
0.0840344254408818
0.0835729521892219
0.0799864666537024
0.0846984548343519
0.0874312212491704
0.0839190613327492
0.0865567074244167
0.0805075715715929
0.0796753253960012
0.0850641663734921
0.0830270883074211
0.0781379416401079
0.0811448822036031
0.0805409984373695
0.0826484382692508
0.0789763526921972
0.0792251354425416
0.0804286888489905
0.0806940110629532
0.083263351643743
0.088070840968926
0.0833582907190084
0.0821855641164247
0.0840068307479546
0.0893364007458465
0.0859116015490267
0.0822702342479137
0.0837229888917329
0.0881652102575014
0.0809889291592911
0.0774627707127659
0.0761364601679253
0.0797789499795341
0.0768781742511681
0.0777371537633655
0.0767558637220126
0.0776828660393406
0.0790536612302689
0.0771813306826489
0.0791095292592696
0.0797198766073246
0.0785871985634596
0.0739726848815097
0.0796689590167016
0.0765749501423367
0.076119644733809
0.0763455866452343
0.0781767816391011
0.0706244593335179
0.0762987965381591
0.0758392045840135
0.07926777508208
0.0726190476740242
0.0766334150152
0.0736298782142734
0.077141521892123
0.076491053429019
0.0735256972282028
0.0751391714894232
0.0733236561091914
0.0740037638028853
0.0731696582377555
0.0763536635834378
0.0746860416904695
0.0717965791833665
0.0738632785428503
0.0734719099814203
0.0746977806489492
0.0735570198985928
0.0752553670536994
0.0715746964815167
0.0701339202316867
0.071237754986804
0.0699664850259955
0.0724300916658157
0.073042178588071
0.0707697029025917
0.0700383155568383
0.0710211369237419
0.0734208153215664
0.0748230993605431
0.0740768939721571
0.0724341559038018
0.075168099415324
0.0723480671441992
0.0711355497984846
0.0750533776972824
0.073978737612746
0.0705502528419518
0.0727733220697955
0.0740542298214388
0.072960639487009
0.0746204794864472
0.0730011366140719
0.072329207361568
0.0716866624168672
0.0716779837258229
0.0758249796918307
0.0737824924115306
0.0717311714068188
0.0703126518712483
0.072341998773041
0.0718711031373178
0.0728633095978313
0.0707613787644959
0.0738173923661701
0.0724602772599223
0.0730875287863686
0.072133851717788
0.0732369181101428
0.0755281459170058
0.074399764422768
0.0738683758450039
0.0745633489086274
0.0712586921431765
0.0746027761143075
0.0718496886162231
0.0728525022011
0.0744407768464725
0.075260543463046
0.0739094395242422
0.0716387954035456
0.0735954350068569
0.0695818543127828
0.0699989505643987
0.0739353786138523
0.0728917434668458
0.0706761864678932
0.0722657416755506
0.0743891439436329
0.0719017390084213
0.0725465369382002
0.0709680795311843
0.0714334967589415
0.0736296051058788
0.0758081644600453
0.0715197122387948
0.0715145516843007
0.0730395103787331
0.0748833004707473
0.0738040972262084
0.0745000821373555
0.0725865537554871
0.0719143627588016
0.0730336931516233
0.0730229989736938
0.0726656100609372
0.0728741826677067
0.0728103993350221
0.0751449846811307
0.0753248260916938
0.0745385988098666
0.0753282907873045
0.0740326888984742
0.0751044797720223
0.0755589115292217
0.0746542895567822
0.0749207431505074
0.0762019066719996
0.0755077647986545
0.0692550880440194
0.0740389315192483
0.0760529412400291
0.0753658884796457
0.0756506038250981
0.0757897994002298
0.0749944194601381
0.0737763531922423
0.0789184254311243
0.0762661081626917
0.0753209325458828
0.0754944109995057
0.0760579657905163
0.0779570819879638
0.0751916842286709
0.0786346458404962
0.0780969589559482
0.0740784847559722
0.0749701668494212
0.0786321682694616
0.0758882397261851
0.0775190775859455
0.0808503776159191
0.080421258354018
0.0777644806249161
0.0791533500389714
0.0770150741353546
0.0787660251274617
0.0763620694462213
0.0781320990742807
0.0772626751072033
0.0731505395253412
0.0755499902600859
0.0791370926438721
0.0773784720259426
0.0798953894421598
0.0775433847838711
0.0771831037170963
0.0771511792066207
0.0812102713395121
0.0790860264391022
0.0767989459345183
0.0791392383295582
0.0810775764562288
0.0813089809588294
0.0799947886837505
0.0791610235921628
0.0803216997061646
0.0810003659255059
0.0794462674538237
0.07902453507437
0.0815023184147232
0.0793979908199576
0.0786276158875545
0.0800751713081022
0.0803859013829377
0.0830202147141282
0.0819685913524366
0.0834068377663021
0.0806469379927076
0.079028289255138
0.0817138124447481
0.0803150274984101
0.0816971401636433
0.0816953222681488
0.0806730761921738
0.0826805039863391
0.0818853734145932
0.0811119443570131
0.0816017834774463
0.0830329440687401
0.0809556461508944
0.08148962018205
0.0813577733236655
0.0815250299954111
0.0827771363973489
0.0794278418771878
0.0819893275083371
0.0818498252501409
0.0813379620534052
0.0819310745508708
0.0811793369208246
0.0791429883968958
0.0824758799453782
0.079019363200037
0.0787076806321269
0.0806475849283606
0.0779301667388899
0.0793923656616509
0.0781292995505312
0.0782728527059932
0.0780433025935573
0.079789357235766
0.0795180575743873
0.0779473763790484
0.0789766255609071
0.0786929576044133
0.079922746219614
0.0781256804577205
0.0793570243229061
0.0791149076817391
0.0775346804615909
0.0757806334119263
0.0787400099091967
0.0783825601213035
0.0767047058434441
0.0749477763215301
0.0765847562972853
0.0773481494001443
0.0780291848154947
0.0787460800290569
0.0760206294800986
0.0771165866901269
0.0765341306645316
0.0764224553293621
0.0758599275563399
0.0749833681932622
0.0770047794664162
0.0730495421510348
0.0748684232566695
0.078176168994098
0.0778302382986305
0.0762112003834799
0.0732422865889721
0.0777989616965339
0.0746138677974825
0.0748355001317525
0.0765506695499801
0.0777542510733002
0.075079514053579
0.0772582732172744
0.0765362591310482
0.0739662835551889
0.0766563036164284
0.0731766319499195
0.0754423242677036
0.0723413661453035
0.0760378501926075
0.075137986187209
0.0730821078975883
0.0757221148085843
0.0768471799243501
0.0749882484367235
0.0749343276432373
0.0720301585000124
0.0751329385317751
0.072459492761043
0.0767016753234577
0.0720719974080904
0.0734346974094228
0.0729333826476657
0.0747179438580324
0.074868242064379
0.0748789897706786
0.0736312672977468
0.0753390211768639
0.0760508540264603
0.0772571038051784
0.0754677796361749
0.0733001548927701
0.074733472719888
0.077901205395934
0.0741675344468606
0.074654218946226
0.07655025488666
0.07492743154128
0.0741211720213712
0.0740661211634753
0.0745379574423699
0.0735548136090182
0.0744957267822396
0.0734318510589319
0.0728754807634548
0.075596434358713
0.075955055092136
0.0730996999256561
0.0728460166371579
0.0744437227021801
0.0741689868699258
0.071221866352359
0.0707212289486138
0.0706717639940002
0.0714773312051917
0.0743735961851165
0.0716098260962706
0.0742049888968687
0.0744580189178354
0.0718418953974388
0.071669651061281
0.0705127090332826
0.0713140830092251
0.0708138531164549
0.069281790562326
0.0706395425925928
0.0695728469145988
0.0714148621408478
0.0711180709763291
0.0690329356380502
0.0690637859663825
0.0707094308639719
0.0692631270942858
0.0672351734991133
0.0695072289610493
0.0676638382933028
0.0687283737823387
0.0694798729953873
0.0688659834872083
0.0688126856610682
0.0663799020742582
0.0671044432854783
0.0654214926491347
0.0684383542908131
0.068332467266047
0.0668101029838928
0.065041308433261
0.065695551470496
0.064406140004652
0.0673607546780852
0.0690305965201169
0.0678735692922301
0.0648186455677865
0.0661426972749123
0.0663672040183118
0.0645729033523253
0.0629136072820509
0.065432127370271
0.0648947793705795
0.0597767519602098
0.0659725063515717
0.0655286225524658
0.0636062889216852
0.0616830485671981
0.0624550548510836
0.0636137597520658
0.0650884173332901
0.0645434098032325
0.0582602564016229
0.0622099851162423
0.0588426969042991
0.0611287887795431
0.0612691753221666
0.0604257581045031
0.0622785366743492
0.0617877845714821
0.0610818750215585
0.0613694731507929
0.0576466402407302
0.0622068334928938
0.0583105778384856
0.0600041268822114
0.0628039603820915
0.0626789158104627
0.0619072421879956
0.0600167820414605
0.0591781597405592
0.0606982743134937
0.062093897482666
0.0617388025997188
0.0579784152163846
0.0610529947219058
0.061217565962965
0.0633148969385055
0.059990638258264
0.0590533255968799
0.0588253427554822
0.0610951506732826
0.0577837095391574
0.0596027180417231
0.0632415449416737
0.059365876827759
0.0588478863778497
0.0610934759873126
0.0577481922015507
0.0580232683101096
0.059765895884176
0.0592880474867308
0.0565414155428514
0.0595078725476516
0.0579066557730722
0.0567516764777617
0.0563604251095892
0.0582858088924549
0.0570459386331686
0.0564504110794016
0.0568185826100438
0.0584585364302601
0.0601962940267349
0.0597063765881951
0.0593618445704596
0.0552642725028
0.0547318802504273
0.0604875124769407
0.0555867970723549
0.0572972853169196
0.0575717966463091
0.0545875903374881
0.0573432101947252
0.0592492061028241
0.0565784591415441
0.0533556004053097
0.058357137253498
0.0571942079916111
0.0587387668097181
0.0551325026091659
0.055790433946188
0.0565001434768717
0.0544800456455755
0.055367333552781
0.0546875216817821
0.0558236980916108
0.0545567731952586
0.0570630810783839
0.0554276370139383
0.0586812497967676
0.0550074023673469
0.0582501315638693
0.0579313505797966
0.0553563170411235
0.0573804239733516
0.0538411702961635
0.0519193099315486
0.0588754274902689
0.054100250750824
0.056266098014007
0.056549944558928
0.0574424060853222
0.053120738309505
0.0565261750608747
0.0566566429062643
0.0552481366540725
0.0544802536122767
0.0570498135862915
0.0571620418439988
0.055182668076059
0.0562248999457328
0.0568297567414642
0.0555612970601394
0.0567977538258533
0.0554004384753712
0.057612307627491
0.0573596084477048
0.0583938023802955
0.0569064565875955
0.055608438508964
0.0579643988483336
0.0565238119262349
0.0558335792508518
0.0555998929650675
0.0550363200024021
0.0577276146769127
0.0570837424849467
0.0556606686357776
0.0556196171229495
0.0542164599938635
0.0571568463778668
0.0556576817609864
0.0531468170891645
0.0556451437662735
0.0586364185548543
0.053483975602494
0.055641866331798
0.0556159687784108
0.0546226820312364
0.0572803507457488
0.055931921333246
0.053880091832501
0.0578943118562858
0.0543668729598179
0.0539761914206782
0.0550986743299505
0.05865902536589
0.0595987251867561
0.0571461332124991
0.0547466283128019
0.0549377962587841
0.0574093294372108
0.0564661161250394
0.0573667973065652
0.0572590343400021
0.0561541200562522
0.0554385919889456
0.0560006895320445
0.05556624534616
0.0584928050988361
0.0559668812354527
0.054558377137317
0.0565466553159986
0.0546664152860504
0.0576745311871133
0.0554912959598951
0.0565581684069607
0.0589850151367874
0.0578892058966145
0.0543976155132086
0.0571973315983427
0.0562683774862238
0.0570138314653553
0.0583341573587088
0.0589784535999208
0.057764027874692
0.05763535496217
0.058423279856392
0.0597405516529628
0.0563681773589362
0.059099001281623
0.0574037154673362
0.0576564358041382
0.058856516042006
0.0590701421713319
0.0595972296922137
0.0571334159797543
0.0562450104476894
0.0602561785623018
0.0597036737575178
0.0588768650302955
0.0579084192624176
0.0610687186648783
0.0640068229010923
0.0622535934039823
0.0613680401986279
0.0600721613292631
0.0607259865949039
0.0629722403862207
0.0630332647313951
0.0617623938304273
0.0628905896806716
0.0601210881721601
0.0614807473642347
0.0605575069290992
0.0601529232525749
0.0619932484040761
0.0639213301788129
0.0616803762528991
0.06124846568912
0.0625730007023798
0.059396841830315
0.0623686886691569
0.0646904402362843
0.0623226459374356
0.0629754247129367
0.0631885876780447
0.0623831180701646
0.0633609989201655
0.06332691891804
0.0650747471288917
0.0671545413403404
0.0661489793285554
0.0666294801419453
0.0658899555015202
0.067890403471867
0.0625826825683631
0.0680246611199744
0.0661396625754921
0.0645796956657952
0.0671887287536212
0.0673544049305587
0.0673352920476902
0.0656763729207999
0.0655630393344762
0.0654727103471811
0.0699802514202964
0.0664895725632965
0.0677906192011437
0.0657981769380118
0.0689647783693154
0.0695836281138231
0.0723763034913214
0.0707061294212682
0.0716715244280042
0.0686561964146039
0.0745445465713422
0.0728339274586386
0.0720620931120541
0.0761526211292912
0.0723963862200898
0.0753889131819678
0.0740122174323524
0.0737525141798624
0.0763434157624857
0.0728803429193578
0.074323525725072
0.0745661302757885
0.0765284714386845
0.073808346621839
0.0740432993124935
0.0799512101888276
0.075774358241366
0.0769221769824336
0.0749421313855124
0.0748765608653462
0.0821149872775629
0.0833836222552412
0.0814089155777787
0.0804048436888499
0.0781888707436721
0.0786894086114964
0.0844638079873321
0.0829336085024571
0.0808166489895296
0.0838833156103088
0.0888320002467103
0.0884699151444543
0.0855892293857409
0.0877312858906911
0.0872034608248868
0.0879075104135586
0.0880625715629758
0.0900801955828789
0.0952458118225191
0.0981004510176694
0.0943971263709544
0.0924663892903329
0.096723486040376
0.0960675039110418
0.101815399992191
0.0989600799613685
0.10426444730145
0.105298971599531
0.10538575410042
0.110121369767936
0.107826686513176
0.111070185717971
0.108281800468602
0.109686795482617
0.114992888192968
0.112970405455211
0.112300977451531
0.112969376814833
0.116694503441259
0.120179693541031
0.118395692709617
0.120646536451835
0.123752908284961
0.127576253157443
0.123273826783368
0.130956909035646
0.126825377975287
0.130797616156692
0.127804156661661
0.129973130901293
0.132957302925497
0.130934547102501
0.13404446898145
0.136717214740876
0.138621676213147
0.138045735164752
0.135526010699711
0.142290552462384
0.144821875575007
0.147638859666092
0.150342819224147
0.178632035803812
0.162441815089043
0.161408861219407
0.167524559444161
0.168705747722646
0.181216660043994
0.179241986304179
0.186146604492934
0.186772613777846
0.191823329188021
0.19924864641217
0.200266995685338
0.21001610178852
0.216803975503914
0.220572837326519
0.221051624483353
0.228669743267533
0.240687013213014
0.250929041178627
0.258011070633683
0.255989760161407
0.259295166391424
0.270099212936841
0.275701923268974
0.286615384563159
0.289885324414038
0.292695058075531
0.314952503343773
0.317165595669534
0.315781661297452
0.32399038028314
0.342013248760049
0.34092460889277
0.349201848314099
0.360673590578624
0.352349806953841
0.36877896345313
0.375806529871087
0.380237814383292
0.386677355427273
0.408785940369118
0.400206453230292
0.40284584916726
0.410042955156085
0.412801819912548
0.422939416307096
0.426694526890986
0.428395090560718
0.431141228335226
0.430865859184825
0.459800889600663
0.477880088390365
0.461112523698867
0.435056866356962
0.436647765085771
0.440102833922226
0.453285285260187
0.440736192017469
0.46470927473838
0.47283908533149
0.461265716812785
0.455847761360453
0.459417834361777
0.453511549657873
0.458416844635458
0.468736733479583
0.464479166252999
0.458499055909964
0.455270842644665
0.471150884182995
0.499287719062979
0.460089979817534
0.473469481871391
0.461641698943932
0.458962815523045
0.459315873941374
0.453845924695994
0.456346247513998
0.479373845345157
0.470675437487549
0.457218398845718
0.441414492154461
0.450469713978355
0.451254147685058
0.445839925172276
0.443892028195501
0.440050090799242
0.432917013192193
0.430504212836065
0.422681567905465
0.453343211278567
0.429763836245038
0.423030764202391
0.415980583375408
0.414456265558938
0.412778495748705
0.420357452002555
0.409618639608796
0.411321159976755
0.405298574210519
0.406175829393526
0.408392718672819
0.398246068395028
0.39157346095148
0.397658208307512
0.398725268696478
0.401816625760848
0.394813629826849
0.392753173936957
0.397331255971621
0.39578416281736
0.389050227495197
0.393341329247869
0.387682821863613
0.401146000937081
0.39347258127056
0.388832431918522
0.387391778497565
0.392237609221137
0.388914950883549
0.388758931141111
0.386028176763576
0.387254604349989
0.381827395483887
0.382314462236732
0.384166020615022
0.382965762524689
0.379114894433974
0.377797447120284
0.377299946874985
0.375536257676348
0.370026938717689
0.366416347809682
0.387396640671465
0.3730606599381
0.361075295268834
0.369502225484047
0.361123218646369
0.358550545909163
0.354612299275517
0.364482973513951
0.362250525999075
0.355050891512865
0.343087849722501
0.343772827872431
0.346353364606159
0.338258482396231
0.336177377477324
0.334678173650608
0.32513957519182
0.326092374601518
0.340677631536995
0.348438993638384
0.355771766832747
0.322374805817555
0.315551602079003
0.321869038594101
0.326829804641458
0.317886878377973
0.312693746962992
0.308114069300417
0.310362420219946
0.311981431987135
0.311645578415804
0.309992742790464
0.298218155681799
0.29881181392414
0.311776765242542
0.30128806926042
0.300127631323911
0.312016371446064
0.290187062475575
0.298533190555258
0.305334348612701
0.28589629292538
0.283513034154525
0.285035667458678
0.285411384794759
0.283957815728033
0.292082530858719
0.279270094497601
0.277103139006516
0.27081616781359
0.266694084064238
0.270264289359065
0.267498778871347
0.268251690357064
0.26335723256156
0.268336697131441
0.257452489990038
0.25736840741701
0.25778456575231
0.267171610670564
0.261298893340601
0.253415198251104
0.245738148023219
0.24971426834263
0.262225942127562
0.2559958048013
0.252541518182168
0.249396923013214
0.246445856670712
0.24813163742255
0.241114659051304
0.23580509735708
0.241177777593859
0.236619213334266
0.228623997676337
0.247802074819076
0.242906928413169
0.233861104423136
0.233141640317338
0.238806354105309
0.237115853930412
0.238272791852649
0.233568178160699
0.234904618574143
0.239543777717359
0.239995605899227
0.256012193064513
0.250035646516097
0.250772445602787
0.247278650189189
0.24843743169479
0.253251723980002
0.257851482133711
0.258842063166909
0.262282169711076
0.26290079224603
0.267698971861098
0.26915193242163
0.273065656165965
0.27704350927849
0.279143546881187
0.284041214449798
0.290806248290963
0.298257694888228
0.30388299871863
0.30776128959557
0.312390466892627
0.320376473840358
0.33430013524681
0.328677627163899
0.340114690725487
0.354482114605029
0.368320139388101
0.361111042956034
0.359885278900405
0.372310538792387
0.377595134033824
0.387712595953641
0.384523011966644
0.386790400222731
0.410889297048683
0.399577731661732
0.406847464476124
0.416911101598681
0.414307434773761
0.413902711544907
0.426792773391492
0.42999967420344
0.435094655883542
0.443723267325076
0.438984893234599
0.444180715791235
0.440734475930145
0.445443820180059
0.449568508637547
0.45327194345171
0.457042984291704
0.445295781990615
0.458624362929934
0.466328659395491
0.462135997695997
0.467663596048188
0.474179235789721
0.476131579560745
0.477060448046586
0.479246047636442
0.479263583216767
0.487975662151358
0.491379194266486
0.47701749592172
0.520206845653496
0.514682294907963
0.503639832167827
0.512119817932199
0.510922994289452
0.51740778459663
0.515054459207225
0.522285637526374
0.529304901269567
0.525211803862494
0.531432105838524
0.546435353203015
0.544921541887202
0.538399795813021
0.544667730598425
0.546155938725993
0.551792737438698
0.550900058526915
0.57102466492365
0.585183953523058
0.56489685709347
0.57834980498151
0.580660953600181
0.576069206021553
0.580221837553562
0.579223322474715
0.585161909118558
0.593908232094359
0.584009528949229
0.585384032935472
0.584687673414973
0.583977156222358
0.587058923013674
0.585115880342434
0.592774164683845
0.585164012259014
0.580433685030722
0.587436053680853
0.587777122905125
0.580531320860906
0.584611973695931
0.587741370375035
0.579653257571149
0.579347825903506
0.579370485411395
0.591706908609395
0.588750802820083
0.578861862242366
0.572151467541185
0.57784661737695
0.59195990476658
0.584363124675973
0.583185230064328
0.602012564137959
0.596861437800144
0.600923483907089
0.603075003652466
0.601261836706853
0.609044840295825
0.606319191452215
0.601802312970592
0.61149302837729
0.618108907161953
0.617820339057088
0.611603644935419
0.619347608269646
0.62255443209616
0.626084675016608
0.630182810824553
0.616582933421053
0.619045310205364
0.613926872005503
0.611544920331657
0.613925158221374
0.619556469838211
0.611898898105011
0.609427016665296
0.592631734146124
0.591895664578618
0.600837682296394
0.582053825922956
0.584451960972995
0.580280005414992
0.569619291377751
0.570842657685242
0.571346131829019
0.566344764098287
0.560181672120332
0.557399402582536
0.55583268497463
0.556261114854395
0.55064572973276
0.545905256678782
0.543015948860959
0.542403702898865
0.541753915946627
0.542397221578976
0.544321869460513
0.540945316865569
0.539779598006993
0.541309394996897
0.535643577210079
0.535087967116639
0.539000575471276
0.53350861538601
0.536614688241936
0.54476992317672
0.547392219192112
0.538047511458087
0.536387495744751
0.534171664777874
0.5285381783201
0.531940310983457
0.532376698612738
0.536366574029016
0.535065335010626
0.538958372800854
0.537480593710563
0.533487731085675
0.532322398137735
0.53338541181709
0.537275596088669
0.537190776431512
0.537358488529055
0.531361446374898
0.528250934477681
0.529581908462043
0.530968915768474
0.534430227979642
0.531173400960169
0.529270089276157
0.531500356022366
0.529228209427866
0.531848420580565
0.532646007995553
0.534008566995839
0.533067755883335
0.538830139618327
0.535995981199364
0.531071072061933
0.531992375832458
0.533162998948383
0.534695843726573
0.529482153927678
0.523660582763152
0.513562212137271
0.518478148869037
0.513525926941768
0.507265589114339
0.502391145913213
0.500728631893101
0.497424814781916
0.490289082788006
0.489630708312698
0.485207611201829
0.479700604494682
0.475229036086131
0.475834507334853
0.473086115661975
0.468294259970292
0.466613713628799
0.464667441680081
0.463482281716637
0.461799486396856
0.457989647088286
0.460640646786951
0.461356686183124
0.461908013716839
0.460539831812987
0.459739575078647
0.459731074353901
0.458610157408999
0.461977417695772
0.461524152514428
0.462799338759354
0.467741275259181
0.469710338737431
0.471129504346728
0.470414203907151
0.470198412473132
0.46916814086856
0.47043356119339
0.474876174033696
0.478865053954745
0.486343821901713
0.481735910007026
0.483308845562172
0.49107978407447
0.488248636778511
0.485149954767988
0.48457011274785
0.487361795290212
0.489683427925248
0.490048672358452
0.488134108257243
0.489004835437082
0.487695643362097
0.487171950305622
0.485598352281995
0.479607138447584
0.48220890275494
0.483978332492395
0.483329788975438
0.487764299254592
0.484986461702219
0.474971546637256
0.480552882430848
0.477467360395968
0.475433063368745
0.472494730897093
0.470053191059271
0.467606529675308
0.470775589807633
0.466668557030795
0.465885824931083
0.465937256477597
0.464974911821159
0.45925715065967
0.459794419572726
0.46284337438978
0.464071487420517
0.458069681656099
0.456082165564261
0.454705165836323
0.456632043227949
0.452396177673078
0.451244688750572
0.451944392436162
0.448242705515068
0.451295426920714
0.446925046400146
0.446618081518199
0.443502076570622
0.441019114999301
0.43877483805395
0.434971276927489
0.432863849802974
0.428443766851915
0.429460950674258
0.42650466797639
0.423527879296778
0.419508734785193
0.415084181171449
0.411891849730893
0.409382712038056
0.408216092493513
0.405214383695703
0.405215522206426
0.404888281393821
0.401678762694186
0.403292759164252
0.400705631537812
0.396439356397651
0.397515759635618
0.398935763861279
0.395076537918948
0.390385769979014
0.389146070192115
0.386585416769818
0.383975372222418
0.380218834187881
0.374686817836173
0.37329323578526
0.366435517186668
0.360723633338699
0.355627268196501
0.353386598623357
0.350727881276086
0.349365702380703
0.348174852742083
0.349622383688856
0.35196841116214
0.356352439534743
0.359742459796835
0.366192390443901
0.370345691138817
0.379591968191723
0.388524023146828
0.404447058407513
0.413226127372169
0.431112953292059
0.44678062990754
0.460095605521915
0.482398492030178
0.493753347655425
0.511022640969912
0.52593528546905
0.547666157250502
0.561484582797903
0.57733388543653
0.593893917421987
0.607891798885953
0.624144138453392
0.637483426789509
0.653807710935722
0.660370898776506
0.679952438126021
0.693503402610289
0.703128249506266
0.708015556042742
0.719415720128989
0.731778347924265
0.742833077790008
0.745091985384348
0.751434123383473
0.764726457418649
0.762827444123665
0.767569290564942
0.774879965351063
0.769593734944165
0.776133731373156
0.781969257600715
0.775059239149427
0.779122761947518
0.778908945106184
0.782277939262487
0.775302833276841
0.785699377773129
0.786344304826617
0.784501626218614
0.79327616069024
0.801653903996071
0.803776260886327
0.795129057321037
0.810345076653241
0.814904253653894
0.8208265311391
0.835288788953223
0.833899210075849
0.834366667971332
0.848388483570285
0.854013660649492
0.867190640648076
0.866867853518762
0.88214905100857
0.898724393575683
0.91708288706146
0.915836979188961
0.931061078657014
0.93663922019812
0.964955494071219
0.964762716568137
0.979052756468645
0.989954559942801
0.969034056442265
0.988993624510165
0.994056173195153
0.984273863685788
0.988382642126722
0.993343932753415
0.995630869105764
0.987768027289944
0.98144326176354
0.971967951277723
0.979423855611888
0.983635744017995
0.983757406667175
0.985721438271685
0.987540392115961
1.00688695401346
1.01177702334865
1.03111093047294
1.0396520764217
1.07116548762705
1.07247858438281
1.06873892741507
1.1044801462756
1.09995950267648
1.11420119730072
1.13411192572493
1.15013212933123
1.17601256035288
1.19205716112759
1.22216857993842
1.2462694958495
1.24974142573775
1.26393888706565
1.28228908233345
1.30862583885243
1.2921020481104
1.33496214305479
1.33875694415915
1.41600474728524
1.40362958069612
1.42989234232873
1.46097450056705
1.46324716746244
1.46676994575969
1.50024710987516
1.54147053721958
1.5572255868309
1.57715806351438
1.59462443533575
1.56690060058238
1.59623878658639
1.60240873308098
1.66427259365425
1.66149881504009
1.64845359918431
1.61041081976794
1.69079139917084
1.68065423520104
1.56452811539298
1.60342855211089
1.71610973153198
1.6124804916435
1.64763253455511
1.67299046168438
1.71303582846656
1.74127094723869
1.67623605928034
1.75917182863468
1.67151090812965
1.63874354561802
1.71283161526652
1.74486753663735
1.70734062912959
1.61354145445362
1.73029422438086
1.81288629968676
1.70869197857043
1.84369944772602
1.7626932719254
1.80672026774246
1.83474792803838
1.97118640015797
1.87677816807294
1.97840406522594
2.03886149486654
1.93496862991126
2.01246511737215
1.89624758323938
1.8633761556389
1.83797783559104
1.9227343192419
1.93304670283457
2.12592650662875
2.07328102438429
2.21284152587858
2.09148565179628
2.09403655904213
2.15550737323741
2.13223077161907
2.11572253278989
2.06732492774288
2.17599568441398
1.89339513282781
1.96049431141642
2.07154083439405
2.08085076429543
2.01872210553415
2.12061720438751
1.95145812471673
1.8348187837591
2.00386558900027
2.12372236365061
2.14116056550588
2.04861074263963
1.83336348766149
1.87861749290062
1.72705648800921
1.77717188451899
1.74338262282611
1.71164447242001
1.6162647479497
1.69701099294914
1.5715452125446
1.57951122084735
1.4932807874885
1.49579243141961
1.50312551599535
1.54566734365437
1.39612396731136
1.44630027467377
1.42522508345186
1.44265039357882
1.42951485898536
1.39988333576401
1.42683293197382
1.40102445991038
1.33567936213126
1.37275099026895
1.28439732984862
1.32327054400382
1.27264196325119
1.28606955154533
1.23105794322655
1.22261186446941
1.14161133725357
1.14981774521359
1.10689987578532
1.07018629326103
1.03987816759896
1.00146576850073
0.924029229026767
0.908538604821455
0.860365722346675
0.841549768499543
0.779151527372763
0.749214667136138
0.716867438358633
0.685078305164851
0.665396342768356
0.637728960051983
0.60500984421484
0.594831755681817
0.570425389606772
0.552551135906825
0.544099690884604
0.519861983948607
0.505207035805834
0.512901831410603
0.495804795041018
0.493310768694179
0.484577612645242
0.480309509016507
0.471104643138943
0.47964341877968
0.468395344419717
0.476607303861092
0.473184156926894
0.473628870185356
0.472991277212486
0.483392782710156
0.488902303692309
0.48120893579019
0.476466461321225
0.47688502764099
0.486250967474814
0.474762313461053
0.478529230849506
0.469914361119665
0.46354080996664
0.461110302392168
0.462367254896918
0.456569710811441
0.447257978374775
0.443503143022262
0.4449289221916
0.442235224626387
0.441468677610547
0.442647690172693
0.439891927379573
0.431727175899691
0.439473616804036
0.43821255446128
0.450518070827215
0.448792978663985
0.449356627539202
0.456659391177289
0.463342939471833
0.456377501320303
0.472952326804467
0.471312387186693
0.463524920163569
0.473617667983213
0.4727351725382
0.476657572071946
0.480263171726789
0.479566889685672
0.491085733091737
0.490404679585144
0.472031332121766
0.481100011170064
0.481102019970145
0.493289934445925
0.488814280545572
0.497525888315858
0.489538722512449
0.492931925785476
0.50225463339376
0.511432721852166
0.515610655913519
0.537961672761563
0.541605642369501
0.550895429164276
0.565597394033747
0.577020207846597
0.600352923227814
0.613402575706664
0.625260228225857
0.64253670839695
0.626374166877968
0.648065154990325
0.650616602943478
0.657064204250475
0.639258503125976
0.648416438571561
0.634083034440416
0.617054325143197
0.61210372289685
0.59781874033483
0.577503685132108
0.591915984427809
0.584092354355873
0.570249898643266
0.567744518694944
0.575963507444746
0.571823110557919
0.587815638450964
0.590285102659815
0.577425201006079
0.576563887337985
0.59284316804333
0.571605214213294
0.577640867167393
0.56862555317473
0.552761909040379
0.550485609388867
0.553182876887858
0.528083627166282
0.536707328557829
0.536078844250738
0.529788214188906
0.525429833186635
0.528740264173747
0.515759352022038
0.514982299002932
0.507265355715952
0.498955428677799
0.506376137837437
0.492507261522517
0.489007937775397
0.490179081742437
0.482518208924293
0.489682589853537
0.481988970336327
0.481440453379058
0.483434312999485
0.47748980596
0.467524270469501
0.478785948960221
0.471857019197237
0.47487370657165
0.459854282323393
0.456964826682245
0.454738292231398
0.44635620447866
0.4455570826515
0.462130750195445
0.437931450024507
0.439319815219066
0.4420940406576
0.441775442831662
0.442792976268732
0.436037096400393
0.434030991791091
0.439853659794327
0.421527501867125
0.433672449348207
0.429047411260549
0.435997021482334
0.413042055193161
0.419653614110945
0.413737208172054
0.409857083989914
0.418432421697194
0.42258462877209
0.425062447300177
0.423678299343706
0.408999500720703
0.43615693054842
0.430152044412754
0.432111213243395
0.432151399411915
0.437245017898711
0.453425649236622
0.440179217377201
0.430494401047044
0.454188301079465
0.448145461757291
0.455295739474927
0.448041339063219
0.461645579693447
0.465330354305824
0.471349222494005
0.469452402362054
0.472320802533536
0.473117298836313
0.477927855003375
0.500527236365422
0.509421989391056
0.5007804438233
0.525231487125351
0.524857874926444
0.533166204605834
0.513773018068344
0.565121074918773
0.589724663668592
0.587822942489557
0.612158197088483
0.653572009770547
0.67012157989763
0.681593990196292
0.647721971256384
0.725406451774799
0.666336196547521
0.697876657760426
0.695640743236385
0.75726555178553
0.727185546590822
0.787973107849422
0.766269970235294
0.79625192602262
0.789783373609332
0.78514247361747
0.738745285798527
0.766040735471685
0.7019952989192
0.731405271598552
0.72886594397844
0.797866381903886
0.730286695663443
0.728557505794834
0.701985827816024
0.721425752288107
0.713759799759019
0.712899400147646
0.733266564677969
0.731480804002459
0.701823347300478
0.690804263793836
0.663362078151788
0.670699061554263
0.674620093878613
0.736223584819763
0.653388628874468
0.674000991421952
0.653431536561276
0.658728263212306
0.643858648667319
0.666353212346874
0.656320673272943
0.712853257946836
0.625860473935491
0.6746733837593
0.646165050058401
0.662344988685774
0.648036206597613
0.633172314084464
0.661001796857438
0.658397391272394
0.654659879167987
0.677917775289105
0.655861920990271
0.648917763832678
0.659831405927942
0.668837739625992
0.654576057239237
0.713667721971581
0.670436736409413
0.657839533627154
0.624268573074224
0.702679985640447
0.677652824352559
0.722358194234763
0.64180326263846
0.727056773480974
0.659205975246789
0.695060175310681
0.669031430830029
0.661600151389766
0.622104090451718
0.694425819104955
0.710146793184322
0.722742917674118
0.739765248423039
0.702404701431013
0.689169842836422
0.793868590162334
0.699318467846474
0.794695426209927
0.707777546703018
0.866813208838822
0.723731660188357
0.875877996771878
0.799887017119397
0.814994056992398
0.82830865196709
0.962494988720463
0.82637110105981
0.946427355237663
0.947280066481075
0.822344955629274
0.834053393272162
0.909794095491824
0.811276939329224
1.01004854038104
0.806102227801851
0.927571182525673
0.809983182881398
0.816866993521213
1.01130711188841
1.13549799589885
0.874647526497627
1.01057500862253
1.06689169785877
1.09183759830136
0.907070276026883
1.03773035844613
0.838450704129573
0.871978005692933
0.694227003376117
1.10339783529922
0.716139790399046
0.789322159765426
0.812394909431901
1.25550320043752
1.11196012380247
0.799994580019775
0.931445127784843
0.933064302757003
0.680641795611355
1.17818356404338
0.821191076909237
1.04908685246454
0.958310439773743
0.833105473431168
1.58445657923299
1.58479914299123
0.771905278900283
1.22769816934726
1.19170493840706
1.00763147783822
0.80466457040924
0.684838404633407
0.955131539066463
1.24460556362722
2.17404929350802
1.38158222106226
0.919483515264991
0.885943378270919
0.698104006964999
0.947412550938584
0.685398710763713
1.03580960564399
0.826066019974058
0.913347920786599
0.807407153914239
0.900799955750158
0.581324675901192
0.978684074470801
0.47983615718369
0.595169721112066
1.27574105424831
