3596
4000.36533379555
650.420452594757
1
2
2
0.0254752572917307
0.0371584324769319
0.0256033239569418
0.0271642877353619
0.0176126372874923
0.0290425619468017
0.0287960952837648
0.0280403801820442
0.0110362871096482
0.0380834773637081
0.0248335294141463
0.0257217438230942
0.0261611874972006
0.0281685287037572
0.025625475797367
0.0234841307625301
0.0137955133848138
0.022113435448166
0.0257020750662327
0.0239596372221375
0.0303901654949763
0.0315141772092644
0.0178903296649268
0.0286142629307862
0.0265688591375202
0.0200295412654781
0.0140321769156127
0.0337092715148074
0.0249235932413737
0.0243316246197316
0.0232274731229904
0.025017884601001
0.0181687214028977
0.0280714910434532
0.0282185156688355
0.0279878941305227
0.0215173772943245
0.0390191411855621
0.0297105666834059
0.0291714647688058
0.0217308342508549
0.0268940844128791
0.0205047973885444
0.0337919891029531
0.0165593902144567
0.0284774211788065
0.0242640376011017
0.0244008264571438
0.0190416403930276
0.0325460440885585
0.0168784047075609
0.0268564954034209
0.0171531128140808
0.0382456693646406
0.0245322139169429
0.0220711507433523
0.0239274466757709
0.021310041245006
0.0185547968463354
0.034311009915959
0.0264969476240344
0.0269476229717928
0.0132034068652172
0.0211820437699493
0.0235130887984206
0.0204421153230718
0.0164950493841882
0.0292510948577828
0.0342141420169027
0.0284193122640769
0.0203946723247359
0.0159494091242954
0.0179595301409862
0.0170269732043535
0.0277264883305865
0.0245156524028792
0.0192598511422967
0.0326032981521708
0.0128086964176181
0.0238452149242375
0.0298355065203027
0.0267858204629898
0.0276547493198205
0.0294543296374162
0.0304592487224446
0.0194595768601157
0.0272508924958329
0.0243465807846114
0.0242241688973426
0.0282997821420396
0.0222500264443921
0.0176300352987691
0.0279739799293382
0.0203198302041333
0.0201887036766999
0.0137379247124968
0.0308068496584614
0.0205409833329391
0.0272946944200455
0.00556819883935462
0.0336651532720459
0.0346507360623461
0.0155654980195948
0.0293863712132532
-0.00205351025971907
0.0345091733866094
0.0040269074556382
0.0246624855988997
0.0265617695686908
0.0163658442329638
0.0239987195778568
0.0208265546335485
0.0258681653989028
0.0202350311525245
0.0275148297834752
0.0177743093219178
0.0192725352753902
0.0169849819033586
0.0211471238578044
0.0149094038380779
0.0224672164193328
0.00553321498845808
0.0305752917044009
0.0202292466854564
0.01713999831366
0.017713091034988
0.022698736362937
0.00338597815696553
0.0176689139719293
0.0257874770159624
0.0133884308975252
0.0221554007347295
0.0106963316725194
0.0218546251403756
0.0147254028116192
0.0355148980886561
0.0115071626270065
0.0199862428745703
0.0137809144123529
0.026003957288413
0.0286774835918928
0.0186784519712253
0.0163761251333676
0.0239193110151223
0.0135319244337698
0.0245290542637009
0.0277178702725197
0.0214009296182689
0.0173605514700332
0.0231395446539144
0.0138607752009244
0.0186643643861404
0.0179004585853883
0.0180370771084805
0.0285180601255525
0.00934248671354555
0.0150366957445449
0.0294271184616809
-0.00229761002107526
0.0387049229913536
-0.00142206201538398
0.0122540361880073
0.0147771572612903
0.0186192935902782
0.0158949424307195
0.0273239545614461
0.027776216256212
0.0163117693404436
0.0153687098732443
0.0266307840644408
0.0159612835896048
0.0178856839391462
0.0225061729367575
0.0142469463885362
0.0321369088372073
0.0218526606379291
0.0183682846050137
0.0221056332572229
0.0189749955275735
0.0206162815592682
0.0108278128080812
0.0254744485058242
0.00858004544914003
0.0178412874857577
0.0159962790887299
0.0157392991156033
0.0124518342531358
0.0169011795361614
0.00984487864310313
0.0253369943561794
0.0183645771097359
0.0233409152507395
0.0252427176499327
0.027311984593791
0.00415966351583293
0.0266291963312248
-0.00570153935510179
0.0349226607938733
0.0206707431799459
0.0196089965181272
0.0220539719277975
0.0162549101319249
0.0166239124552266
0.0152971442836446
0.0179810392950633
0.0238805229493941
0.00756524479588016
0.0298736160179109
0.0140975297430148
0.0226142081589443
0.0108586355924725
0.0255021073080475
0.00242168830334265
0.020826424929195
0.0305232474759093
0.0150505496392658
0.02292056794666
0.0252608583979582
0.0153250717350226
0.0190151414096721
0.01807730955392
0.0161483544426165
0.023577243846607
0.0196283864671441
0.0131936404586212
0.0221327233485458
0.0117610153795191
0.0126807405766272
0.0196739644307718
0.0252189769096605
0.0274178995606125
0.0146329322399484
0.0215002991823886
0.0166556104181633
0.0173439292693949
0.0228323083774477
0.0197844763422557
0.0290181778399123
0.0102850817912042
0.0226708848508972
0.0161268691995781
0.0162053735519504
0.0146437620914604
0.0204538569134799
0.00449978631563698
0.0352377566181298
0.0108552699997334
0.0222860286819463
0.0137588553615234
0.0229643386593583
0.0166461042027852
0.0275155484893008
0.0223157198752059
0.0255606557195256
0.0211350730318987
0.0254257330084969
0.0293676453929448
0.0223145772298026
0.0175112497197186
0.0260270493438942
0.015029684067819
0.0236573120063804
0.0232242320169758
0.0184244957428908
0.0267989904691347
0.0303002452569889
0.0229570614870564
0.0233010579343985
0.0095144578284763
0.027462638396272
0.013457050416208
0.02237520374436
0.0357467254999818
0.00931149115584805
0.023030390771743
0.0203981820270025
0.0306195072776725
0.0266839628795611
0.0302422852616114
0.0159651180852087
0.0202451456998951
0.034212362424343
0.00979429028812224
0.0346043904068544
0.00473263590488604
0.0372216289905253
0.018825433487819
0.0244641781453509
0.0232316441925292
0.0272182252846867
0.0224299539725296
0.0203649695656738
0.0209327628563242
0.0187365135321553
0.0280747112989674
0.0240508783483772
0.0321108345096449
0.0148814952341894
0.025505350471429
0.0283547018060468
0.0396230414888665
0.0204607748514432
0.0295415991534278
0.0294911922284089
0.0310015722113814
0.0285793484774725
0.0271575028978844
0.02950224971921
0.0244249618085713
0.0265440437458219
0.0360352372549419
0.0202605533105226
0.0230398133948158
0.0199074577079831
0.0320552481290463
0.0284319565520804
0.0358301131213793
0.0192854874064969
0.0332079275561467
0.0289619367437876
0.0272950114260725
0.03169621441077
0.0313487978777197
0.0293310537416938
0.0360998156288937
0.0325673040562003
0.0341841154441418
0.0314450316552654
0.0248250943465941
0.0322761931067105
0.0452629334688682
0.0290583153399342
0.0372883646650424
0.0455008551218087
0.0411272288197848
0.0513620029317674
0.0385072017534267
0.0335774091197542
0.0266421324921477
0.0441547618961273
0.0405071699805836
0.0396871737722573
0.0381477224869195
0.0410140533330459
0.0347910577734953
0.0460155105511939
0.0480254012081174
0.0651521148979818
0.0469551793602801
0.0554187253712298
0.0379498833617125
0.0434159026597742
0.0485059539543879
0.0344389223465726
0.0739350329247475
0.0526032545844766
0.0571517747628195
0.0467494581668861
0.0606272697115335
0.0488733249605492
0.0603835296627186
0.0547263004779526
0.0578747131615474
0.052837122470054
0.0601509283350096
0.0690844913435385
0.06010054657024
0.0690195882323031
0.0704493323701422
0.0650864321039993
0.0692000806805472
0.0640414967274211
0.0780088244853154
0.0705757338314579
0.0765022529621888
0.0891758498930645
0.0684390874489539
0.0888079638600107
0.0766815693432942
0.0820157852664386
0.0948436116233741
0.0816977260234948
0.0933822310814527
0.0864545106625259
0.097140893484868
0.10077233924563
0.0915162142628026
0.104915512222698
0.104193562884766
0.0993266107549071
0.0994128218944647
0.115641977778197
0.113680466513471
0.104163672865606
0.117763487265331
0.112735727655481
0.148777489393663
0.108393077460946
0.122066756379103
0.121708491250468
0.128763309936638
0.123299333234566
0.129154485386485
0.121862427445181
0.143867225611688
0.13017664609969
0.146198993312415
0.149023437615682
0.145192706809641
0.137528708531932
0.13557270866354
0.147933668274423
0.15270201302246
0.136488081338839
0.163062632320085
0.158163660874748
0.158442863906805
0.150951529473995
0.191340541148398
0.16017358913364
0.185280453613461
0.161581846098215
0.173559707049278
0.171635193807265
0.189487177131068
0.184735853033435
0.196077992268032
0.202816766238546
0.203629509685272
0.192184392072812
0.199539160394308
0.21024722520987
0.205736973332786
0.205319228156454
0.219104130613708
0.214885759750081
0.21584291106825
0.21841516718457
0.23925812967268
0.211942922170565
0.263964303159549
0.212443725152994
0.257114744227172
0.229285418633552
0.234306399199711
0.248214033697136
0.258028021458282
0.249113837026644
0.262103532855329
0.272306879538608
0.27515331423828
0.266310772587271
0.277786374579021
0.267551062122083
0.299773882624333
0.272966332718786
0.299581513134833
0.28681672659954
0.294118136904809
0.274102731128566
0.316885107293221
0.313303518347621
0.329974414192544
0.288321599010774
0.338864195124725
0.288967533501552
0.318066437213214
0.315330535564692
0.340901208757931
0.311942751118975
0.373614601938069
0.342274755467853
0.360517174186774
0.339670620309098
0.36195125070927
0.35785670312241
0.379764823185247
0.3690407022811
0.39521592961108
0.380273775445734
0.375064792166755
0.359223713594014
0.408462752210344
0.372552874739462
0.413566583421652
0.400288935558278
0.414084942600627
0.39233101565081
0.431610180382786
0.41500029766467
0.43286332274364
0.418351427447892
0.464240704581697
0.423007321321617
0.467837753500935
0.434543213145626
0.460424753890566
0.444652122582316
0.482615829563387
0.46173047991274
0.478494481039682
0.456455755594816
0.510421346101847
0.479833901823228
0.505786780966427
0.476782613014199
0.521607051353106
0.496678117220928
0.500868355655558
0.470944538639868
0.5434536456309
0.520281006300308
0.561678683675664
0.499792984698487
0.543101033814959
0.511268341158669
0.570356713766021
0.539639351368849
0.571914012795719
0.553011707481368
0.602606361837231
0.568406293401135
0.616454110734652
0.566822277390198
0.584027000867937
0.576311894687103
0.633617577948406
0.593925103037365
0.610321500575988
0.597813018893333
0.652335781923376
0.605641202565001
0.675571276598691
0.621229967111107
0.671937102219066
0.653483523796771
0.684582704380457
0.651018413437375
0.666447579118914
0.68702845119624
0.712910603623396
0.651489464978638
0.700026020416715
0.657886725702693
0.671781049432917
0.671295347384737
0.754492592382379
0.709632560640198
0.770208206516706
0.706962223092882
0.750369839792519
0.691307075909988
0.803590333488203
0.695742190835259
0.739560773130236
0.729527584105529
0.813663258351796
0.787976356762346
0.808192612286663
0.740474546848399
0.883257252106061
0.732325829038722
0.789503601876919
0.756140333844468
0.84393023601901
0.853853443421594
0.811244215790599
0.757331146355045
0.822782746567192
0.772016908212725
0.842782533662707
0.794865554834681
0.87829869913002
0.867714504225921
0.863830667354291
0.866469884190285
0.927484797943453
0.812291720616095
0.936660663929575
0.879190999588382
0.928440437662997
0.88207083345087
0.89453123883182
0.89109729387079
0.975230590176911
0.832828228053953
0.911575624770487
0.896512320406238
1.0453971587986
0.896603203767943
0.903957340923615
0.895983878098998
1.05655947406896
1.00075631318903
0.972946826664673
0.871216355125232
1.01048035171215
0.937182992474
1.02435601321697
0.891002617483094
1.00787430786332
0.936129834812566
1.00888630473987
0.885898773636452
1.0404261058427
0.970273217918344
1.1137867637661
1.0247617425007
0.972113041253883
0.926922059241438
1.04484384717639
1.01577471818778
1.04692632144866
0.960577590691054
1.17960354148364
1.08682547039415
1.11324162406672
0.982048168055233
1.07736066925712
0.975378298431928
1.13718254495048
1.05421419567931
1.11437352086336
1.04152046923619
1.09857815102037
1.00302169945913
1.10362886587893
1.0317967034344
1.10347638354009
1.10298984794326
1.20927329940247
1.06563654085618
1.09724327380847
1.03076824674396
1.15749758795091
1.0582073704332
1.15001779075236
1.09757396487331
1.17920377106163
1.09379075209834
1.1448781186552
1.12226104954332
1.20162831004512
1.17944582782114
1.26503453357333
1.05100466674538
1.25170547675894
1.13272395002879
1.21508189564992
1.19504260470082
1.12179641049325
1.10936536103945
1.2037970860717
1.20126012263838
1.3674988894782
1.25254862121177
1.37244154742056
1.13597465322666
1.24907088334595
1.22215605261943
1.33795685566657
1.13784141238784
1.21824406538388
1.2094546556551
1.45557468418801
1.21464271317443
1.31041367062671
1.241673932915
1.30881992446721
1.27134325353787
1.36006841545305
1.13489768853666
1.18544616839167
1.16713070596035
1.22727201870822
1.19545196627662
1.24727170047424
1.23776848532484
1.24189243104578
1.2085180118127
1.29074664395754
1.36483197785199
1.47326494495655
1.11126307090852
1.2680097199866
1.23408692932177
1.39792149985939
1.2943658342374
1.31582401555884
1.29330861418694
1.37765384840966
1.21502461354408
1.3572491604869
1.24216555994877
1.35003839837658
1.21445915367817
1.25227128357997
1.27887740616817
1.29464305122955
1.20687482386764
1.30523563043456
1.24333020034437
1.39881906230103
1.30869651445693
1.36521469170948
1.30804510807015
1.32057254781871
1.26694718944741
1.36669160315002
1.37121198580101
1.3550239188031
1.29806108233302
1.42985022778388
1.29841227738636
1.34342604358851
1.31801597858586
1.40708426440378
1.23380400972515
1.36459354130184
1.33072917729103
1.3741634585581
1.2165667842067
1.2366095299229
1.24963349722742
1.39917066810866
1.42475749086495
1.45805713969642
1.33368391586327
1.33984795489458
1.20098709358231
1.50088443638801
1.27519956552664
1.25909358283199
1.26882018091576
1.39123007342114
1.31346244741454
1.38382593767446
1.37213088761162
1.38919761695369
1.21215873176755
1.29319082567959
1.37960301107508
1.36481514738317
1.32032846217054
1.28468268418582
1.26340734555373
1.40844083474986
1.33948445196482
1.47563436978692
1.26086425931139
1.27569072092777
1.25753550946882
1.35117075671886
1.28807678780971
1.31316288987479
1.28414256322507
1.34962813705536
1.23304523547381
1.30459310920046
1.36373844022452
1.34387413853135
1.21503497916597
1.3030632657825
1.33238334940254
1.35032445517909
1.27394659920978
1.23759738236825
1.28739999649364
1.32323367615179
1.3045085306956
1.40779152412158
1.28039157704623
1.3391275428421
1.30783355700091
1.30900728638829
1.22301816788573
1.23736985914592
1.29092015779353
1.33595172512529
1.35675070671231
1.30363434822797
1.22584653445871
1.32402021569695
1.28481518006702
1.28610942191377
1.29697854301955
1.28706825720163
1.23821806547468
1.33259675180746
1.27003194340943
1.34092221424235
1.28869849582581
1.28083769137696
1.22819799312022
1.248360784557
1.24959608440582
1.26802352501342
1.26420631780366
1.17727946935951
1.20229354424038
1.29194004371486
1.23454247145797
1.3086148725251
1.26983008167916
1.27835200987261
1.20376016627655
1.27364321329696
1.23066661714403
1.25512784905114
1.26930088103926
1.18387449888423
1.20279027525882
1.28688812238725
1.1853257766798
1.22967973154831
1.22238123771864
1.18993039120862
1.20546453446899
1.2055616509943
1.16188660759423
1.19123396797455
1.22235584499445
1.20726816984175
1.16726364062921
1.23963891084069
1.14469788124707
1.11319828918346
1.22062871702361
1.20793042483401
1.11718413252122
1.15570926331877
1.13395093980771
1.15939546171048
1.11633907244183
1.1230742854114
1.1711674079141
1.14659845358183
1.12544004061745
1.16911225610894
1.12236095294999
1.19963747402511
1.1693522471773
1.11163316897872
1.13071761730442
1.09921510556744
1.10422694912535
1.12520580009213
1.05556097740964
1.09864536044969
1.10956959941353
1.0581858572747
1.08421453195842
1.08312297306338
1.08952049639974
1.08468572194191
1.03130578078798
1.09707604510186
1.06497699060004
1.03633272081835
1.01024009701588
1.0129442402176
1.05316345750573
1.06991101795219
1.04037555234935
1.03221070533701
1.02951336581662
1.05375630227805
1.03775488022362
0.994623596494985
1.03864503569318
1.02782788490629
1.00970568548195
0.986750977136203
0.973182967838405
0.993220111129798
0.974643089596179
1.01537836054534
0.979331599620148
0.949837097244523
0.984599545047661
0.979228464205428
0.963258233203214
0.98673620212054
1.02373475102799
0.975352564131136
0.934983738214364
0.915398875437526
0.90781297928207
0.899202429529145
0.910311253465246
0.923581132864625
0.932435136024374
0.912179766053815
0.88036624633212
0.899614049295644
0.916108047873938
0.896832103054819
0.877348451979343
0.888366488591186
0.890903481759342
0.859931370655233
0.850343362529945
0.865681509162666
0.884400233875103
0.86170494908987
0.852810293693296
0.840150392439095
0.846373895046542
0.833464064727329
0.837756251305739
0.854568429813324
0.8446486118797
0.823940091554665
0.822550797856248
0.828583355776498
0.832409547969643
0.807819003831779
0.815813519652102
0.826892281410777
0.824763788360881
0.804241895081698
0.800127652152002
0.778163619246061
0.778156826404315
0.774212225577295
0.764728229636575
0.781209316091436
0.753152141829995
0.768970184493278
0.766797283236862
0.75091975575959
0.752775136214649
0.7341607193223
0.755610448445489
0.742915989276683
0.754888722691964
0.738835403466155
0.71355605416891
0.726391232240696
0.724194182681391
0.694362050395722
0.705865740927857
0.717569843413186
0.710633614495776
0.693241162494783
0.688057829585298
0.70050289060157
0.694775180419035
0.683007331262412
0.695748514804078
0.671467133779862
0.661721860090238
0.674533816699811
0.675171392197697
0.656453951995541
0.666380329021768
0.689592950469725
0.674294543548682
0.662399406368976
0.658565870775872
0.651180086196296
0.655968466314138
0.637081176065139
0.638264867589522
0.640645387959919
0.633611536600821
0.643672999883989
0.62449798966983
0.624767321328718
0.61764462608552
0.619675853952031
0.637032320856714
0.626376213258801
0.617454045353098
0.594491626930737
0.588902687101922
0.598345418877848
0.603699103404748
0.59418585678784
0.593757620520282
0.600849195946718
0.600076091354433
0.585670910706647
0.585335316627569
0.586068693700015
0.582154661045166
0.569300971929755
0.568045383263614
0.56763626451122
0.563732934276982
0.548244059692507
0.55270418805452
0.569003474520379
0.567163807610437
0.556285308094389
0.549690190690029
0.533589641892284
0.536987501089305
0.529913434481725
0.52463696246012
0.547456598168714
0.528690743411326
0.515138786432504
0.532562039082158
0.532868739308315
0.524094117235496
0.523043938104371
0.537180764094439
0.516099976407758
0.509180727490078
0.503094392616081
0.515834070866089
0.506097771179224
0.49770635928364
0.497915628126199
0.492001877986909
0.488589522517038
0.492766533092914
0.493198904481366
0.489306498525861
0.48499382384123
0.485267351875787
0.47384660935711
0.480192533472299
0.482164379387354
0.477408093152806
0.473290289567887
0.474929474907609
0.455028213011133
0.458006345811412
0.459847128030707
0.465794617268026
0.462850596815973
0.44872272142145
0.454014587440033
0.45168468925317
0.445574166977945
0.451902854147268
0.446454377239588
0.446985613474475
0.433359674647473
0.429092230686848
0.422346226639642
0.427920125179773
0.427752444126665
0.432431295367621
0.420778217069376
0.424797697931467
0.415822014065257
0.415656483105213
0.411136244378263
0.414616048290406
0.414230487719385
0.402229282531041
0.401290832807559
0.411497372140196
0.412492519184964
0.408743290361517
0.400901822178463
0.402485942967611
0.396728380899779
0.404136889534762
0.394664357372123
0.396456016477974
0.386287088709365
0.386060884498171
0.380870400586605
0.39490553587631
0.39158367587053
0.392032163920288
0.382706812474243
0.389385637838411
0.381978430378207
0.37343049514776
0.379690595961792
0.388490210983455
0.385295630669247
0.386663811414042
0.379727516469266
0.379912781318151
0.382520266217752
0.390275377498008
0.379587416035844
0.379407995092003
0.381528077521444
0.396813552698775
0.386394100087517
0.389541519350534
0.382999054767272
0.393451954140052
0.390270256794712
0.39438975131484
0.393282552208362
0.390706408633734
0.393356824591466
0.401218734876731
0.40067873700108
0.410501434767534
0.409189596091836
0.411363722019646
0.407927485951201
0.41637457694188
0.405837413255661
0.41802265864007
0.422918118975806
0.438216047428326
0.433232004162521
0.433728089613069
0.431476744977968
0.42701922269405
0.437452187597571
0.445519634501148
0.441436032205892
0.447878265077386
0.444570647395874
0.464118847491437
0.445887391185815
0.450146265524096
0.445721665531933
0.45904780955518
0.45051297993436
0.469098440475308
0.462837762651265
0.459518348336356
0.468627323855814
0.475189500323762
0.466628628846049
0.48228147273689
0.484056135833239
0.483343744876002
0.479635259713734
0.485986476570527
0.476572639514568
0.506761051698512
0.501545103352646
0.508276859795836
0.508653030797072
0.515534297878835
0.519869228578542
0.523330015488292
0.519356401317408
0.539075879164634
0.534481920277544
0.543864398484476
0.532957193668015
0.534981020033212
0.539323706010239
0.553706623765053
0.539538300435947
0.544879972467336
0.55417699967936
0.562486480355482
0.55616423204718
0.537483207701075
0.545844343612617
0.548052595514463
0.540381270209237
0.550401796817837
0.539142443114858
0.550746340281243
0.538549401729314
0.551484727601675
0.544405468315717
0.544933814005588
0.527663076944527
0.550370954114484
0.526789791938298
0.557014974175777
0.545895264028364
0.546062622923373
0.520903156652275
0.54776352475859
0.534521751684184
0.551952519185782
0.530284254853155
0.54006688318172
0.541070465962442
0.530797102320048
0.532661069336606
0.547584347786191
0.536346808307341
0.535924565525005
0.535177396555238
0.551370196869338
0.541042121256096
0.539624309030197
0.532725252682307
0.543545968099115
0.526990101002776
0.548609393131231
0.535132390439657
0.550962099214528
0.540418941901792
0.560613470085081
0.532505527117978
0.541769658410823
0.515872420054473
0.538802125385957
0.532863770407552
0.536200411104408
0.532991713377266
0.540304661358981
0.533804628313759
0.539678822040189
0.531395169137444
0.538276603597611
0.516283682771962
0.532050163163261
0.517727104799081
0.525133029377362
0.518974492446979
0.517529544116049
0.500643040675387
0.506488003826742
0.507335812506086
0.509710720246597
0.496304555505876
0.499345858284881
0.486847494693785
0.494513005982559
0.490889896627412
0.476320203074929
0.480730622873783
0.484217999892425
0.464756600112023
0.467751103666496
0.460606238360392
0.463786311057086
0.449479019910278
0.454817877879461
0.454494308528519
0.448651386780288
0.433653273657823
0.43577615632326
0.423423241174581
0.444500231586929
0.423251077286195
0.421915261242654
0.409773299229731
0.423296652777889
0.404551764729704
0.411761470557054
0.405038278418182
0.400664016495018
0.401905766026786
0.400819941015064
0.391207247275574
0.395778302733881
0.384483722174124
0.3912165150219
0.38046734960184
0.380178464345428
0.378828613923088
0.382384025726688
0.374110880939068
0.372840324690057
0.367641315150069
0.367856378719216
0.367099721929513
0.364729764098728
0.357428772547347
0.367281871893412
0.360095774045453
0.359303084277498
0.354514147027879
0.348055844407206
0.345106804533453
0.342617093495772
0.350572454359377
0.35386301065003
0.344389358698085
0.344437798043828
0.336210011468
0.344610320461495
0.335959076129731
0.334372270221122
0.330516727089075
0.335184352302419
0.329106416792777
0.334656239266616
0.321965286144952
0.328551469392927
0.321842646950251
0.330498524564929
0.312673166868731
0.326568516933418
0.308926434480456
0.321094833757663
0.321181042100641
0.321813223564483
0.31691823673659
0.314843643572467
0.310810140217781
0.317974560239598
0.308276952072862
0.314570812248407
0.305856447680758
0.31253462588926
0.307023565121721
0.309779778751282
0.299169310655732
0.308640390513462
0.296237928405969
0.304404971109973
0.290774867632727
0.300472465800751
0.290519111009233
0.295411819906296
0.297778884028279
0.292451030576221
0.29066408301795
0.296770680370602
0.291578905577882
0.293325302156876
0.27971331707881
0.290438874401068
0.284070150321575
0.284486823401734
0.283304247223115
0.289563721577332
0.28121806141876
0.286854314388155
0.27862218894438
0.280839778766827
0.272554554064276
0.283620383815662
0.274473046548131
0.281853829118358
0.27550459687597
0.285311575899047
0.275180847804529
0.279585460462923
0.269810393485269
0.272392538990328
0.270061752571321
0.273681607886875
0.273979203891574
0.272746321462088
0.266230324163677
0.27088200323277
0.26309517706547
0.275202402704166
0.266624449128513
0.265553590069624
0.266353270504218
0.267388858474011
0.269418020163933
0.268775732887885
0.265337498007782
0.265928766314471
0.263305877760927
0.261456545156198
0.261038942034312
0.265434073254434
0.260161753986778
0.268824170777761
0.25928486685982
0.261818681301816
0.253820584890923
0.261616163930921
0.256158951758263
0.257762610011753
0.25544668773175
0.259128192872609
0.255100537863268
0.257327453555937
0.256460848817652
0.258833264120949
0.251326298790509
0.263251033416352
0.2552062484843
0.259250328086159
0.254029914659545
0.254548127977786
0.246243595518046
0.250791153651073
0.250797646118049
0.253869064789148
0.252319225956261
0.250071634417659
0.251710403038442
0.252872078759307
0.242684340074719
0.249789716869559
0.240912423133451
0.247580902658007
0.241145280778241
0.251788167761736
0.243550153857574
0.245738338786066
0.23907042971414
0.243016519453735
0.241115700399811
0.246707137542438
0.240380331726785
0.243685052439011
0.239958078191737
0.24434187040147
0.23613886935467
0.235200488266044
0.236764981800749
0.241773697366113
0.240026441451994
0.236417917369505
0.233385795768097
0.241069385832949
0.239592982371937
0.244010424401429
0.229241007271014
0.237409027906425
0.230819484456045
0.230899562297634
0.223320788139457
0.227815249993482
0.229628427591009
0.229303207152881
0.225016390157302
0.224842869123303
0.221639701543641
0.221859595539113
0.225319272384026
0.221293208398241
0.224473821956239
0.222703928499339
0.21848385996399
0.225767910212731
0.217579551049944
0.220304132792597
0.214172843207785
0.2199879025697
0.218286912785838
0.218714997233322
0.214132685197987
0.218130513289102
0.212673185129411
0.216545738350713
0.204162296183117
0.210327789212639
0.205805770187799
0.212087019814229
0.205638774755035
0.207714009348651
0.203991575916096
0.206388650764567
0.205526546135937
0.20434085970557
0.202633028296733
0.206647754023858
0.199171961708799
0.202794742938449
0.196704773988854
0.199651479676438
0.201140956419072
0.200164039725207
0.194144549073542
0.196400700103608
0.196639233630908
0.193957648454372
0.196178505749936
0.195543054256622
0.188645887077566
0.19406699562314
0.186460970822853
0.190971408251472
0.188092932046323
0.191239293797784
0.184931833196494
0.186589647891727
0.184524047292133
0.186612722972045
0.178700529427466
0.18127486040021
0.177497896423804
0.182111573760888
0.18067499760274
0.18010727681785
0.1789153060958
0.177105987811221
0.17719571570663
0.182947945314089
0.179896288535855
0.181017352544914
0.174515739324134
0.174637342054689
0.176090603248451
0.176007774687376
0.168478521428144
0.173376392447091
0.168930851454708
0.17429977131531
0.167367348818453
0.170765874257759
0.170155709970758
0.1722191195749
0.166116133547567
0.167487209283795
0.163125114271535
0.168356375172373
0.162119338018344
0.165148881736132
0.163450707776377
0.166557125117205
0.161707504401786
0.158563298632448
0.159381474227313
0.162132935892561
0.15760979540541
0.159483612645542
0.159826009099871
0.160507544546778
0.155871377618552
0.157732507296028
0.157613120778735
0.16390980227223
0.156601369365749
0.150909576445615
0.152408653204196
0.154943449530356
0.153489270046783
0.154321692654926
0.152212145000821
0.15344839443438
0.146525638600734
0.154039974023492
0.146652333968895
0.150566914724434
0.152289228271723
0.150373140918449
0.146382115269622
0.147113888313424
0.148868150948093
0.149911010489234
0.148225030995932
0.148281005209398
0.143654082830598
0.147904602943349
0.145291873147156
0.151046270406588
0.146124659701652
0.145958762753941
0.148620981681916
0.14708628814588
0.142556687639813
0.144843699427329
0.140844863107494
0.144278907428662
0.146497841800318
0.142964581146288
0.141405480920977
0.14394088155241
0.13939805017631
0.143929381631441
0.141195577260789
0.14400313817258
0.138249067914902
0.140396643720983
0.139583000886076
0.140182031396515
0.139867444858482
0.141410957419035
0.140980764753791
0.144872536653857
0.136374262791801
0.138770677041788
0.137984133794372
0.138536145937051
0.137160947487052
0.135663394711187
0.134836550715068
0.138539644528142
0.132503703061981
0.135676261104175
0.13680061570689
0.132516883182028
0.132548088505223
0.13970823885504
0.134396741565742
0.137789846873636
0.132327307434407
0.131634247935205
0.131205853738307
0.138088308264446
0.131690536864143
0.133118216358767
0.129434218886827
0.132050277313785
0.129768060318582
0.131178436613184
0.128416012452362
0.128925271505816
0.12907002534606
0.131531075299447
0.127080398905321
0.130272287533068
0.130548362241399
0.126722702846195
0.128573755003645
0.129365055768887
0.122947462065106
0.127053061474674
0.127647398288882
0.129281793822351
0.122411851068133
0.126357490706124
0.129510849030396
0.126713556142528
0.124943599182222
0.127183913571917
0.122928901954371
0.124454930333306
0.122306897626883
0.126199126507782
0.122449356000001
0.122408831830188
0.120215985883586
0.123206115934181
0.120074584263953
0.121219704796691
0.122998030541652
0.122768185037859
0.119149322237177
0.122628214910124
0.12086014873548
0.118608847469944
0.118487608869465
0.122140935800869
0.118040785873318
0.120085193274606
0.116017100000058
0.11363020456587
0.112715719198833
0.116752974166438
0.115937718299754
0.115452606349896
0.112808828386785
0.11661826036176
0.111089772959096
0.112640427440182
0.111843562943746
0.111967028440251
0.112727920591078
0.110240251099911
0.10933686154949
0.114677738409532
0.109187157060173
0.109971909878902
0.107524110577797
0.107067298303631
0.107432571177086
0.106840309859866
0.102849037097924
0.105693322469118
0.106478602043787
0.108791567971268
0.106789360426163
0.10679843989596
0.102704291332512
0.103770492422034
0.1012103818484
0.10380484687465
0.101073076419467
0.101056288281942
0.102261188065845
0.103279398641724
0.102121616240932
0.0992781294368172
0.100106939029236
0.103169230778048
0.0970838505888404
0.101448521943248
0.0997417889657869
0.102076271439072
0.0969783295034011
0.102055189760058
0.097237938816712
0.0973883585364663
0.0972767170644927
0.0969227010616465
0.0933785409622964
0.0960826656359198
0.093388067308673
0.0939702243053024
0.0966567242515887
0.0968366683544991
0.0934694822670146
0.0957301904552718
0.0924912087882899
0.0943376451199333
0.0930004156836403
0.0941546944435929
0.0886093374524373
0.0921463199785902
0.0910758268455238
0.0905793080683037
0.0891476063604582
0.0883197059464829
0.086435746374062
0.0908344289586148
0.0869623366749403
0.0885496364573639
0.0852012711976727
0.0885686526929877
0.0870004194579044
0.0886069289425231
0.0869519826619887
0.0871985656797175
0.0834016902837015
0.0853920238942894
0.0831608103384989
0.0863357724123098
0.0816331228466278
0.0822110737557565
0.0832232971270687
0.0861409236787559
0.0824478355787103
0.0846686348419433
0.0821969490168437
0.0854333618004944
0.0827502165133987
0.0829217884311475
0.0808354489890244
0.0821069041555658
0.0796795736737144
0.0812170284759128
0.0819476560915442
0.0831306824191108
0.0788218599596062
0.0809448649558929
0.0798944940946949
0.0804948589539024
0.0780608282455062
0.081573357283722
0.0781073699949481
0.0777736194131766
0.0788668474309647
0.0824599879159645
0.0765431603019561
0.0803074177214679
0.0765897909298392
0.0816021794705903
0.0779952018767499
0.0783442439251865
0.0714722456311412
0.0758656421525071
0.0750589793318369
0.0774331770271034
0.072718469638575
0.0755406221620875
0.068438607169188
0.0743655521305464
0.0731244644210858
0.0726466867544295
0.0679109678341513
0.0756739827804958
0.0677685426210907
0.075735298428131
0.0704677098101649
0.0716603563187398
0.0660065547263285
0.0679133569448061
0.0663016074735237
0.0791475711836605
0.0693899815942364
0.0740504994012509
0.0644034777827497
0.0717096181212311
0.0715262590917544
0.0696001684842608
0.0651713915658187
0.0743579417064981
0.067959910868268
0.0753196132646127
0.0671252114808749
0.071373902205919
0.0643705728731354
0.0785004769154282
0.0670229541498823
0.0775130582614159
0.0683129899715303
0.0721798657002742
0.0631847720227013
0.0757719580144992
0.0650631376709308
0.0754606361569613
0.0631466090141355
0.0728294190061116
0.0637963573194811
0.0676576993881677
0.0580685499876142
0.0717160001201049
0.0648246431306377
0.0697485594531971
0.0599590436167798
0.0679680170126901
0.0675868391419026
0.0682949129223318
0.0653618762217613
0.0693462992597978
0.068936306705295
0.064167294309961
0.0752965812096992
0.0585047638399239
0.0725530248747502
0.0582869798216162
0.0779763525944035
0.0522183218075169
0.0786160122628573
0.054864283162314
0.0749333706076961
0.0559531241383892
0.0766452897425279
0.0599561897821014
0.0709042278634184
0.0651829723767011
0.0671515160420621
0.0676922564570958
0.0654856207651753
0.0664560610785505
0.0639514976182484
0.0706448440090936
0.0688574069650092
0.0641406291709308
0.0675683955627322
0.065974088717747
0.0696801178668291
0.0653414848226631
0.0684453772552256
0.0647789140148983
0.0654815706148743
0.06325778524501
0.0648829060937206
0.0655334697120129
0.0654109145040293
0.0642655388457413
0.0635945645041989
0.0618757807913841
0.0659579065456087
0.0672958551666311
0.0664637462405282
0.0654502869581369
0.0674703469192683
0.0644033367021592
0.0650162273281664
0.0696982957893166
0.0681512524735853
0.0634538064122219
0.0680591467633663
0.0670604020488126
0.0667169223752531
0.0673975919829139
0.0656802829731284
0.0666825691321937
0.0686944684914372
0.0647041392341215
0.0669125198423925
0.0658175335709201
0.0658984400538076
0.0650937985581728
0.066537307340241
0.064910695126913
0.0650781552882201
0.0653937391250018
0.0672509253013201
0.0649030437260273
0.0674753034783342
0.0657612731026281
0.0657653608664465
0.068418084560654
0.066724421749872
0.0662796677455577
0.0663752349608157
0.0634542335304592
0.0684831572833088
0.0651673772648808
0.06463474829306
0.0673459779811365
0.0663557944040152
0.0642578327879516
0.0655831452187926
0.0660219570542618
0.0641801548292706
0.063965786162313
0.0643127220226969
0.0655030974511778
0.0659944141203648
0.0666597204063009
0.0654904185760456
0.0672051572886055
0.0669859427860675
0.0628722239549856
0.0660566355887645
0.0662757515221471
0.0652705585421551
0.0664818495660761
0.0641781020275108
0.0633572042813564
0.0645414315510079
0.0665960492489534
0.066242034318347
0.0647153043690755
0.066361203406835
0.0670628029588545
0.0659076609184432
0.0673521166838181
0.0653361687336473
0.0666324971269079
0.0659819180437007
0.0682830184772997
0.0670681524087499
0.0653688845998899
0.0664587104890696
0.0672300568858019
0.064824928448622
0.0664812446967516
0.0682097391041441
0.0659474993040411
0.0660072852411264
0.0655822022850029
0.0686351319696761
0.0685994382966981
0.0678138733674878
0.0695156383422651
0.0695296970101593
0.0671715890717073
0.0662131991682377
0.069310830891332
0.067883872702777
0.0669715138739557
0.0683605156193454
0.0690763690761912
0.0704324188892448
0.0688736745438097
0.0674661850763594
0.0691764707306873
0.0643876619745265
0.0665728017206083
0.0707047726049895
0.0677544955246558
0.0698982437799993
0.0698985986517211
0.0685000053004232
0.0689699594256951
0.0689909127048095
0.0672976912846603
0.0678819433310568
0.0701137520221412
0.0712060784718904
0.069411831817881
0.0683300053932872
0.0692649303177547
0.0712213713413756
0.0704374154905516
0.0707659755364397
0.0680504569016302
0.0665676039132053
0.0701410305207979
0.0680105337606369
0.0699830623634397
0.0697815920500586
0.0707879087075092
0.0715566592541463
0.0716027410516487
0.0695478118812362
0.0712706053104773
0.0715286920178524
0.0696183833159033
0.0704030913448992
0.0704202606937864
0.071894311296346
0.071490389342177
0.0688712083952489
0.0706238747822423
0.0681021463148153
0.0707216885960756
0.0735860735785019
0.070059510191211
0.0699791730465999
0.0732620358765935
0.0729512176052403
0.0727783092643643
0.0714779253853194
0.072129496381712
0.0718458831212939
0.0724572867343883
0.0723766633883725
0.0732212928295833
0.0721364772551188
0.0729656550565783
0.0720220432626073
0.0717095816086036
0.0728054083460031
0.0715565283740958
0.0728576847608199
0.0708691541007005
0.0715614258201164
0.071624617080365
0.0697072746490788
0.0691666726428498
0.0700921222132006
0.0712151419188298
0.0712570501291011
0.0696924533752305
0.0700880962098476
0.0723723130102866
0.0679622833635259
0.0716991802377875
0.0698979375860312
0.068423897383388
0.0682070575299557
0.0699590979518195
0.0683925312720718
0.0682857643150159
0.0684384709998583
0.0706192101826666
0.0719289851275817
0.0685511297199233
0.0715501664670837
0.0706306033597687
0.0658613938615444
0.0666089744689635
0.0680006320614585
0.0693521020867142
0.0668776003250505
0.0661267157598569
0.066458559722238
0.0667380026452292
0.0679404675704462
0.0664386414163724
0.0683421574443951
0.0698362716732855
0.0662759743336208
0.0674797131910249
0.0676770560716434
0.0671253644616621
0.0661904602251307
0.0640243260909565
0.0667608773918622
0.0684318902698173
0.0667883052763898
0.0666174252016733
0.0664032939525944
0.0671123098654724
0.067702825636598
0.0658372114264761
0.0657268808756274
0.0678262543997217
0.0655755031228873
0.0663130955659485
0.0688558821569994
0.066865155931284
0.0682752491311538
0.0659897698614738
0.0639037961747038
0.0623591669784747
0.0688162116970421
0.0662782556909284
0.0610804135798383
0.065564549365693
0.0671651866663824
0.0657761737261211
0.0673286470471868
0.0652322742353931
0.0642008627701083
0.0659653442268518
0.0678991033797344
0.0642988256304886
0.0647273502027735
0.0670817160923176
0.0648117559436893
0.0666346035165393
0.0652541044369429
0.0664830615002461
0.0685127188704036
0.064696508628998
0.0647789440980365
0.0648416457414074
0.0637509046401248
0.0657350773184187
0.0653437806584419
0.0656027296487952
0.0633125345690127
0.0674320103864404
0.0665342730786356
0.0652871416996021
0.0646233999102018
0.0647105498619928
0.0651935013246147
0.0649784490055633
0.0614176128442328
0.0622934872562164
0.0657809759547739
0.0614138239768679
0.0652663975935191
0.0632837124433066
0.064528874557749
0.0654465052221377
0.061897140500163
0.0637205169242968
0.0635592498659386
0.0637674747119903
0.064087701110957
0.0629614326755049
0.0642067007812654
0.06316847205031
0.0620111609563235
0.0631216534319422
0.0627298126381868
0.0631485861522599
0.0612039960330939
0.0604262941412962
0.0599060080631786
0.0617050360490171
0.0597122543420632
0.0592233348821672
0.0587472303707118
0.0622629145792666
0.0611180641822895
0.061934091791837
0.0585760251634837
0.0587327904184844
0.059727983837319
0.0583448008255991
0.0599394087035083
0.0595218167721746
0.0578622918380191
0.0602769258888762
0.056327370971454
0.0577150283763245
0.0592836396219009
0.0577161974304292
0.0573451912501114
0.0582616973244637
0.0577639244023631
0.0588733480116511
0.0601158699041596
0.0577491142476801
0.057857285491169
0.0570801889416325
0.0550506728446682
0.0566384795061099
0.0579526327694122
0.0549728503750616
0.056069401276079
0.0552181016888422
0.0540593946782884
0.0568313512527671
0.0572446824108924
0.0535805881828092
0.053264734650691
0.0528827648392011
0.0563168084224258
0.0554307277712485
0.0548084574037256
0.0533076311256904
0.0546363220239898
0.0501948343162649
0.0511010609443493
0.0533784860761011
0.0545669105216374
0.0531059149734487
0.0540252637790346
0.0541588769664688
0.0550025177514801
0.0534421506709002
0.0533928745293997
0.0527993300769258
0.0521752605237031
0.0523750508286215
0.05559612164545
0.0526408067349515
0.0511436161783333
0.0510259344320655
0.0517904762528777
0.0537100791344028
0.0536587948162158
0.0513675397762536
0.0503616750957805
0.0498175624100764
0.0552218791574376
0.0525581740866467
0.0513925698334767
0.0516994826528477
0.0553822586750457
0.0493094401912034
0.0512216868593586
0.0553180273171806
0.0517273072175868
0.0520739990040589
0.0525372022803069
0.0499537689257797
0.0493249569968619
0.0521005527260424
0.0505898343851754
0.0503937373369617
0.0489670475248948
0.0501614487509609
0.0507099502611147
0.0491248428452109
0.0507711476961237
0.0488504112560902
0.047697797831332
0.0479921867819827
0.0487252376115185
0.0512034530256254
0.0505434389531954
0.0528578447433544
0.0493206505716222
0.0500419728287397
0.047340140918493
0.0511665238994565
0.0471479670188397
0.0491780002486394
0.0454041559485456
0.0466213645357128
0.050043839087313
0.0496098180356743
0.0468486930389053
0.0481935651289073
0.0503691623746683
0.0478332780955701
0.0469815821334934
0.0474430352626805
0.0472860860694576
0.0472072660527791
0.045375205886185
0.0479464141941134
0.0485311957520507
0.0477000656213777
0.0493243543706015
0.0463952599172657
0.0491013108872638
0.0490046570564357
0.0446693165476807
0.0489706395378615
0.0504414959522879
0.0481530735138419
0.0478390694045558
0.0461410736654292
0.0492218693370267
0.0475312188736364
0.0485408710383299
0.0473416669358324
0.0498576730323226
0.0453335120165291
0.0484742266251424
0.0474470766117345
0.0508303661593656
0.044921243856988
0.0461824996833339
0.046321771028531
0.0462955700600093
0.0512036628986308
0.0491087937014739
0.0489867458589218
0.0488050579407551
0.0455751951473847
0.0492762591437244
0.046511486045365
0.0501353822143507
0.0478564036772804
0.0493369147587201
0.0468854587590627
0.0477233342400661
0.0469973679236852
0.0511504484866164
0.0444270235682776
0.0503341517332479
0.0472008763247569
0.0465255580105129
0.0442183148898175
0.0488040543739508
0.0465379349214248
0.0469098912969744
0.0436355133410669
0.046606062237018
0.0482976191884418
0.0468602877173684
0.0458630500449985
0.0458354493420803
0.0458703135355908
0.0471993205195613
0.0470046499758537
0.0452611841639362
0.0484132668805133
0.0460750756806251
0.0474193609743584
0.048285533272459
0.0488154773052647
0.0506151034506609
0.0450057605744632
0.0493203561393888
0.0443946455483602
0.0490954024347881
0.0447698459172138
0.049707261914925
0.0482038663946037
0.0497494828045201
0.0477603289494988
0.0477839080484003
0.0452370326974571
0.049013616144538
0.0452049798224005
0.0463845405045731
0.0485098261558513
0.0487218101912255
0.045604312105302
0.0480486660108171
0.0462509963137873
0.0476533177870424
0.0502560006787368
0.0485361933023892
0.0446990729993588
0.0464480926930689
0.0510598534161855
0.0437271702087432
0.0496352538418045
0.0458371265352138
0.0478060820361319
0.0497832958755938
0.0501631285780168
0.0475318856599555
0.0488966201561886
0.0498114663172733
0.0499302351712034
0.0481065699394091
0.0487150266330177
0.0494205575107907
0.0474131480813843
0.0494185275575114
0.0512995126079038
0.0500443873707717
0.0486398735162223
0.0459498514207715
0.0568409728007377
0.0490092473064787
0.0521280849642202
0.0489138637259644
0.0486549527905127
0.0487746568733004
0.0500184259089063
0.0519849802159882
0.0520672688305709
0.0518327944329524
0.0484286874395053
0.0513227498203179
0.0491306393610705
0.0497152006326482
0.0511681564383958
0.0509224122438521
0.05363377612489
0.0519146919130272
0.0522266240338571
0.0538114002885251
0.049752129187282
0.0544460446222159
0.0505778760643731
0.0535638566144687
0.0511270214226032
0.0516857872421553
0.0535763117519004
0.0549731514070516
0.0538750557760387
0.0550241584909874
0.0532249365640146
0.0546722853728725
0.0552395828565084
0.0571970749405502
0.048487673834763
0.061597501569368
0.0472083384831897
0.0574435156839844
0.0553506549294695
0.057056001228508
0.0536324711623722
0.0557757283490707
0.0539754644990259
0.0556598855892486
0.0576631101015078
0.0562668440616308
0.0596187381740902
0.0535552845188765
0.0646238469029216
0.0552953865127443
0.0599901189541536
0.0554124847776364
0.0587807497520477
0.0575676832119881
0.0631461843066719
0.0570401702886676
0.0609178926904618
0.0615970359775204
0.0639845930696637
0.0664421589645243
0.0558606744893066
0.063446476530663
0.0638923151437708
0.0583352428203773
0.0636687212460527
0.0589811524492362
0.0658334588331617
0.0599167042775124
0.06826160680766
0.0696394884877562
0.0615187274534479
0.0666325239116152
0.0610660712926429
0.0640458774244704
0.071649717632732
0.0654724648002912
0.0692350573245952
0.0683338957887377
0.0681777406134446
0.0634903718188235
0.085940839615442
0.0639878438253081
0.079678963067401
0.0671963216829882
0.0748117807295704
0.0750984808616737
0.0772521871513294
0.0733829384255018
0.0793198541014323
0.0759186521470401
0.0794407639893438
0.0726643438250596
0.087660928701789
0.0826277107774928
0.0839381663075798
0.0813393854062928
0.0831206869008382
0.0862403340647159
0.0936304324940504
0.0904317691125934
0.0963133532539049
0.0893273445207588
0.0943990053478663
0.0996787243462324
0.0927400243314776
0.0971956496441429
0.0953372531655153
0.0983340530967333
0.0976079680258519
0.0970631909210062
0.100498401446264
0.103830194891469
0.106979561775353
0.10232908089146
0.109348109002451
0.106497897303794
0.119933108735064
0.110541090438099
0.111011827430287
0.128587437834
0.112253081038768
0.114371328234117
0.115291219994243
0.119682008665104
0.121304788310043
0.120754699178206
0.121034793138554
0.121909033166425
0.137908459880761
0.128018206501117
0.133120779565189
0.134526285244338
0.138189758568926
0.14001190098472
0.144036709926081
0.184125086717341
0.15153486447756
0.161221478792216
0.15872638120107
0.181593220340478
0.181653874060273
0.180243548629097
0.19252242179266
0.199150924931357
0.199488704980495
0.214965006232453
0.220877894068018
0.228245910336081
0.230959015110435
0.23949604303019
0.243417287461057
0.261756496716599
0.268745513663269
0.281849160490516
0.281451929817778
0.286530633109668
0.302574686924235
0.303195689393697
0.30565802869787
0.323878138231992
0.321912879186454
0.347284839618687
0.362043739810218
0.356991749403022
0.358625744652345
0.37612068931761
0.386173628369172
0.386152923470332
0.424425699352007
0.411681092863751
0.416851202967568
0.423169267417982
0.430504544160043
0.444310889275398
0.445564813435063
0.478148956959582
0.466153007361089
0.476767876264515
0.483133757468888
0.495670434925972
0.497587601835636
0.498517889057843
0.507205477034817
0.51122113096507
0.518972917969221
0.529119358072461
0.59468391802211
0.516425172078934
0.526973258665348
0.521482457093684
0.516627658946497
0.533065353633835
0.502565863350968
0.546936914599433
0.527489348116313
0.526394114552471
0.514718906530269
0.533171898260676
0.535123555573398
0.52675932841159
0.521837045926396
0.519924674602676
0.532276421761847
0.52017653054801
0.553556589322017
0.545107946329117
0.509039548759448
0.515594834302747
0.509820331029996
0.515522903893967
0.51050166259584
0.512708395213926
0.508375570896326
0.517636904813094
0.508696618661815
0.495379327918152
0.483577546380852
0.511216051912284
0.480801779340083
0.471507633328203
0.469154577608135
0.466637272637066
0.461256758804474
0.448928032165674
0.458019755547727
0.452605360545984
0.432432777283752
0.441874456463233
0.429507927314117
0.426839342661329
0.417613862631018
0.422092692121921
0.419231833163893
0.42096995478625
0.408645683022054
0.415648724774527
0.402985260828107
0.403459470077032
0.399166492890533
0.411029560521171
0.399324112838664
0.404535580108158
0.390046682077842
0.392147402276944
0.386073666620061
0.390859495176968
0.39558498012818
0.396487202682568
0.39330412274046
0.396397584153255
0.389863128949004
0.395535463640532
0.384817343530694
0.391594473875904
0.385926806853056
0.392498473994789
0.386731052413903
0.389395035093712
0.381314006580531
0.384861767360875
0.383409508713258
0.390860164495706
0.385250705650483
0.385871172900716
0.385064819544796
0.386605221244583
0.383832666149361
0.376978218336952
0.401045772591608
0.377285750194187
0.376391664380046
0.373078691769064
0.36776062575015
0.371815173530683
0.375843210755088
0.401549892437892
0.36074785970277
0.368096589554971
0.365154027957807
0.366360708476948
0.369005218893411
0.364651231462592
0.362012010409117
0.365743155426745
0.346192249357729
0.39157840342387
0.374606687054609
0.382110240487678
0.38900127725946
0.362720351116531
0.356359570676575
0.368226574566616
0.370375212932426
0.357933717149293
0.360779771922646
0.350296085145682
0.371062155992965
0.359265418423192
0.360452547622508
0.36201644699619
0.351565745792952
0.359123326404639
0.356658933693234
0.353866928532698
0.356363052932651
0.35551708256299
0.348361562334423
0.379167694754405
0.351035167040705
0.341750929732574
0.334517844709318
0.340456642601495
0.333566816224328
0.334576903767949
0.351467214547572
0.323218591617726
0.321672812146753
0.315428726159195
0.31173535469225
0.315979923014654
0.314591324436839
0.314730317445026
0.305103507053253
0.319918944399635
0.290412396547721
0.30731454098194
0.301863738241752
0.316579071618409
0.301157252397715
0.29377619069891
0.29151767244388
0.294061390049707
0.297003996273795
0.284254051845897
0.286635804054868
0.277409227080006
0.272187210585038
0.277970793138081
0.261816821142453
0.265758460828839
0.260669916987336
0.266742909805356
0.269727418320847
0.269712538338201
0.261161607173668
0.247623140510775
0.242601045557526
0.24742826895133
0.245382052493776
0.248297727257872
0.235298771758852
0.247044878786847
0.246244167815905
0.240301857137302
0.260593076994011
0.248251781561932
0.246228664189354
0.248447894813905
0.245639687306053
0.251379634467897
0.256990377069143
0.262438979789234
0.255162681336384
0.253965634939936
0.265936501084226
0.262020256668678
0.269464222634146
0.271475470283591
0.274823696291831
0.274456229446827
0.287325424368261
0.292072035730447
0.293938077823141
0.30252415953645
0.30777670356497
0.311978649703046
0.327665262796445
0.31603309770485
0.338514512520848
0.341971887529117
0.36326933998473
0.348591972234044
0.355590548018101
0.366244528932221
0.36925999610684
0.374576012911745
0.377234317319394
0.389374004164088
0.40734390319792
0.394609520962679
0.40825964173103
0.405264114287389
0.41441090178047
0.411472159298027
0.424200377367582
0.419317572516556
0.436248646177135
0.436535910042279
0.420659352665882
0.438746149063416
0.431981006650964
0.436574098041013
0.443064080753203
0.446644043538108
0.447439361352702
0.445970992915752
0.457252249044168
0.448989289197392
0.453994128245932
0.46377760998481
0.461224079104253
0.466071182179845
0.469945586733697
0.467398314003876
0.47154796502302
0.472722460922858
0.476502507125127
0.472266548828563
0.510665774563259
0.493759897762899
0.488689354987261
0.499177200274429
0.499670666080177
0.500749868991285
0.502047690004534
0.50936463493904
0.513160119802432
0.51637661402034
0.517183970163386
0.51807497892111
0.52882818344992
0.526560383196582
0.538692247366444
0.529924549573049
0.534106720161545
0.537588618201103
0.555513863222226
0.567320991834723
0.545420208452968
0.558052337553436
0.546717791368963
0.558981827991134
0.552424594164104
0.559309387133056
0.5628604001396
0.561226204418006
0.56513457152251
0.566661103096914
0.560782456279971
0.56511981087569
0.565224927968771
0.56532274355224
0.573608814733171
0.568584979987459
0.56162457984253
0.560424892310039
0.560598051845663
0.557558500742441
0.564385505045884
0.570761093384477
0.564069265991437
0.566442681628011
0.562670597295775
0.577156581424456
0.570367747387167
0.554531336205903
0.554186231338662
0.562541218533325
0.569674928773424
0.569772638135335
0.564377940459145
0.577008994583299
0.574272389038119
0.573159736015526
0.567552874399777
0.579146525535899
0.573231417005665
0.578125029062252
0.581546807605881
0.583896586710439
0.587391479817914
0.589382320095698
0.589267720671074
0.592178372943081
0.586339170038493
0.581162420360723
0.590670219958995
0.584198577592836
0.57363145596026
0.577780525544181
0.579039235504594
0.571093746465097
0.564360601537361
0.566627731263938
0.565038709745525
0.558568646815169
0.548876824718026
0.55948223249726
0.543302946745948
0.542865351783563
0.536332103946635
0.531503435487098
0.535095088578332
0.530869993316354
0.524047506538923
0.516354084737217
0.514837527552603
0.512519687215582
0.508904292234279
0.508764486762817
0.511604148820709
0.505284596027857
0.499497155630088
0.505482124719787
0.502831595767273
0.496556886509715
0.50294170447263
0.502747249262915
0.493541992194623
0.500551637609372
0.500860203739053
0.499809258343308
0.503142893876944
0.501504913295313
0.498624179337436
0.495611833615603
0.500518107521704
0.49373087519801
0.501979585511647
0.500825272813748
0.50052283029454
0.496991020467331
0.495511502596467
0.495855818363321
0.496958685289557
0.496648443208818
0.492274193518479
0.493016088288655
0.498795232830131
0.497375187231557
0.494417950106319
0.488002060369289
0.493167318739412
0.498729863510972
0.49461927554276
0.497579268002792
0.494462875437977
0.494600773951865
0.495747079608488
0.49469017753785
0.495219978723607
0.493879178267488
0.492772600249976
0.492924790932508
0.493478481970621
0.49655665437211
0.495381294235604
0.490792925976146
0.49385843409206
0.495303075569785
0.486103782672935
0.484031448769745
0.485616516046954
0.48231540427649
0.477007078053684
0.473959794067002
0.472127636017673
0.470674622055731
0.463088564317272
0.463340054695413
0.456926345413128
0.449727110786052
0.446492527236617
0.443713241217469
0.441030283145674
0.437822393322701
0.435765060088833
0.434573645518091
0.436754279518819
0.435089381430963
0.432539346185369
0.426719125828002
0.426096489919474
0.425968906029749
0.428425557762276
0.427183354398645
0.42724236439554
0.428950065670524
0.427845724769078
0.429793148830941
0.427803120131838
0.429552855662012
0.427472474804081
0.432921217348231
0.434968332754019
0.433458671239731
0.43680595750022
0.440599285067347
0.440815653898103
0.441439465604224
0.445062320005747
0.443843856770523
0.449454384473358
0.450552412330723
0.444008710762312
0.450197790219486
0.455612498431352
0.456384280120383
0.452788770762152
0.453533132316825
0.457281782191869
0.458627404725808
0.457168487853417
0.454348375405636
0.454864701125535
0.451906498425908
0.451586552851094
0.452418785034554
0.448958620921324
0.449952809869258
0.447013575143517
0.448911772229206
0.446537221139161
0.445892680319318
0.4443897943137
0.44018525465348
0.441718062568029
0.444466724012506
0.443644649862537
0.437522284563005
0.440989310735058
0.44057322769804
0.434101162319706
0.433472317841381
0.4313061807166
0.429140253726538
0.430914820299478
0.428724066673475
0.429217954148742
0.425256760098007
0.423691748852848
0.422589160971251
0.421620553604439
0.420996770911001
0.420159383373738
0.417903583605835
0.415612917372583
0.4121931435746
0.411798010340403
0.417662599240095
0.409980043376817
0.403629535230592
0.405585782655304
0.404898271863408
0.396329975190608
0.397022479969803
0.396293639897575
0.387267407547677
0.388722697396872
0.386444520988078
0.380739890941123
0.378579358135023
0.377213094726227
0.376084150251483
0.375328173324427
0.368331527215533
0.369387035679987
0.369164705777481
0.368146597604873
0.369381689930514
0.368326191653999
0.368187089170609
0.366326762269757
0.363858028690082
0.363336013971536
0.361407125099135
0.356681219921087
0.355402890684093
0.350071781124485
0.346456852187476
0.344062421182081
0.341419789648376
0.333918258626686
0.330978221508214
0.327861035159402
0.326903183237628
0.326348315336125
0.323517867476909
0.326331717136229
0.328578102577327
0.333649340225071
0.338525578342096
0.346676890518473
0.353483115770366
0.364395804884501
0.373283107164079
0.391458117337812
0.403003827005517
0.414342028593407
0.431908991586606
0.450350646094472
0.466511272343303
0.478575117454715
0.494517042621093
0.512418264797969
0.530280005204592
0.545687512694623
0.562956493397755
0.576313709259699
0.589157225508013
0.60436548226929
0.621844505138141
0.633120262919431
0.643702429679286
0.658018201521269
0.668183080108905
0.677545760768873
0.692389178766393
0.703485779323652
0.705203839815141
0.714527026452215
0.725105542038945
0.733358407854413
0.738454240329013
0.739776054186901
0.748584779430666
0.742516409637664
0.747445901211402
0.747881815383143
0.744990729290858
0.751180950549097
0.750226253688407
0.751592080583512
0.752904313174858
0.756544582819884
0.760943432986781
0.762221569228909
0.765601739687714
0.766727101947925
0.773899517812049
0.768342920336318
0.777693493606005
0.783662642154192
0.789189255109965
0.79364637245183
0.808418503787074
0.816523196921936
0.819591600903685
0.83254202273426
0.822908275454053
0.840606108146536
0.853805707769462
0.867083401337828
0.875922616454838
0.88749716725752
0.897774888718827
0.911968968974014
0.926241246633826
0.936206936713234
0.937855086403376
0.945798430301446
0.964389187676212
0.959602633847234
0.965042439771389
0.947698019727817
0.959475518861587
0.960110544136481
0.962286313422724
0.969336677908011
0.955944650894367
0.951425072250434
0.951385150486019
0.955436721234291
0.952779024942752
0.956134668203855
0.972754880418885
0.977217466419668
0.992079019102107
1.01388788302022
1.02151868701435
1.02682518765858
1.0540887467681
1.07357209921636
1.0780426293405
1.0954908721225
1.10944816568115
1.12458941595571
1.13518868568779
1.16470756128631
1.17086595881691
1.19924353499878
1.19277545209119
1.22779713597936
1.22778184822222
1.252103887466
1.28548518671508
1.28543351009322
1.35668107016062
1.34329714850665
1.37741897643719
1.38926074313427
1.42339406576741
1.42410401199314
1.4216291139157
1.4815398664189
1.51394343382696
1.55828462705023
1.55519655067241
1.56179540943642
1.63591687233606
1.60178243036526
1.65126607699976
1.64529948529398
1.60709875223352
1.59637541664129
1.63648342614082
1.63841227682666
1.66511443839184
1.57323722153899
1.63874148949886
1.57582902513752
1.5905793281979
1.60079900467959
1.59785597162201
1.6854122492601
1.62648724772847
1.62693531805939
1.57829107784523
1.64267686541424
1.65490732124525
1.66068600742863
1.66471438398917
1.60926584643207
1.64161273196935
1.70764855722261
1.70125694120712
1.64419694622207
1.66487067440907
1.74581609072516
1.73917619403896
1.74929284643508
1.82628037039802
1.75599651044233
1.87451755134947
1.87932939825422
1.8069241860194
1.78776125269976
1.90458463196625
1.84567991071142
1.89367374547471
1.88736200489749
1.78670478402076
1.78115326239601
1.98723205203342
1.88989233620332
2.01364019493055
1.82299652732281
1.98405104425652
1.80512830653296
1.84532109643036
1.85588526140088
1.97286904163827
1.86913678960415
1.84081228895583
1.79236640381532
1.76594001331232
1.79417773772096
1.8362257091806
1.74719302328108
1.87145400188161
1.70696337962993
1.748094980711
1.70147130246684
1.64652336593018
1.52045526923142
1.50200675151121
1.49122749220182
1.42294597748311
1.38755570112735
1.31773001150738
1.28340422065935
1.22463750718337
1.18838264781033
1.18152665763606
1.16196914985978
1.14350138141417
1.10174077360022
1.11248293656803
1.0954029608863
1.08381826818628
1.09408608822131
1.07242624423278
1.05084079251312
1.05690052510526
1.04082038822712
1.03845133372506
1.02370941037373
1.00534371827537
0.99760023830005
0.971493906761916
0.950411185812624
0.925805134101814
0.922050809562577
0.899804431321678
0.866996320417667
0.84986310802361
0.828472624845263
0.794124031362375
0.753448084490706
0.724397706433382
0.710806426661238
0.688636443407557
0.648601286779024
0.619315568747128
0.594378771510291
0.562140550854776
0.546027400849035
0.517539939687499
0.491742434252775
0.479701269631611
0.460706113318973
0.437567278524188
0.436574637669198
0.414944247665822
0.401215586267236
0.39140259641445
0.376687095994913
0.375807698584476
0.36261114113092
0.36214805944027
0.350903535734124
0.352042085177408
0.350787617359462
0.349480148240698
0.34627257409391
0.349737554094035
0.346702154665437
0.352080428344509
0.34565771066001
0.351957907463158
0.345116874899244
0.355638800784471
0.352207520547137
0.348458031158101
0.35058817546936
0.358262729854892
0.351812988082982
0.355564995131878
0.356892010443892
0.346048430666072
0.342829185811025
0.339287901484971
0.337676869357524
0.333089215710776
0.335842313508683
0.328860835884734
0.329345543867954
0.325076065437638
0.327752073284009
0.328349673218189
0.325954205364641
0.328842459637444
0.332959865949359
0.330651481799213
0.333617173282778
0.337552642189287
0.338653462964737
0.342051281375704
0.351806304654263
0.354403038650906
0.354041351220808
0.351822296719975
0.355973764305676
0.35492910216008
0.359610925417729
0.369915158604367
0.363010432736974
0.36782329506667
0.368649551635758
0.368682172758181
0.368135097981767
0.367027265252341
0.370810974251946
0.373478848591007
0.380840113628766
0.374637059136424
0.382917759092804
0.386820991466921
0.388577521725462
0.391305864002909
0.398434610025324
0.410364879452521
0.419975864489456
0.431442279940573
0.435133257493255
0.452622843523726
0.461685772524657
0.484494165211614
0.482407893976494
0.49456475807078
0.49009673631594
0.497404580351903
0.497886366082076
0.504129409044526
0.490664340909043
0.484267374414462
0.474488679931974
0.47432070135007
0.465550003709839
0.454906118437962
0.454294218634543
0.442601107488781
0.436407596614857
0.441938147631171
0.430859346264768
0.436197567094265
0.431721003178047
0.448461966495897
0.432080796747351
0.443800296725798
0.440931535841901
0.444406269292588
0.429018157287513
0.434884555326794
0.422887099555591
0.422334809900596
0.414075138837921
0.416902376553971
0.406099081203826
0.411913693062345
0.406335110660732
0.401252914009098
0.391918761083656
0.385141250801176
0.381994220269684
0.388538584932603
0.37201354326486
0.381168621471101
0.367323254684941
0.380399154932925
0.373991515051584
0.360372414827376
0.37030745256433
0.361145766013245
0.360406456041349
0.378551215402976
0.365669852807243
0.353294027311651
0.360095665535833
0.358875375921701
0.341844076766766
0.349369660416941
0.336130823675769
0.356599579313197
0.334844340561471
0.35662937737815
0.331164442422547
0.359592247088147
0.325272310868113
0.334038353610355
0.339238001138661
0.318325973596599
0.334289335902265
0.340511298234484
0.32607238329584
0.327726796192889
0.31220976777913
0.31140181866585
0.320318424682466
0.313772496740559
0.313031879736119
0.33660476221113
0.31993553923723
0.314116062982221
0.331342199695735
0.315431622862465
0.33146304577174
0.323561053306487
0.326175101309996
0.316175932232027
0.316113424903489
0.335162860340151
0.338208660202705
0.332789344197541
0.326560748553199
0.339714237070115
0.330702416608443
0.34606178851371
0.340238414745855
0.340461537636532
0.349869156510307
0.357575229517149
0.350016066829949
0.354248407041048
0.371387590196687
0.359064874299358
0.357720178218569
0.387355266471104
0.381276086802236
0.393262337209326
0.373283080209409
0.396570002939679
0.411379905799931
0.416751975204425
0.435281962297846
0.450373147901357
0.446362567174781
0.481738369594252
0.48073429018671
0.474826767408678
0.495782941840229
0.525124228485055
0.523891229867895
0.554695694086145
0.569756702245784
0.570815983416561
0.576419862669865
0.617033309923371
0.608466208951921
0.60532267324425
0.561365176845843
0.56794415714603
0.585252148214507
0.609351829011061
0.553818694839527
0.621424673806028
0.596429092034434
0.593249443641048
0.56291170516691
0.577363328272825
0.572700022699106
0.578782505704297
0.561509580319045
0.584438755513848
0.541496980613549
0.546019001465554
0.54466209871666
0.540909575438214
0.549161699532258
0.535220389771137
0.535779050388248
0.535669649160343
0.502688190748642
0.55166815861648
0.493316702652826
0.544921947361984
0.528577376321388
0.538534761553017
0.478674054944305
0.493912973239134
0.474108982866991
0.528228443881373
0.513478345449499
0.491624726470535
0.493104221613833
0.496052198085253
0.485851163416663
0.481915402751647
0.481925922193728
0.474197309817705
0.515725439117564
0.527247011103962
0.469720664560319
0.503402466291989
0.511694414808484
0.504629196083698
0.479801371166917
0.535890959745083
0.530561987311148
0.525993113955834
0.554598988381067
0.551172579735307
0.47800063177485
0.56241677716415
0.519698727720562
0.539171895482198
0.520861048032408
0.530360695589513
0.485845680648767
0.553132377107465
0.552670291814494
0.534343825220426
0.540586149512868
0.506383940477715
0.465760195020187
0.61542904912816
0.564715494514388
0.598333840842294
0.60587429918079
0.618475207558308
0.607997664117224
0.626646791921051
0.608703289459539
0.61296211367593
0.616613433753256
0.67225092369795
0.606211598009762
0.686641545309608
0.64293161737398
0.697696074222016
0.698697196787132
0.66910008953356
0.733606667090789
0.811087369517477
0.660064296986939
0.742851225176393
0.713265000125636
0.775691205208673
0.672132946364671
0.72356397220884
0.700536458438645
0.688304023155434
0.696164206040303
0.698774909869515
0.601941926773738
0.739114319774317
0.631209081639421
0.668403131026479
0.67964340011994
0.719749711692515
0.636196677901283
0.757519041546635
0.548586563241864
0.723119311795755
0.811895698054256
0.777026266637701
0.574667714671456
0.76673584700576
0.740508545314108
0.974202968750943
0.471342566354253
0.695329937621992
0.672253866299903
0.605458324260567
0.74822769330766
0.688571861701083
0.535077828840785
0.752427837947134
0.734181361934835
0.86146634091318
0.607981578029534
0.813704531775033
0.828457550410912
5
0.715331039234496
0.660691223245396
0.693375115108358
0.932272433340041
0.818575539567034
0.857612643101182
0.476613795054177
0.922222833988133
0.550947885707422
5
1.38085528097711
0.731319418230856
0.460799786552096
0.589246816774714
0.438916036934178
0.468945223837918
0.703348520701171
0.659013931211629
0.855699216609483
