3596
4000.36533379555
650.420452594757
1
2
2
0.0447169503713512
0.0453817044172536
0.044531933685706
0.044893691549619
0.0301941734753529
0.0475893129710172
0.0492277776772124
0.054942286325763
0.0390914415525058
0.0566762005623324
0.0399051208505883
0.0440610408472089
0.0473741686244829
0.0440430413229326
0.0334366149673309
0.0432606651990079
0.0331427654469628
0.0427428379484757
0.0445705818906183
0.0433403631013496
0.0423272244404467
0.0485989912805842
0.0403844120299834
0.0444158676416247
0.039653145405522
0.0415853715597888
0.0436191487398684
0.0509160438677748
0.0364875187632711
0.0386415870289692
0.0423571070183567
0.0447539187276063
0.0459489503302189
0.0517354195257435
0.0457898504185383
0.0482834167278872
0.0417748465924965
0.0427752914281391
0.0331335941502991
0.0446313414233103
0.0350555419174048
0.04045128653171
0.0337465087453546
0.0535294876809427
0.0458973101384429
0.0412614890201842
0.0484765872906759
0.0430312184812946
0.0371978462083328
0.047187977427906
0.0364776932588588
0.0399014362884837
0.0313999869277768
0.0534398929094401
0.0382397441289248
0.0318751705570673
0.0408404132516865
0.0363947277716708
0.038362426952487
0.058817744295402
0.0445890183812889
0.0449727480184308
0.0351877792021506
0.0417224426987072
0.0439266172217507
0.0440239627013377
0.0325411071912783
0.0388838420407015
0.037770777033693
0.0403617558777353
0.0370356982214042
0.0391924235591569
0.034767454318503
0.0380762038163441
0.0464551697034681
0.0399331945320613
0.0316741056737679
0.0547084512518025
0.0383554867813955
0.0412350524568815
0.0463975218662975
0.0350784424916275
0.0388175804177257
0.0389017941016112
0.0438888761475707
0.0351319474855678
0.0366282939471627
0.0369059699481059
0.0378944988742263
0.0379950440700005
0.0404634230049995
0.0361420041911837
0.0405004951209939
0.0348852344376975
0.0389777084739269
0.0358246990821483
0.0481619677472968
0.0344914601774574
0.0485379115269362
0.0233506684743242
0.0476418206013062
0.0527452637027612
0.0255891618316424
0.046770663394479
0.0187658325745889
0.0528173147359741
0.0272952125482321
0.0358344080028805
0.0411327564924442
0.0342193561835995
0.0367365313589664
0.0269027879527163
0.043910990201808
0.0321064573629824
0.0422516390540372
0.0494135840137883
0.0313274009908564
0.0272953710518946
0.0373014887333725
0.030508197860511
0.0410054135463204
0.0184024124416314
0.0417491847933025
0.0416929999911546
0.0408810267002297
0.0396371753745687
0.026993359549012
0.0130417815839216
0.0304393580172411
0.033770316409234
0.030493350640055
0.0336587422332599
0.018663284296011
0.0483173114737713
0.0309781813474817
0.0351858203027593
0.0212692352723382
0.0362047270354333
0.0243023372680947
0.0374811991116271
0.0390023672960777
0.0313571123519155
0.0261554884980546
0.0343761933859822
0.0295801979358538
0.0318181377948165
0.0430693732581062
0.0315805483507123
0.0300831836841802
0.031587952600716
0.0266479592948874
0.0380880813414908
0.0344806845992885
0.0345656700794787
0.0490306390281562
0.0213424535315497
0.0218147061388271
0.0551698279330464
0.00811274865717894
0.0459803379838153
0.0213671039717984
0.0377679794707711
0.028156628923563
0.0279742357617723
0.0263482967171056
0.0375925263738204
0.0407691427194335
0.0251476733313983
0.0345313099616773
0.0344435124811638
0.0245206402917905
0.0299398982241078
0.0354322376432819
0.0237008188024397
0.0436147544017632
0.0377302729517932
0.0350148236457095
0.032589855827594
0.0322314874497288
0.0372485762455632
0.0226172645770758
0.0402990151622418
0.0255729900421069
0.0314500285102275
0.0314979835838707
0.0365174557103776
0.0288972898999903
0.0323893349925303
0.0254988442603773
0.0353535083678871
0.0213753183153502
0.0458080962248843
0.0335744191107184
0.0439622506471716
0.0179172466106911
0.0423208749540895
0.00296963702141866
0.04142596110921
0.031187111568678
0.0303980139188716
0.0287267650516307
0.0294358774366319
0.0330727646676472
0.028636769007645
0.0348445445059715
0.0362503876368466
0.0198146605357436
0.0353393164483638
0.0260258064506621
0.0383077877292432
0.0174291274454211
0.0410392427111176
0.0303124881329251
0.0372434575083164
0.0441977300139346
0.0332819819034918
0.0342162699197614
0.0341889964868495
0.0228907100214087
0.0337079070408703
0.036829109980282
0.0286972697905084
0.0322777584610294
0.0328193326987195
0.0321731090465003
0.0364249706964078
0.0315895729160243
0.0261939661091242
0.0299632882363368
0.031916263849247
0.0369240503233063
0.034557252718828
0.0246680452670697
0.0277741856457587
0.0263125519556164
0.0380445388911995
0.0357608913052045
0.03925621748125
0.0320419488730108
0.0334906436607506
0.0240430457764144
0.0270677782559191
0.0250156512444549
0.0368686391764361
0.0283358655858382
0.0536752140525636
0.0169286682314832
0.0384588371713826
0.0347054265330033
0.0404819990359074
0.034456330046062
0.0355115364737702
0.0287100856404342
0.0310025115502813
0.0281727083441942
0.0326156013773433
0.048092405198197
0.0426231446188603
0.0288493165561354
0.036488108671581
0.0256428507123767
0.0351020444927736
0.0363710684520161
0.0276240754543479
0.0467864481104159
0.0333114002830522
0.0360305472885106
0.0386287261615891
0.0362508210928528
0.0420960431128402
0.0226491434758353
0.0315868855982401
0.0559182722995917
0.0106165336438714
0.034617200118551
0.0312597791038452
0.0418477669152076
0.0376715636625783
0.0460005898390573
0.0331336876563172
0.0335340826831447
0.037144322273589
0.0277267784436676
0.0548480289856942
0.017644115321949
0.0445068659690955
0.0385519782689938
0.0360726137051987
0.0357644970669231
0.0395629614394383
0.0371271010581229
0.0368795825039403
0.0344617712354592
0.033403902705731
0.0387170182009644
0.0349196819841384
0.0379429140900178
0.0336169995634729
0.0367478335943321
0.0380088432579366
0.0450593302922529
0.0348358208301757
0.0393940595705824
0.0421534480865826
0.0470341708107539
0.036434241978724
0.0408392236601816
0.04083938438413
0.0432712526922212
0.0386224599672652
0.0551623994032235
0.0364083155644967
0.0445388150122702
0.0409341739947843
0.0529077169068704
0.0447345563031494
0.0556634068132721
0.0436439776901248
0.0581571898763474
0.0433354818658721
0.0422973828950748
0.0460709716461181
0.0399912117210514
0.0485598616002577
0.0478257259925708
0.0487579245306147
0.0446978533078485
0.0540273705467062
0.0436742341097285
0.0519802491900551
0.0603432253420112
0.0421817229142252
0.0531699768197124
0.0653312455198981
0.0527105545064285
0.064637285449991
0.0608526493520709
0.0568210516758145
0.0509421854114389
0.0617576079177881
0.0580203200180679
0.0597573374695934
0.0623693741570995
0.0619743509981654
0.0614281611296583
0.0642610173845983
0.0680165530895076
0.071948956802615
0.0578864748051165
0.0824830317966961
0.0641861098808497
0.0539762885202013
0.087039127154321
0.0587428831185734
0.0963212255098046
0.0614420371023543
0.0858790978821099
0.0699429075976761
0.0837810262430945
0.0722519371735453
0.0837980750977564
0.0826197291706575
0.0919797917639092
0.0791403302179136
0.0913829736895198
0.0939816033592333
0.0881034971321097
0.0951774127944074
0.103354839704644
0.0925865533410358
0.100362450676267
0.0976760071781296
0.109144361487136
0.10782208935094
0.0980284702169013
0.128809342537617
0.0989769141955197
0.129883285177809
0.103462199667136
0.126004553727313
0.121255275059635
0.125269112858857
0.126371164984195
0.127004301802837
0.13283593215571
0.140567275916653
0.130394245009495
0.15143595746059
0.137455588600832
0.145596445681859
0.138954444026691
0.155328325316123
0.15601703416381
0.148461455119631
0.159141748306699
0.160617854581236
0.175963308760003
0.150598197953493
0.167504288173424
0.167677151875611
0.175781003203385
0.169967055222853
0.186358565914458
0.171775717436585
0.195211401056544
0.172641835879393
0.1923294332695
0.212320369421915
0.19432538435661
0.197330785059788
0.193704146096182
0.210641441244913
0.212198413194309
0.210413943837651
0.227308310847456
0.209638714278337
0.21732249703832
0.218283008331496
0.247813895048214
0.226952117952411
0.239778145630088
0.222687871369389
0.235983214153726
0.239847979799883
0.256506757126692
0.233310564677095
0.260924132913521
0.261061429341576
0.26092429421287
0.254301440689483
0.262519521645719
0.274082127939736
0.28002501202267
0.2818661469408
0.281307947820044
0.285955440152052
0.289802890864713
0.274424743646428
0.302744784123715
0.296714775530792
0.336894988106529
0.294815077694827
0.32776295131897
0.292354291941196
0.312912822024825
0.298837281328488
0.353289472895559
0.323748667252183
0.336600255041672
0.345252455646327
0.374078330460154
0.344696372866032
0.368714284304792
0.340972530448807
0.395795421568469
0.372945821299776
0.374007042465958
0.381738384492509
0.38282674230133
0.384754857599865
0.391405135770226
0.372021999373627
0.456532513145952
0.396704990824578
0.442249001939674
0.403996277016106
0.428755316623069
0.391844660025541
0.441748115823041
0.417438869799994
0.420745989095571
0.4350002583332
0.447466463176079
0.431868396215243
0.464251965843835
0.460062703249186
0.490644133961063
0.453991208765942
0.498554225077403
0.465971700787887
0.496144870914224
0.475067546943399
0.531728634519061
0.482511007890219
0.504590171665549
0.481021845124373
0.529159181830744
0.489915450627665
0.545961223729177
0.505311122396877
0.533457860451704
0.510663765531117
0.565417946976038
0.541754291888099
0.568694098728569
0.555841395432044
0.574378846508279
0.55697620140111
0.586899037286655
0.569059268313196
0.592547724833604
0.573374976850348
0.605248563574076
0.576381005989203
0.608655348576473
0.591755936946923
0.64426033045555
0.610293495449673
0.656542279792544
0.605645759647996
0.73725978094025
0.636419924522497
0.67047146614717
0.65899884296005
0.742904859914861
0.627536844869126
0.725576713758295
0.638861070060192
0.737139352549868
0.68337978833309
0.723395971279235
0.677884232432494
0.775734826363523
0.700158512111422
0.766538062266506
0.734516505870604
0.79041605893389
0.711174982188175
0.734169743249921
0.71341284343292
0.821092732061625
0.787604302930876
0.773220610225379
0.761378120085322
0.79821932245369
0.778483514545519
0.851917721437785
0.778892412221033
0.831274933882589
0.835716901758062
0.852105997110141
0.776673594462687
0.845618331437573
0.828467854702217
0.884080620118763
0.798399969750737
0.903598259270375
0.833707827800279
0.842379980877267
0.89273830596353
0.931234228470363
0.906964750119949
1.00191409992399
0.880370369954163
0.938460030379812
0.917272608888077
0.916659125460382
0.8140707781178
0.985788585140428
0.919541614437557
0.980548602934159
0.92896611878842
0.961720177281642
0.879304336025998
0.98287692595539
0.945018979405317
1.02410109796143
0.933998597010255
0.942622825518409
0.928627167159344
1.13545944851516
0.954858011308297
1.13445176946021
0.982638245375878
1.02434934548598
0.969257321256754
1.08162399540112
1.01042460501469
1.11001991548458
1.08773614918044
1.15949972917763
1.01685106437414
1.06212549242196
1.0835606987502
1.11948432379862
1.13353591931473
1.15491441449751
1.05212577781613
1.1387632456669
1.07789239667657
1.19374463500841
1.02109975034834
1.33484997256141
1.03817661063995
1.12024316532922
1.03963120675295
1.28538834252484
1.1601831067683
1.24399837958023
1.04862032799379
1.21912928084999
1.14168386977158
1.31920662262975
1.1693220411819
1.24722942670924
1.06734483226101
1.22302968657721
1.14612031114312
1.2003831412355
1.11897686683699
1.28704739282365
1.21291561136517
1.23383804583944
1.18769519157761
1.39647345277325
1.28502391245141
1.40183404975505
1.21594695676959
1.27454910184636
1.20778104648052
1.40670477633375
1.28456352034626
1.21803328084989
1.24520647594152
1.43286341404192
1.20010017311115
1.16881300200563
1.29271000008367
1.50753577628372
1.30045565450148
1.56938085078993
1.25081078377327
1.34681235299897
1.30347218153571
1.35336878122926
1.25905335791814
1.72916837725561
1.23047007014511
1.40088870168076
1.37284243198127
1.45406412736362
1.30448624010181
1.39049394936303
1.39732910795881
1.36457964103242
1.3555631043772
1.52348187181244
1.28607799505413
1.51137335940654
1.34214335695047
1.5156254196443
1.51098042058259
1.39715551256189
1.29204327566953
2.22945620182391
1.37943103294809
1.57225854724308
1.51628040974875
1.71024886240922
1.40218507584409
1.59657845188398
1.50008415188515
1.41890794833573
1.366463070613
1.63018168493132
1.45147117255515
1.56331560209193
1.36332568071652
1.64477868615261
1.40526761131552
1.63212904919875
1.61850054994804
1.68503671987661
1.51603598833468
1.54080552193389
1.49971460491778
1.57265219200332
1.32014636304096
1.46887708667659
1.51307055940708
1.65924003312401
1.57288106798791
2.02603011776696
1.42339285627084
1.4733696579106
1.55280679382212
1.4743387978708
1.44613728978942
1.5955671577515
1.59892303076343
1.52857523536087
1.43359461353396
1.58457627141865
1.40680153214786
1.5102280844474
1.49795433041407
1.54745444833965
1.51641875202518
1.6406688588659
1.54259402699528
1.83322306043712
1.51853817590968
1.82418219466962
1.43268586758453
1.41075967567372
1.47296368367837
1.52859408539036
1.50313198679206
1.70876049685952
1.48649513216927
1.51232724025681
1.8200519154969
1.66526121629817
1.6254996634642
1.74229235974899
1.46275999763869
1.70397432811865
1.47960490160863
1.62328473198878
1.80111307484757
1.65962100512308
1.56337447575018
1.70024362656088
1.6808799969025
1.91028499984807
1.69838546015855
1.56346311006677
1.4632152190483
1.66804188886506
1.55210566586413
1.50407460306438
1.52129355788492
1.63930588717523
1.51073053821977
1.69323577482067
1.66247150937601
1.95333138741044
1.56637863083349
1.64982683216183
1.61491426993745
1.43647285185268
1.64343145886885
1.71756890641429
1.52837730061425
1.58977672296467
1.60245273203156
1.63765957835655
1.62258515610822
1.74324125328605
1.46035050468949
1.64929797443364
1.47157445212679
1.69666166194799
1.9113146065764
1.7184303013467
1.55763041056976
1.52072277770098
1.5249825440198
1.62465160134932
1.75375346203125
1.92123190218341
1.66187286858348
1.59685664695724
1.56986836405721
1.61238532212481
1.5568926045981
1.55479390669507
1.47554366315088
1.7009871714755
1.50049771904963
1.45442464930539
1.42071157065193
1.52420146398087
1.73528230238639
1.674567792336
1.6015542348456
1.7947650936547
1.53251350151776
1.48545861168215
1.48293115167301
1.56858918432043
1.49506760697607
1.49929559713542
1.7180823655149
1.62111570850541
1.46489857840242
1.58669236060274
1.59973686112923
1.60120310806964
1.46628856303723
1.57503388066937
1.59155614463147
1.58524086289674
1.53852696008156
1.68388434197307
1.63193543876442
1.52076742843452
1.49141644680379
1.54396828724374
1.64640388788145
1.61173133565307
1.51530078071315
1.51321605303956
1.57462454250981
1.65992686234463
1.58196268043028
1.56170346590645
1.53763609649381
1.65343092419019
1.61986004545047
1.55040049661077
1.55600437192984
1.59307428281819
1.48762915525365
1.5330384809017
1.44281965078408
1.46750188631369
1.4493907403368
1.44532394575258
1.53279381177846
1.53406950991594
1.55416882235049
1.61656324848343
1.59541778511701
1.52030720419861
1.35407137660282
1.4545874505614
1.54337116204901
1.54377446308449
1.46028770486164
1.52743841155922
1.46278823167568
1.49791905712604
1.42512317210149
1.42632912882441
1.59394706209803
1.55287562988646
1.43058246327839
1.42118866118638
1.3661715678914
1.45047937704276
1.52155270529294
1.3775461700461
1.32418972185321
1.40110423649009
1.38154002906155
1.46960426693255
1.43777977392849
1.49274967315972
1.47681308628941
1.37451712039409
1.39238601009249
1.30588875250655
1.38293540860548
1.48077734897505
1.40867686256509
1.32012068909102
1.35415765674386
1.51215556151872
1.39365746327126
1.36334844887629
1.35308509986759
1.30916577259744
1.34260520776766
1.39744613633768
1.29850749165937
1.32495559847885
1.35252406560896
1.3051932275337
1.26739366214316
1.30804006297001
1.37533838109664
1.2725755164759
1.29945240673238
1.35911433315287
1.30754716801253
1.25930743676584
1.31732385381113
1.32090170962308
1.27183104739593
1.25189815013868
1.23146978786862
1.35269811596281
1.25887222838643
1.21582353103222
1.2767656423946
1.18582805013442
1.20237733339886
1.25018467419215
1.28585472940902
1.17869095613172
1.15154309094528
1.18756300100694
1.19837395300786
1.19962765083762
1.19558136353111
1.22033062726023
1.16469590316065
1.14298869718727
1.18594897415004
1.13568318517945
1.16298829843765
1.21654908191187
1.13787743576077
1.13455941066441
1.16316643092728
1.13993719455853
1.12316763607562
1.12426022544606
1.11374036000538
1.07876923013832
1.14353037425583
1.19283573565355
1.14795373922376
1.06106074337239
1.10177953911234
1.08205252397269
1.02091139464173
1.06629084343774
1.06547699203446
1.05853757322582
1.06298617286713
1.04191620293628
1.02435034972089
0.998950850452581
1.00649359794713
1.00826357635875
1.01613092094974
1.01835938081448
1.02172095944052
0.99521996183113
1.02276960082408
0.981882255300222
0.963068318352264
0.994891164183841
0.989450764673987
0.990337044394345
0.997378123422243
0.961418569562445
0.952352665054363
0.966413325987755
0.938949500124342
0.941369475551516
0.955481312121428
0.940602690150071
0.923643036964215
0.902474994988594
0.911249787723316
0.912384699740391
0.920343736579727
0.919052869658861
0.903998174270702
0.885860185223091
0.906242314510021
0.907613240631524
0.890352674237547
0.89407641769491
0.861729147253048
0.864686909261895
0.894823234704774
0.871896499904332
0.868392153878024
0.861422057839944
0.87043349190925
0.852548706903792
0.8512500603296
0.828140445806066
0.843151301643496
0.829579356293226
0.828072830574032
0.832984859988464
0.832568298884406
0.785437145633068
0.800300950052369
0.80692956638263
0.803772269890667
0.801556013695917
0.796514794520051
0.788881774862019
0.809039810585651
0.787399369008248
0.784527484364006
0.776615883630441
0.775188177896866
0.766158330827596
0.780750370247848
0.760580809610507
0.743976321785226
0.751015805065903
0.752020639197446
0.741210002448422
0.737982771029718
0.742786996466256
0.733442091572807
0.701859295254234
0.729580081371871
0.73180707150444
0.716345727360558
0.716482160556855
0.724145250683242
0.699156171547876
0.700124143160051
0.68552935500634
0.696505773452151
0.687193282753586
0.694895481296729
0.686480699505482
0.67245663216112
0.681516082019842
0.6737587508088
0.663545272450038
0.679909218372928
0.661290077224524
0.671666743855785
0.678151013320673
0.660653973489884
0.644341360759803
0.628978163636255
0.624167444657646
0.645244235678099
0.639257449387338
0.643957419125323
0.627154383846649
0.634897840139263
0.642343622747388
0.616441847200458
0.611906202023716
0.613187879867634
0.622926391018004
0.622085114462771
0.589508684787724
0.599247816093152
0.606542039094013
0.592684985810314
0.590620657104287
0.599064039346492
0.579106351682701
0.583343997544848
0.594124225084993
0.591404394627794
0.586593380864499
0.573208119662263
0.565657851588796
0.57542409651598
0.566046423265838
0.560835515073078
0.557737161767043
0.56642375844927
0.561381416534839
0.550151537743718
0.549040446802937
0.548738106748305
0.544738109480792
0.548601905016743
0.540351458429764
0.541107276405433
0.53033127653049
0.541979283398748
0.545770233734486
0.532148513164467
0.524559152200412
0.529735809876872
0.523375409229693
0.53001529990147
0.517316624076307
0.529117791088254
0.516505701050351
0.512556857440292
0.526207084312602
0.513565185153822
0.499784014379686
0.531452432742587
0.517680793318362
0.506203310369655
0.515146924703644
0.512783772945431
0.504007360772203
0.509544145982198
0.497854291559117
0.503379832805529
0.505279306627556
0.513333208172153
0.491827138101802
0.507636063645842
0.514093049874558
0.515497854135315
0.506435599663343
0.515352033076185
0.497305336724248
0.504714888123623
0.499633525192737
0.516803988362623
0.526522892986228
0.523319427440635
0.512942274873064
0.533402723441554
0.528436861707285
0.522304278862306
0.52497866318154
0.532266902853112
0.533650557621541
0.547103844625595
0.528095479064116
0.539714090300539
0.534971839906393
0.543675618901442
0.549570189188287
0.568060080024086
0.544241458094342
0.549195225442206
0.552383384230098
0.561187730026877
0.567516055691894
0.564753582562766
0.557746420567376
0.571424063935662
0.571544655610246
0.578718717746912
0.568914819156196
0.596058708621753
0.571017403079252
0.583850291006933
0.58317232365234
0.600350059792407
0.594755855724766
0.596626831506522
0.608758573566551
0.615474263510365
0.607112103350477
0.629180001032988
0.616075293219112
0.618940449054449
0.613999363843544
0.633370079741824
0.633248383592061
0.639066914879531
0.653233338935924
0.654032769431771
0.649426113214993
0.659032982423031
0.643358983068847
0.661901437274877
0.667748638855059
0.684944206098688
0.673139691452849
0.699970880050892
0.68540308949059
0.68788424510189
0.667613847501974
0.703297681846435
0.690568998085015
0.727305434761706
0.688638518088194
0.690836704478829
0.694712254782044
0.705489979811797
0.697123170495025
0.691041796348525
0.669249266617402
0.6920721440518
0.6851173517099
0.705977072293229
0.684828178469568
0.696067936562302
0.690054504848538
0.71854961678482
0.701027398923301
0.675685808563952
0.679355228124058
0.683634943466464
0.675758769210791
0.703734420614496
0.684150836887562
0.69309977308572
0.693555230058291
0.689475945491981
0.678651333118022
0.678544605592796
0.689320430745518
0.682137260967644
0.68790099514451
0.695329151332416
0.682909688671821
0.711005024352182
0.694039321409621
0.695997094378369
0.701736867996573
0.699862859718652
0.687172162722507
0.717755012141031
0.702393515298025
0.70509338544253
0.692232383861277
0.70694973494724
0.695240274590488
0.70490811585274
0.674025905135894
0.696896143739826
0.694183608627754
0.67596512226103
0.679643804469641
0.700116916403845
0.655257514902824
0.6827007293103
0.678740594592978
0.681448336494335
0.679667510105604
0.672692969887072
0.669656037140919
0.6921621106291
0.661173298669699
0.663399458904072
0.646637502450471
0.664359519760352
0.65275835070171
0.650553313395828
0.632614183031501
0.654315987286963
0.627946829661805
0.654343204155446
0.614475746090147
0.633212289207485
0.621706803989587
0.616434672193802
0.612030364623344
0.623347509616851
0.613651499560966
0.609374826404502
0.591135029577614
0.591438331328269
0.579079904031073
0.586103160836515
0.579066747780978
0.59216200882579
0.56618859850367
0.582417321514772
0.561082761567558
0.568354105664326
0.562473993699389
0.557462208239859
0.53626150333893
0.548088980798445
0.538750122357223
0.534927589101563
0.522236627089898
0.545494851995854
0.52605967831323
0.524117292567131
0.519756857701062
0.518072005211769
0.50697494903526
0.523343578145795
0.508303572466132
0.508820753001547
0.495994276861203
0.499531600924274
0.493643619347575
0.4983280137564
0.487955450688115
0.492876629870464
0.481600532334032
0.480351785674701
0.483700178256136
0.485694997510216
0.478699099754716
0.4793145449062
0.478650303699661
0.472039101538966
0.469752176813489
0.467607280666688
0.461650482845199
0.471503511573904
0.459705137354853
0.466536569766034
0.449938456882991
0.456152730515547
0.452215917158867
0.448558719980009
0.450626531474866
0.466394289662303
0.450984468894698
0.450038959594433
0.441544653451909
0.435396835080784
0.432597128061848
0.447713013739572
0.432224302800515
0.435187898655898
0.440772333257383
0.436167174842333
0.427329823411508
0.440975806160016
0.427775750879906
0.423590337676088
0.428053834135463
0.42963830285185
0.423199884132211
0.41693471419593
0.419725908904549
0.423486532174892
0.417569007882836
0.417275373403683
0.411216806287865
0.42271324465589
0.40964318438636
0.402983084966229
0.416812474701438
0.413734224068189
0.406297438773212
0.414364144322201
0.414939028904938
0.402694454156516
0.39513894476344
0.407014121288346
0.401125206457828
0.400741950062932
0.397304912974733
0.402296621175734
0.391841567212036
0.404452951645358
0.387882947430635
0.395435716915649
0.394676695638945
0.390599261797492
0.390141963314165
0.393154825864949
0.385613268362662
0.390836394764752
0.38180818789766
0.380879182429702
0.383567051523161
0.390552350545102
0.37948082663095
0.391878941239094
0.377929606335662
0.386984698514324
0.382198714184468
0.388392220052049
0.379372703495097
0.379155520018196
0.368120213831593
0.382602434300832
0.371341790373931
0.372176449761518
0.37561327445453
0.373066903018882
0.365835761525607
0.376392783392627
0.369322887009142
0.37949312269998
0.366555164310897
0.37572353556525
0.372195124042447
0.372808927294828
0.373078919320913
0.368403624181394
0.37216922130963
0.365199663795627
0.361957197025791
0.370700833422875
0.365164254804284
0.366480247468955
0.357976764160863
0.359231251273797
0.365975050493374
0.371993205084706
0.368220179593928
0.37149346585766
0.361153497573088
0.368207720795046
0.357961519306905
0.35821694658194
0.360459490491237
0.360012580582154
0.350045381085298
0.36144351110748
0.345712200021423
0.358315591873365
0.354728302125061
0.365220364574878
0.35405125087484
0.350202959993874
0.34382092209186
0.358069823730395
0.344784773881855
0.357089136677092
0.351081735520578
0.355553924913783
0.34431226973182
0.355071226177322
0.345072127758392
0.343639171474292
0.344460364501948
0.351787347675916
0.338782765249192
0.346660338251719
0.344448224081878
0.349382540810939
0.344871186576039
0.344879792351154
0.33574666550337
0.345783377560628
0.337168297317425
0.339684813830531
0.341745813248466
0.339044531163931
0.336690456546907
0.338997263426364
0.323879284264133
0.33606852771565
0.335215341499717
0.331391189908267
0.333966503254763
0.338223814163766
0.329686672042827
0.335854232008805
0.321471466475653
0.327596049980552
0.323012477096736
0.322335415280221
0.322587501372524
0.325427791600861
0.325453754073005
0.32337660894858
0.32166589477854
0.322772024009172
0.31464416175787
0.322509288446431
0.317085562321231
0.316289142071081
0.313946890094045
0.31394831465094
0.309468929481133
0.316400544964195
0.311433812468537
0.314714845237868
0.305207484896098
0.313279724369797
0.303720118271227
0.308478923525036
0.30123541991236
0.306809552093094
0.301278411118316
0.302734610523589
0.298639246862995
0.304870513142803
0.300188148045704
0.304893042068589
0.302148391788264
0.303759828255951
0.296180123343395
0.291952093522856
0.291899379637735
0.291985019794214
0.291375929939679
0.294481578000033
0.284201360724216
0.290781214943838
0.287769196885583
0.283475124717626
0.279271944656802
0.280401237458992
0.281880055734779
0.284754562936482
0.280693400222145
0.285425888704291
0.277806052050849
0.2814966307609
0.276998665422441
0.278550781053773
0.27502044729061
0.276040285215395
0.27224648609736
0.27638019010475
0.268523596209824
0.268292234387863
0.265478715291778
0.271331125146519
0.270124598302637
0.274016541651685
0.271221908125858
0.269927507215009
0.262638872600434
0.27085618385012
0.260495506449958
0.263820117141174
0.257350523012485
0.25958036837014
0.256512310633314
0.262897378842598
0.255743086537755
0.251990062108402
0.257776712564921
0.258819139361284
0.256400101243701
0.255875051646171
0.249095988763862
0.257160647196062
0.248471280718632
0.253215715825118
0.250770883968779
0.249033212623628
0.25022460489698
0.24797633784896
0.244214473576171
0.246626961150637
0.246227787149094
0.24051592697645
0.243391924251227
0.244253210541368
0.23917567795304
0.240785000639087
0.245556915606396
0.251089937136931
0.24007347138996
0.238528003651664
0.237307701054316
0.242757362542053
0.238981044985692
0.23908822168557
0.235271105425557
0.240220011799244
0.231454758285456
0.233198767602589
0.232241493424236
0.238310337008356
0.22940140348034
0.231964677385433
0.233978272396084
0.231898089586046
0.231101074607148
0.238037291976368
0.230642760372589
0.227267508098594
0.231458611826976
0.231629087090329
0.229816307245103
0.231047787300553
0.224619651267275
0.22986455909018
0.228274262694795
0.22919550899247
0.228326362094941
0.227643159753892
0.223434204077609
0.22837396722048
0.224490648037359
0.223890264709902
0.22283162009292
0.224244875816957
0.22122689767466
0.222254041790176
0.219277567450101
0.224284778582345
0.219142935375687
0.224163834819478
0.216936512595751
0.224336529551764
0.214269939385547
0.222009871624484
0.219688773381863
0.219855879797291
0.218207729696412
0.222784073364585
0.2145865528019
0.215982822147448
0.213482132975222
0.211293029027742
0.211894782611251
0.219045056028663
0.209113840688923
0.213855033578698
0.212063653075585
0.215112262926194
0.211172433977817
0.213352365066791
0.207220981947293
0.212747461906453
0.206674610626398
0.211246087709787
0.214387895946916
0.21407994894309
0.205878049203188
0.20818597518709
0.208082271341054
0.208103357424503
0.205700083151851
0.206508755919538
0.204015827167216
0.206179661465352
0.208054030550836
0.207541926629628
0.204923530224854
0.205112950271191
0.200525721216155
0.201921481264654
0.203325501549532
0.201590865172115
0.197407705445772
0.200017664967833
0.204694239405089
0.204743283622774
0.198564021095291
0.203912791937676
0.196353366411088
0.197157953145934
0.199888472117345
0.199440222313867
0.196907748313942
0.203141131675311
0.194325478593392
0.197013287536331
0.192782061576375
0.196255206940285
0.194280022455824
0.197124123012285
0.193504137193856
0.192582374516675
0.193352640914722
0.19326860291974
0.194325028492153
0.191889119773831
0.192708509335071
0.193237607572694
0.185925913507187
0.191353027635377
0.187854007577422
0.19370896487911
0.186937198455249
0.187489463802018
0.185755575209292
0.187747445563804
0.181944257018435
0.186518721115584
0.185475704758864
0.188429029805906
0.183217771854299
0.183524016150042
0.181380838311309
0.185543897332854
0.182253850902034
0.180823478376558
0.177839691759307
0.184190294845571
0.176133932570137
0.17957665971065
0.17757987383502
0.176809230921716
0.173104102011316
0.175287847014795
0.172026625367399
0.17512611552209
0.170522978776243
0.172598211058173
0.172057655241596
0.17465979372284
0.170754966279193
0.17180328208633
0.166611885726721
0.168881951651893
0.16533673159435
0.168550279271751
0.16722635691705
0.167558355366372
0.166357585613802
0.165387678323319
0.164411167169044
0.165173515443822
0.162912502362086
0.161464003458839
0.160773384564853
0.164215250415358
0.161312152039654
0.160588145981061
0.158795288165621
0.160109364154403
0.15599318537248
0.158120179562776
0.157369500071344
0.159486022959418
0.156553467401896
0.154184812713984
0.1557426554438
0.155750037357777
0.154041630718257
0.154086038620376
0.153662382964804
0.155226119652787
0.148286550491604
0.151375077169496
0.14877494580096
0.151053725351033
0.147809423961346
0.149422539233387
0.144848743106141
0.147865180842725
0.144640891183481
0.150139005621397
0.145028904470693
0.146331482689924
0.144534693831044
0.14518052760957
0.143800659621887
0.143315527003889
0.143811470362976
0.144684250518444
0.140924061831547
0.141484740630016
0.138082460131468
0.142022336151702
0.141247901951399
0.139985033411398
0.139649855953608
0.140764902162284
0.135779234820569
0.140386525042986
0.139993645531512
0.139486753367088
0.137416509983707
0.137740964210077
0.13378191375995
0.136338353343853
0.134963264403526
0.136398659849786
0.135405971305052
0.13664997925384
0.13090414986921
0.134920082091877
0.13241494640477
0.134271055676134
0.131788113874116
0.133752718814501
0.131488521737853
0.132507738154381
0.133135401597568
0.131604147724192
0.128114355752704
0.132199083570451
0.126040724401758
0.13057546532302
0.130714937940879
0.12969248327571
0.122913188753495
0.129775105456531
0.124311145808286
0.129872971269308
0.127641699048929
0.125461375357885
0.121057774827134
0.124690492416813
0.118295763320982
0.12636684636685
0.11746813124408
0.124237408558706
0.120807125609169
0.12216750138275
0.117505013890559
0.122099102874174
0.113967820320187
0.11668647477751
0.117969215939334
0.130322952566072
0.11547316590523
0.12162730100883
0.116084828608917
0.119097396194175
0.119782039692216
0.122742270658931
0.115566566964702
0.119333905098684
0.114400207335219
0.125313018908728
0.115519777168726
0.122051456115057
0.11422630355425
0.125191622643736
0.113589016576461
0.123803750711071
0.117570194090905
0.124286217250451
0.118479396864816
0.127517393998886
0.115487785797781
0.123694672299288
0.108832032616975
0.121566679162135
0.113357599644253
0.119217160537839
0.10852917738151
0.119603239463749
0.11090610959928
0.121583445709534
0.111409154248583
0.115617779736233
0.114329977231713
0.115959697333626
0.117092411446438
0.114226420951858
0.113310889883518
0.108475744239084
0.121522620137786
0.107779157448055
0.118480402782121
0.103420294325059
0.122225620355228
0.0982662719038556
0.12523866204247
0.0986323585000948
0.120054365926746
0.0997882602192789
0.117939569436085
0.105780904122339
0.119394111266576
0.111502291707762
0.113547871787665
0.111168210287363
0.109433114963006
0.114324798612297
0.109735490868931
0.113913784340612
0.110343029920222
0.107876114979805
0.114685575163704
0.11223490708694
0.113347750810298
0.110140317659135
0.112684543881625
0.106997870345125
0.107848611724167
0.108490927641882
0.110183003939659
0.109279490494174
0.107898976997882
0.108233586279865
0.107177409013491
0.107261998946809
0.110297009649529
0.112309117703047
0.110915939535045
0.107602346757366
0.110558128623425
0.108750694492457
0.108979607373823
0.111207844539579
0.111872713374527
0.10871609456016
0.110330140311399
0.110565056673496
0.111689547385673
0.110276141098436
0.110226900893514
0.109031950323779
0.110172814419227
0.1084954306571
0.110933707838058
0.109479424145709
0.108894314693293
0.109166062594926
0.110968327210609
0.106622880950464
0.109884795504853
0.112114618541749
0.111599637501696
0.11114288768987
0.111536461720641
0.108543594251116
0.110063072874873
0.109817802348349
0.111382004275733
0.111307908299123
0.109432901543075
0.108082250676242
0.110339137749526
0.10788384780421
0.109723331855894
0.111190899378831
0.108991366129324
0.109061953653172
0.108972405629279
0.11014454724752
0.109938928300557
0.108383780904947
0.108235254470889
0.109991115678135
0.108590748244631
0.110047174963784
0.112369244067251
0.110001030325722
0.108769087413094
0.105675985537297
0.108854747301156
0.110111442551433
0.110761231594141
0.109629770726403
0.105932653008897
0.110521922096419
0.109723738591218
0.108580206778648
0.11167514252896
0.109964375964318
0.110555567426008
0.112867129129633
0.111426366424028
0.112565753547083
0.111050339431973
0.11028141036491
0.108240787565706
0.110611750165666
0.112052789821747
0.110249985985406
0.11049851146821
0.110511616606691
0.109000774616734
0.110115285113232
0.110984248603827
0.113019735269816
0.111946305834537
0.111034602501974
0.116437531135859
0.113365478571819
0.110061574606308
0.110385150232276
0.112830114870399
0.112993436570424
0.11068800725294
0.113236117066495
0.113804574391994
0.111701207882532
0.110381238684597
0.112658878646308
0.114394513416923
0.112960962503918
0.115383897445091
0.113700646306735
0.112793441053189
0.115520274753829
0.115773711339498
0.114591907627454
0.1174664805118
0.116992198771836
0.116553783915386
0.116852507191791
0.11911370995639
0.116009154873937
0.115623016694932
0.116376312744161
0.116561903226875
0.114514484289446
0.11294370748587
0.115657171599363
0.115610709125424
0.115076861966195
0.118729237663229
0.115256253036614
0.114848118034982
0.116833796029064
0.118294481159932
0.115381486367958
0.11443237209426
0.117652935042614
0.118033218181192
0.118158963850701
0.116164226285724
0.11773485632291
0.117053867624934
0.11623579874109
0.1193858612058
0.118478719201339
0.121601961747294
0.120347404497082
0.117148792198309
0.118668338405287
0.118628530397124
0.121440763193561
0.121652964175666
0.121990698222018
0.1200280468153
0.118428966253375
0.119385577524515
0.121108388232848
0.120955719356923
0.120747301358223
0.121033378478753
0.11870448640656
0.121306591859555
0.120429356514222
0.119558910733032
0.119844396783985
0.117652271434028
0.119097500742872
0.122599084486138
0.121673848672635
0.122329086707357
0.11982561986175
0.120227496877903
0.117588918595094
0.117770736942419
0.120178357911502
0.115626873926651
0.116017043074574
0.12163007299526
0.118538694095546
0.117083273079888
0.11871176714157
0.11600200521658
0.118241059383142
0.114935374772926
0.116967075624477
0.116480285991408
0.117714040539525
0.117489123928022
0.115459814412822
0.113998487901462
0.11650510809514
0.11488058150744
0.115173404007005
0.1173052865298
0.118065489079074
0.116501582665684
0.114893587532428
0.113786328938236
0.11390249579948
0.113550785080957
0.112936587959925
0.109977208327144
0.115143501267657
0.115804170075738
0.115823321599222
0.113851900669707
0.11417703630807
0.113142043184954
0.113464968596844
0.111169137547094
0.111381243615717
0.1143766413654
0.111970909807398
0.109226265958366
0.113342911765936
0.112236241652731
0.113384030252355
0.109405249339644
0.111623324567621
0.112682316659738
0.11078043002456
0.112640585096599
0.113082382648176
0.110610243293393
0.110470201537932
0.113475146852158
0.110974016780424
0.110544107494501
0.110959733399196
0.112171372012797
0.107183567196319
0.11084599434724
0.11193560894721
0.109010326224361
0.109894888372358
0.110843397773331
0.109322614044446
0.110733309512583
0.107455976847234
0.111361632954238
0.108801879793569
0.11132831376497
0.10777598407413
0.108820942560128
0.109777298117887
0.108593871696359
0.109213945430982
0.111158126000764
0.112606063130889
0.111982615017562
0.108508494625194
0.110722741387463
0.111329184706253
0.109781009268515
0.112380779693077
0.11026714136918
0.10929624857846
0.109043955804489
0.111576726757674
0.108403679958513
0.107848417947205
0.109677529399429
0.107076895747118
0.108904251435477
0.109531606159343
0.105782379756562
0.105588189711369
0.109222121862687
0.107164298439744
0.107551025251344
0.107083004721483
0.1077266616469
0.105982450462635
0.105987387778499
0.104273619310439
0.104780630662909
0.103756902037181
0.106278787396537
0.106902521051613
0.105303492080743
0.104921843570334
0.106853139101947
0.105233472919332
0.103546801430029
0.104810203948802
0.101565605504477
0.102367406076121
0.104512759278587
0.104604788674507
0.102152819825379
0.101755268194942
0.100933407098776
0.101909946994698
0.100505351204137
0.102250734126291
0.1024243158419
0.101637821104969
0.101748014549488
0.0992930249054677
0.100656957379095
0.101124320036799
0.101839408858634
0.0985596574353647
0.0967881521554275
0.0976551325171216
0.0973255221120321
0.0973182892170124
0.0968235883722627
0.0969936985746548
0.0980131532572908
0.0977613120416159
0.0973449591179514
0.095769575857552
0.0959833201737348
0.094598512578917
0.0951351300299073
0.0963767865167275
0.0981978672529158
0.0922091555869827
0.0932100270679688
0.0939587018973509
0.0922347032109294
0.0925340070095444
0.0932743107219638
0.0901329282369654
0.0894933472612933
0.0919981765376254
0.0914965713502929
0.0930691308564095
0.0910144554263359
0.0902599138483085
0.0912853169909268
0.0861368353688544
0.0896264802403992
0.0886031150624522
0.089049387989842
0.0918288435558801
0.089306633513461
0.0898991608413715
0.0901377308731322
0.085851463138292
0.0917665115260738
0.0883730346116536
0.0895494831140315
0.0885866098835573
0.0899963035550915
0.085993061735987
0.0892043438354403
0.0866753251358917
0.088977196167084
0.089575990618454
0.0893637219472531
0.0859428065279631
0.0882095815793875
0.0879957681106402
0.090678085813664
0.0878489017590364
0.0897125502785243
0.0848625759680681
0.0869673314783563
0.0872678418221495
0.0889203827936189
0.0876311806748207
0.0853032563656992
0.0861512759661259
0.0888992018148405
0.0868289160691628
0.0829177988293263
0.086057190340958
0.084704502377939
0.08453428410347
0.0870001720469699
0.0839448473815694
0.0814552457020549
0.0836353387171637
0.0853878991675867
0.0868279671210803
0.0834820608751796
0.0815098463987634
0.0826273078295235
0.0853342233080979
0.0838322758556413
0.085809719684201
0.0822452591113049
0.0846631404393827
0.081981190148225
0.0825634214441308
0.0812730405785097
0.0837788571330996
0.0763965476660239
0.0833032026465111
0.0813889819975019
0.0827529078199971
0.0824410165450798
0.0825750091213131
0.083125179615786
0.0802940118856226
0.0793075706526216
0.0829256237851172
0.0795910541750227
0.0814581112155508
0.0821989738974125
0.0828000636780788
0.0804854724235247
0.0794691068826177
0.0842619753624941
0.0800564567850247
0.0837743492075341
0.0856287819501576
0.0786613918800277
0.0843425058327531
0.0818472314867158
0.0831320116393311
0.0807592055950829
0.0822111043239745
0.0813477883127412
0.0814874486969621
0.0817306288243342
0.0788327144640963
0.0851132704799317
0.080047865168102
0.0810150381454901
0.0818502130663302
0.0817492592767436
0.0760580445140082
0.0803101464981828
0.0805569317557583
0.0800158921541931
0.0826748794429976
0.0805647400555008
0.0811441155343535
0.083558500102627
0.0810520625701841
0.0809020578229602
0.0797132389202035
0.082814453955933
0.0796519395324574
0.0826427712848906
0.0800731717619368
0.0805127932344478
0.077686211120261
0.081524435846242
0.0773640723848063
0.0826063916828293
0.0792935791900859
0.0813373590935932
0.0793499296814724
0.0821033064913941
0.0829125370249906
0.0810606104863523
0.0797417308875119
0.0793588649415259
0.0814102883579427
0.0794986539716228
0.0824698817957859
0.0795368822090669
0.0815319421004308
0.0813891958328927
0.0797799170526822
0.0807064542872625
0.0812863934167215
0.0778916719583468
0.0827103431415437
0.0790621814260038
0.082197205364202
0.0835161419892472
0.0799469130537588
0.0835288488453191
0.0780964799030123
0.0806045195131892
0.0805104348432929
0.0846313843620529
0.0798956480745352
0.0809831801385228
0.0789620155726901
0.0800445126765969
0.079812210451297
0.0823902939665332
0.0792478888208757
0.0813050080219859
0.0794070301064146
0.0812977275674622
0.0792678942635262
0.0820271495643333
0.0796906713289014
0.0814463844207764
0.0812863717942239
0.0811288021662275
0.0816754111060961
0.0824096859794769
0.0871032648249453
0.0799717249654961
0.0835734497219228
0.0821675888416324
0.0855802306885327
0.0810062152997921
0.0828159362513683
0.0840374769484602
0.084583642739559
0.0813253150101018
0.0851571650549985
0.0815550183539535
0.0799168468670688
0.0805245010654821
0.0834661578820992
0.0828289220513365
0.0849587075025846
0.0853987416313649
0.0850475844069102
0.082794395344944
0.0910431526721262
0.0848766923236665
0.0864745571760786
0.0864982652428983
0.0841392753674183
0.0845737466949526
0.0858899712967622
0.0898376857376914
0.0872721419984961
0.087935399890266
0.0875485899119223
0.0882299904552166
0.0874506257106639
0.088544740457191
0.0873806198741867
0.0904031077897603
0.0894224381442645
0.0900123242706365
0.0889379387048728
0.0896073140001293
0.0891895725630302
0.089969625104915
0.0893757190628072
0.0881252420388534
0.0904679314694889
0.0892269310221056
0.0900729838453292
0.0881438428041294
0.0901655408927674
0.0895140735103739
0.0930600462554091
0.0932197825598132
0.0879402494165217
0.0945276949072964
0.0864780634448588
0.101564755899266
0.0892881756180423
0.0981374542461846
0.0943404137368778
0.0964320203490343
0.0927638752773504
0.0986529049052782
0.0934075908236158
0.0943031175917662
0.0969710463497704
0.0964073833585327
0.099868984875977
0.093278245070973
0.10416765125735
0.0962734281034678
0.102092153996202
0.0957959926857155
0.103866535061315
0.0972567841992888
0.104169996419675
0.0966174390119188
0.102615169126362
0.102163211607419
0.101848980983911
0.105752677297805
0.100179952810676
0.107026296985335
0.11038541720292
0.104945604393813
0.106303375453712
0.10305562011007
0.109106433949634
0.103396173266305
0.109701765721996
0.115081339884356
0.106430335074982
0.112138354674829
0.108761790204299
0.10753086141788
0.115360387800221
0.107828006401154
0.113698640934063
0.110180208007614
0.112069000952122
0.110773297760768
0.129786600264673
0.112340634957879
0.124026481470374
0.115805689916011
0.12413331534725
0.119351917199031
0.123450583512335
0.11914358815509
0.126529874279006
0.125427725689227
0.127542428671764
0.124105818766248
0.135572298611038
0.134953249731223
0.132654953964547
0.134593099853855
0.13591174089159
0.138555018777865
0.141566104839635
0.147471703753319
0.146514467630097
0.144653398126065
0.146724062543777
0.153566496482642
0.147852243989217
0.155914152106455
0.153069732934846
0.155098421130947
0.154227239953957
0.15864562494877
0.163314939048962
0.160930800779309
0.167503175553471
0.162231321239956
0.166915353675957
0.166085611291584
0.172424890330165
0.178436423487692
0.172123440194565
0.186385118977569
0.173852065485715
0.178901705129859
0.181556803623567
0.182678932343142
0.187590068528031
0.18595764590683
0.189983480246818
0.186504537653862
0.206024227513114
0.19725488842269
0.200178169620412
0.205968998387164
0.204627279411964
0.209316427302563
0.211263707339617
0.257563422251829
0.217465108395646
0.23800935912364
0.226619721776353
0.239205322014167
0.252135805591625
0.254406857970488
0.261730922678497
0.267301541137638
0.274309018801116
0.284741279313803
0.286807632457472
0.295051969280946
0.307471597690244
0.315059231445228
0.313929254485922
0.336543517816577
0.344906521221619
0.366495709700671
0.354441365308097
0.362060222901516
0.374545790674898
0.390042735972899
0.3943976556369
0.411353508917938
0.404669679805406
0.413825374435174
0.451210776354144
0.450478091197775
0.45210010302757
0.464258790615083
0.481340617711567
0.473504010621323
0.492376341435275
0.512501018057538
0.510331876585131
0.525401832996781
0.533939919821438
0.547049108691829
0.544926931079237
0.578923894610701
0.566350195426799
0.570102481550886
0.585679771870479
0.596582295385181
0.605879022490067
0.610672054098312
0.599444212266634
0.627022135637977
0.628748041434665
0.631261211240068
0.704852420647721
0.647524909451102
0.632999877174147
0.635842301849049
0.626343994584592
0.652804767307489
0.623108278757584
0.678171139954248
0.660985918249917
0.652291174441654
0.667607541072521
0.668044806471952
0.665565963675116
0.659351532078739
0.650934463042496
0.664151592417413
0.671184816161077
0.675199928691849
0.684238749493464
0.678567400785022
0.666721634530897
0.682444751578845
0.664134325054754
0.652796882539455
0.6716380648785
0.662477078471356
0.646090822670629
0.685261840703218
0.6534828116032
0.655111346078708
0.631128181685402
0.683063911318116
0.644713446410976
0.619901104809403
0.63848196664646
0.625198315167692
0.617773290065035
0.60125644024351
0.597234849231257
0.64737792218035
0.601787182338222
0.611544048022973
0.591871359123338
0.589720081596293
0.585182064392438
0.591612874701552
0.573369144474498
0.572445680559664
0.569719484195299
0.569874635797536
0.561781546670837
0.558266446775997
0.554636999206101
0.557294815144654
0.555703082229672
0.55367324706029
0.549429153759482
0.549649124390209
0.553961315789178
0.548802634483801
0.547995557462613
0.551444879832445
0.544529208795628
0.541734684341083
0.540850035241154
0.547582562406602
0.543169676505598
0.55273035908953
0.542397451073556
0.547429768506048
0.540567564094837
0.549176618329849
0.543364381756812
0.535557573117871
0.535340788219963
0.542280062061206
0.533511939815571
0.531230545255706
0.529873343938715
0.530315738811993
0.526089722193512
0.512284541695529
0.563763596088606
0.533809883345887
0.510519613150141
0.519167808172987
0.513300344389608
0.514500975481563
0.501426367519036
0.532126964170794
0.509767868272277
0.508247756633288
0.497576733185855
0.49061042842996
0.492917588390707
0.493386143966142
0.479318979948357
0.486021455810468
0.465348779137141
0.477927185503053
0.486061332353712
0.507522310459357
0.504642919943379
0.475190465131404
0.464593461884782
0.475773541869305
0.490922231570082
0.462406196267564
0.457462183480532
0.447110751038486
0.465706598010443
0.460059457882363
0.454418867636218
0.452795456002408
0.443765788235917
0.454860957818651
0.451384542230706
0.443562943175656
0.436010214931945
0.45755376301228
0.432133925323665
0.427899689547464
0.452099447590935
0.437902252213192
0.425703180944897
0.428283835883185
0.420731693389124
0.414608336149438
0.436351745187293
0.410953213915821
0.413246107853603
0.398077097572499
0.393554948577646
0.398829694917904
0.401019716126367
0.396810234675603
0.386503727809445
0.401820076488222
0.37828575556901
0.384528878678948
0.378378790035855
0.390030195641746
0.382504886063992
0.383487748336306
0.361964961874445
0.367698029358994
0.38882432308266
0.373351237499172
0.374667975491989
0.364136136453455
0.35681490846873
0.369011738881033
0.351267633735166
0.354745753373826
0.345869561155319
0.34053558649189
0.352243817414265
0.356184716560968
0.358172892718504
0.343013613746429
0.337298412981974
0.345585500252486
0.340487740535137
0.343978787116383
0.334211758050316
0.346344627866009
0.346113883827767
0.33920408402464
0.363091501922393
0.347341010263524
0.347069392782079
0.347717806747182
0.350360822338918
0.351058772623668
0.354103334032626
0.374063502401699
0.363280326803001
0.365690133638338
0.382351645829355
0.377387074275384
0.380032459824472
0.379063141271122
0.394872580328625
0.399290198571699
0.404115379581447
0.411963126950071
0.417071988709594
0.423064598350283
0.433524589827758
0.435890512748486
0.459051375262755
0.446221574414943
0.474128087194414
0.469094982517893
0.48676428078482
0.495553175870303
0.498819713496249
0.514423455390041
0.510742360108714
0.523301635996735
0.53025372190154
0.533316118421315
0.563920646872879
0.548774902457531
0.552320806894593
0.564711510264112
0.568322938261433
0.562709116729415
0.578702695698528
0.571210704016001
0.596234402779517
0.613504643109388
0.599058900969469
0.604682331223347
0.599178275300813
0.616627447614511
0.617400342913272
0.622611444177378
0.624635055884424
0.615419356103817
0.637131272798982
0.631083128108002
0.631872144610874
0.647640199225374
0.643324563307157
0.642255901996854
0.643316404516904
0.651288584099937
0.654347318415173
0.655961552560154
0.667176380933955
0.651223453860905
0.695013843876436
0.682997849172745
0.675721482358344
0.691914802425328
0.688752625600139
0.701527907400148
0.698674058893437
0.711903127710329
0.731034039840301
0.721475205778968
0.715098930742458
0.723185165795655
0.735308144869705
0.731523327670309
0.73833515730188
0.743495449971891
0.751120759679775
0.740391186938094
0.753361724920134
0.793384171512934
0.761668434946346
0.778812066474061
0.770283304104885
0.774060438301561
0.773008974373073
0.778481800796255
0.780877420752187
0.785905029278123
0.786395365578205
0.79056248122233
0.785138943280292
0.78489678805078
0.788674095847421
0.779122094575507
0.788043212552086
0.790389880844144
0.787848619170264
0.796141051941069
0.784004288848652
0.775783753386456
0.796761368099552
0.796045862813164
0.786126513807786
0.790643052164797
0.779402342139364
0.798698667693713
0.803188970565287
0.790077442596847
0.795758077806002
0.786054976391865
0.790209589779991
0.794089338604881
0.780519658733816
0.800846610508973
0.804431684143821
0.814200924940221
0.800351586481175
0.807552763201383
0.809022063999192
0.816810534358274
0.817373247408788
0.839917461437061
0.836833907070628
0.837008649020563
0.839495601695148
0.839447285492353
0.845546706553142
0.832661230656438
0.842320582181749
0.831172895136681
0.835687689676318
0.83415342665358
0.817259226557566
0.82961073289014
0.825429614774466
0.811622547779569
0.807313723552941
0.806033990561981
0.793372080341695
0.809833251342363
0.792608046772744
0.787393443680036
0.787265865341896
0.771092584115277
0.767836774979136
0.771050800576273
0.757604903954928
0.752529071270486
0.763094862965566
0.752715126009413
0.743424551046626
0.740745277569116
0.744508050984795
0.745649934068075
0.730788671039837
0.730891643726067
0.735197910399115
0.730224030337196
0.730920774653984
0.729500009812014
0.726781474296804
0.722618896686448
0.730581385885643
0.743232353186543
0.739003835437885
0.739705146385977
0.730451198122805
0.726520509622573
0.735756305307565
0.724701840135022
0.72652656444505
0.721425057902541
0.726479564518177
0.726794100419383
0.727048789630334
0.730330733665662
0.727107283120868
0.723394178756481
0.720271490310396
0.720898127711132
0.717613792941032
0.71516222000354
0.722857684417269
0.719658969333441
0.718855847975919
0.728119339544564
0.725101589038289
0.719936145407884
0.714398116300417
0.714893073377777
0.72030221719741
0.723210062982379
0.726710959441039
0.725971752380934
0.719194275157291
0.71974871936229
0.723506448482506
0.715564769427198
0.714471777166858
0.72824256447056
0.721280818550556
0.718205645666088
0.723855673310406
0.714025590219985
0.711534864060909
0.709361311655242
0.704590760052586
0.69892939945199
0.697770764206151
0.686614081478426
0.676509271145273
0.678416060478403
0.665438711494239
0.666437301746027
0.662588389505375
0.651191186125746
0.652337696584068
0.648094567102116
0.644559039337442
0.640645392934736
0.640616111580458
0.642384393905037
0.642247735192411
0.630917518621615
0.632015332990013
0.632694220566207
0.631035525505768
0.632091429441994
0.62712390476384
0.63511159270896
0.634175558679502
0.626860299758931
0.627617536130877
0.629217742081979
0.634429820046018
0.6313385045723
0.632376674955833
0.638288535553156
0.636282363164037
0.649807156393957
0.650900284423864
0.650837125575987
0.654835448862587
0.657763570533748
0.660672897691621
0.663531667217784
0.655837939400583
0.664467518538183
0.66507679241162
0.660339774138894
0.668469330116933
0.670072631810192
0.668415382247402
0.662388629559467
0.670767211240213
0.665300470155035
0.667534167278073
0.670388298261012
0.665673461836797
0.663210119242506
0.658724877021667
0.659150766263611
0.659762614827218
0.660783229672328
0.656940950413564
0.650532995294798
0.651102829117988
0.649001669099069
0.651653468722371
0.646938579005211
0.641983806425179
0.646973184423964
0.642495726433924
0.640613955708198
0.641849300791109
0.637259997566907
0.637789915665658
0.630761516618856
0.630733423654433
0.629879574125118
0.623478451265839
0.622964597810743
0.619946318092479
0.624598001647378
0.62328959881053
0.622527964545968
0.618359108597592
0.616419075619967
0.611009862315464
0.606591124375187
0.609023969327034
0.61302093543455
0.604234623687284
0.60347248218239
0.603096752248476
0.597010577189327
0.59812455753818
0.590055952199883
0.585681594124775
0.579652597312497
0.573915855485885
0.570661673516898
0.567168309526162
0.567157996572524
0.562853222607753
0.552324356867904
0.553188895582915
0.551123994600319
0.547605341557033
0.547210509051858
0.549657000463516
0.548589637414574
0.546213424588072
0.548059834004055
0.542862028081629
0.541946669802584
0.538188848665926
0.531219575880368
0.527261297109621
0.525269118115192
0.520171252292054
0.511875738417433
0.508708359687838
0.504004822072859
0.49632494181761
0.486153123213253
0.482694671152462
0.481426299563347
0.478918394222427
0.476770330400843
0.47516073211994
0.477585735405464
0.481104367881925
0.488442465040226
0.499026649309038
0.503788915198897
0.518948535392597
0.532710962410226
0.544615879661138
0.56676293245251
0.581225505172766
0.605675745869735
0.623824009480961
0.649246425505565
0.668051950866536
0.685072640795671
0.708321356463493
0.726407904090861
0.74933482630423
0.772250995572989
0.786004080415229
0.812263909111833
0.829841309319913
0.845525495473106
0.857819055972005
0.879018393056763
0.904684717394426
0.921102604823193
0.9336464663823
0.937984463290677
0.947853802908931
0.973725575759233
0.989928609317622
0.988606940824034
0.99435775707833
0.998661897221227
1.02005893221364
1.017911532449
1.00892468534401
1.02920421816078
1.02430670540135
1.0329288999474
1.02899779909856
1.02381963416236
1.04097511243865
1.02844639638603
1.03610948285252
1.05319228738292
1.0423392089725
1.03733221638582
1.04265041484781
1.066342815917
1.04735471622815
1.06153128823108
1.08239571008644
1.10521485602158
1.09126595802581
1.09038699573348
1.08875080734657
1.12022945771821
1.11220177917589
1.13432761079921
1.14862624105829
1.14322469064668
1.17003199257565
1.17119984236641
1.20076103598429
1.21124082510618
1.23833930826222
1.25343737297591
1.26913125428351
1.27785478333186
1.28207884429374
1.29499928466787
1.28137407574826
1.28817930263678
1.30845058303867
1.31237538573194
1.32734868990447
1.29910551182549
1.2771645132742
1.30415137376416
1.26293153669675
1.27370498020025
1.28436969944182
1.2965389207175
1.26770938013907
1.29004549080483
1.29518786302902
1.33265715928107
1.31076413411779
1.34453293997244
1.37127952537204
1.36576916633178
1.36066712169611
1.40463264694098
1.4263381667619
1.44885514907051
1.48257308586404
1.51716519754249
1.49278590739781
1.51049198888279
1.5555263801388
1.64399156474901
1.5969530244832
1.58255324287428
1.61360377179306
1.70184074076262
1.71461383457736
1.68007880039488
1.73434881092607
1.78175223703987
1.76582801854464
1.92193553274579
1.68220344794828
1.82052429449871
1.91500785874858
1.93161138180931
1.89741143387327
1.97052649744654
1.98205569656855
1.98539829579738
1.9776930410737
2.1524378536358
1.99345892370463
2.03358124388877
1.93332825526231
1.97089616026235
2.08919659788642
2.18114228312947
2.1146533649902
2.09400239121438
2.0436262560335
1.91117614331311
2.09666087535171
2.13493350314993
2.00176948450964
2.14202499424185
2.12447254838008
2.27078865618954
2.17755554847273
2.15117459540799
2.07879872221818
2.51591862748298
2.29345161893485
2.08402076170375
2.27814785516151
2.1179183738492
2.19480774757415
2.2371157067529
2.09701262905927
2.72704247882425
2.00158403593062
2.26849938235204
2.40249612123593
2.69364516043506
2.3533206034127
2.76230757434553
2.62245310960645
2.25916993851678
2.13946934088067
2.19380841673845
2.71398886521561
2.87244634884603
2.9174045362997
2.62009995136205
2.35217618937188
2.32679140844975
2.23687443688346
3.15388889461791
2.40513007999626
2.41293761653344
2.33304829614338
5
2.57480917452106
3.07809709707543
2.28993722302917
3.88659112206296
2.36845998344832
2.87817284636384
2.5558102735387
5
2.15603723557657
2.30963986246823
2.97041892983224
2.82551598616975
1.89255214201147
2.23918150577778
2.12089465911164
2.28969022903747
2.0677372823975
2.50147732393241
2.14664615603332
2.25914260350664
1.99978951254726
1.96747092761098
1.77322577501555
1.88397804650733
1.82442057339313
1.87604881554427
1.82445791340454
1.98113275248297
1.82128276166068
1.84370647292077
1.7297556196193
1.88232751882297
1.78660336149128
1.92036130291208
1.66739551384495
1.82625702699527
1.74654752295495
1.83021297264097
1.7372050952231
1.78737615721534
1.57662315291606
1.6312073554924
1.59518575161436
1.63171150940399
1.46391935585712
1.51311201493802
1.47425099428561
1.40825451379909
1.37236969844047
1.30831440475774
1.28192528085704
1.23409113395631
1.17176434386134
1.14684150719472
1.08148395861205
1.0469207167827
1.00938867089136
0.963461974989998
0.920156917894102
0.916996586715754
0.86246679423515
0.835047550089244
0.812234927412994
0.790462295809284
0.763133477858972
0.757474826449706
0.732474545586902
0.715557156281495
0.71698405385939
0.703687106996606
0.69218147792657
0.699754677499067
0.685285025791736
0.694375074454082
0.674383312291829
0.686603693267666
0.672022845128648
0.680631547897285
0.689330043111825
0.681400657705818
0.685245341062002
0.687207394172534
0.674436963948024
0.695203876705868
0.679648180627937
0.690913617064239
0.65864580713844
0.680000546095187
0.665577900553258
0.651881132490455
0.660036494899371
0.65187103403502
0.636938101226552
0.643600403018998
0.639154153117221
0.628333315889994
0.628365658504986
0.627694740157887
0.619494227825528
0.641981023813503
0.630647834674725
0.648965581480587
0.635631227657112
0.639164449683834
0.633181637548056
0.649628647161785
0.643291271288781
0.659745945388255
0.647955148642231
0.659045876107898
0.669942096517876
0.667729717103835
0.674474125528133
0.689646571217579
0.669056280007643
0.684570660895257
0.683593309238744
0.694661764267111
0.675843521418082
0.691022966498956
0.669598263755741
0.688901442257492
0.690384655616826
0.695072928774835
0.687903926349249
0.692169916039507
0.710749941121609
0.726455967688823
0.739817651002874
0.749898286099778
0.745723563046387
0.779293948539848
0.802336854862958
0.804008876360277
0.834388628956734
0.844855780338968
0.856237123958018
0.912773813672139
0.874281368986941
0.898746566181021
0.892277765481414
0.901478028892401
0.87478506849468
0.891595535270471
0.876508067503483
0.87372030696078
0.812193365618367
0.853908005345514
0.816892566521784
0.821314591356742
0.808217117898418
0.805722669422423
0.825944947867151
0.836171060339182
0.79672712083319
0.809937216224818
0.820283232736659
0.82327712763853
0.796494817550693
0.822984193646135
0.798185579551798
0.820456703717604
0.787858342598367
0.79378430742578
0.779873005113814
0.792350992687933
0.754251140046849
0.763490248811471
0.766363112779594
0.744805504391133
0.740030330118496
0.739626892611346
0.719285060347154
0.714741875895621
0.742141998632249
0.713044826972216
0.704799731598415
0.709512790245557
0.708827049095353
0.693543228991843
0.723049120901884
0.690621995058875
0.70185762264102
0.690512569519245
0.703437682565423
0.696422083450847
0.65623870995658
0.672506988239718
0.677634659694855
0.662043098668994
0.664920473046351
0.656813157101647
0.658975087375129
0.674684019214472
0.640140818194446
0.649020022855906
0.649251404159091
0.642220806143131
0.633631971898014
0.611594795027033
0.633495439683816
0.648629676203961
0.619779685579729
0.628999421165907
0.624663067585544
0.621621366689781
0.61959734599383
0.613570687033321
0.635120658597107
0.636486082568121
0.601265484716454
0.623464392800498
0.631160397693477
0.619012949923101
0.616220653219702
0.629166790386831
0.62139625855641
0.61233511758052
0.624411136440265
0.642288441310113
0.618598661338998
0.654916005127648
0.609597561958413
0.636637725452696
0.630225101420596
0.681644276942581
0.642808925304811
0.67188733680114
0.629778757856193
0.66786022108132
0.642535156640554
0.677167013220939
0.648991941313769
0.707705193716325
0.652288562658738
0.717556595062439
0.695696811743095
0.7125509426347
0.717021370870124
0.756900750241998
0.752029497446517
0.754466378427534
0.771508015807476
0.801486320213128
0.786938186750261
0.929471743023356
0.80701578610424
0.884654577493146
0.907628988497956
1.02538489338606
0.942219538483479
0.951827178052868
0.969256151351753
0.976828690698462
0.967515415606468
1.00186602974834
1.00079281143213
1.15249654111632
1.04026350817602
1.13428638070845
0.968601574279659
1.06177707111927
1.02702510582032
1.15680481319709
0.983861520157505
1.01281734411525
1.01871165583195
1.05768849610985
0.990857026341518
1.11866901061876
1.07189262882013
1.05770368623254
0.945976546426278
1.1309283365972
1.03738096381782
1.02847437043017
0.970607769691782
1.05929185910036
0.970422621902397
0.982946044305774
1.03760380126048
1.0340701727019
0.941632159458937
1.0501414974048
0.907983319025643
0.981589341588687
0.925938960225579
0.99872481141396
0.903989967617571
1.03885076799226
0.967585223203204
0.904196200271769
0.831918227352722
0.9795491516859
0.948175675753842
0.953402279875736
0.941813405936251
0.905988424312694
0.795091904523799
0.915677602805886
0.90912431637854
0.928277876392539
0.947423226530232
1.00330988499069
0.881302599316934
0.931319540777164
0.865554787194348
1.06124274198141
0.947651532860135
0.940034276313805
0.892619988196848
1.13198535941165
0.901630405956575
1.0217868376033
0.970924411609688
1.00526895116978
0.958232610220582
1.11021381721522
0.945993805188142
0.917865436688779
0.927737832083898
1.09588963700092
1.04663712254288
1.07378598136642
0.966285532854897
1.08431263032306
1.14984039115605
1.16419267144697
1.0636941754129
1.19471301824364
1.08093192447092
0.897564534664743
1.32952511604692
1.42624641028947
0.979895443405332
1.34648625746177
1.2391197962374
1.32387376013117
1.03230850023488
1.14673083439119
1.03507607050625
1.50872459551141
1.82515189834564
1.29804400428129
1.01811933668326
1.23105944175853
1.37535604686705
2.69425140275756
1.034318973461
1.03400064450512
1.0117260849148
1.72965325695397
1.1822854157722
1.57964466579963
1.39830238181546
1.34939349498644
1.2895655286496
1.58981057775218
1.12248335033668
5
1.10328431860137
1.91758693937787
1.19024236982265
5
1.15947070384911
1.09598486342598
0.985649146798641
1.5801100713511
1.29363403322398
1.18200187639662
1.07781899630106
5
1.34819623555681
1.61426280470251
1.27668939302911
1.76681816106647
0.967655250967418
1.48217649378047
1.49789941947373
1.86532151984472
0.876980686813721
5
0.759302309699596
1.65400347328346
0.890935883412259
5
0.923464181259449
5
0.739154402556066
5
0.817856815530391
5
0.828447315539436
5
0.746711640336881
5
0.973143219110813
1.28037462464516
1.17936812891835
5
5
