3596
4000.36533379555
650.420452594757
1
2
2
0.0350722014543796
0.0367840196115559
0.032616085217905
0.0390035082118011
0.0231697584529482
0.032080088063378
0.039856521610836
0.0388406279013167
0.0267024618632784
0.0462766662907724
0.027091959351117
0.0290241708493115
0.0372170322485102
0.036808767665552
0.0208759258690845
0.0376639252394606
0.0262997269965143
0.0350496690895536
0.0334169148857409
0.03263976881325
0.0356973828309037
0.0335456297424647
0.0280433492250848
0.0358422526750601
0.0318235834161722
0.0271283031465901
0.0338713161186107
0.0450245637899112
0.0292023049332077
0.0321678308800314
0.0332763467860603
0.0364827466226317
0.0336077862129481
0.0348760212855549
0.0350233784170543
0.0416645704484271
0.0301217599889199
0.038091312620866
0.0306045904257777
0.0401910808258838
0.0232569518741082
0.0323825478239411
0.0326081516499972
0.0438960713964734
0.0313727209730553
0.0364638681172975
0.037095193187615
0.0363948045726677
0.026889096720532
0.0390758694426794
0.0280593104659815
0.0324033073076826
0.0240983325815503
0.0453882242319007
0.0289676295017799
0.0247811598421901
0.0243235063304706
0.0231062009568815
0.024348571357585
0.0455521370516774
0.0301967635506935
0.0307390857832369
0.0249255223633308
0.0232416156510188
0.0302827666929311
0.0298027680253607
0.0275484572186609
0.0318437760524966
0.031849824897352
0.0246857066916039
0.0206279911338547
0.0217645188253971
0.02076779593404
0.024104020421569
0.0343792568643081
0.033976748451126
0.0217850880212795
0.037278315185545
0.0231476475244003
0.031521460793795
0.0371192089367233
0.028924911980322
0.0272153864458202
0.0355516897172242
0.0335361139317142
0.0327301476729146
0.0262298046015762
0.0311374068146276
0.0329196185209219
0.03198070449847
0.0295012485334935
0.0260369704426862
0.0274473331713922
0.024622779251242
0.0261561575166494
0.0243203966521144
0.0339989825964688
0.0203406796232659
0.0405937510578869
0.0142842945030847
0.0297330637368398
0.038879481965351
0.0170734452334099
0.0347688746012207
0.00592302710771746
0.03596738791325
0.0117780861413925
0.0348605014605602
0.0290609501843235
0.0191561229642303
0.0354835801716473
0.0222694001146742
0.0297217346817185
0.0235502510692525
0.0252899816191633
0.0329829575430442
0.0265721647608553
0.0233144609059386
0.0157547075247128
0.021829483895554
0.0254667598360135
-0.00106011646787768
0.0390443963707868
0.0335778236117453
0.0200617024429994
0.0272680366508827
0.0296891270415211
0.00891991514956046
0.0193060131995813
0.0309305210404231
0.023088685561789
0.0293076596449043
0.0144324509600513
0.025698752719672
0.0288111126017935
0.0276857924322493
0.00963479282314737
0.0252295171108733
0.0260024790246279
0.0309388127455259
0.027125231831023
0.0206382223100096
0.0183532800146262
0.0347343840789382
0.0185936934356821
0.0241636521872562
0.0213096169166309
0.0209642613001341
0.0253127182119354
0.0280934364047463
0.0195746387281828
0.0295489389235539
0.0297562489874108
0.0248530766309463
0.0267796201630272
-0.00580944154257059
0.0253031751556308
0.0385335489150725
0.0218689313495317
0.0420037603243723
0.00320286876722028
0.0227505400334257
0.0221029681255613
0.0227328823092885
0.0212392091491045
0.0282186922330876
0.0304920609435266
0.0178845491331058
0.0179124422300144
0.0229145041217556
0.0158418359152289
0.0160454629905448
0.0249932514992887
0.0232480043314513
0.0381949041009791
0.0264497271810361
0.0162304157891014
0.0270027283947384
0.0317895578510309
0.0263635542790273
0.0187869020036131
0.0388436630020812
0.00696348004358949
0.0212142145905911
0.0256970163860987
0.0225703279534181
0.0200866961445989
0.0209050185802678
0.0136304450837924
0.0252887683590587
0.0114665977443197
0.0448268260822407
0.0243014384360121
0.0308407673794406
0.00821535879363153
0.030352569566801
-0.00420183874505214
0.0355351085271668
0.0209739501535171
0.0247081753357278
0.024132981687675
0.0209949117351884
0.0295716572821955
0.0230842751678929
0.0250265887357441
0.0296769462713028
0.0247157822038086
0.0277134306466257
0.0128214267559661
0.0271988730682152
0.0115725767107279
0.034767244119976
0.01324609754046
0.0349804019617893
0.0254177745179203
0.0221153491358249
0.0273300958979086
0.0302958087949597
0.0203486266180936
0.0243419193813728
0.0261973960279536
0.0215542500322233
0.0180021761299331
0.0259801071633363
0.0288603276826381
0.0278056387335413
0.0236253071117828
0.0237607229864651
0.0224603698509935
0.0313830710267025
0.0241143213960644
0.0213205800987703
0.020264130250284
0.0194254234898712
0.0182476969244651
0.0250917454270755
0.031827029866905
0.0381661164970433
0.0206267251976676
0.0245911793669291
0.0180196217954919
0.0232511461507332
0.0190225125390511
0.0253595847217874
0.0166491418906574
0.0437919397087844
0.0120099948789578
0.0370706388391364
0.0259213909598115
0.0338363659677787
0.026086957520965
0.0301026409555584
0.0216249780727506
0.0275206124545313
0.0164285910721549
0.0288981522621464
0.0420924189981681
0.0280931505560539
0.027254376159648
0.0293128500071999
0.0203542103835242
0.0277424325262186
0.0289307856464284
0.0190156122626215
0.0336731185508784
0.0330750755544511
0.0289797412796092
0.0314307545867079
0.0292813464341102
0.0312034436772539
0.0233483492322067
0.0281304017108316
0.0469197832375458
0.0200117972025539
0.0316644948039471
0.0293504277011101
0.0276987985793616
0.0318879885393074
0.0375957998055635
0.0239197894118224
0.0330828925394534
0.0397859839528548
0.01976894979865
0.0355617975157231
0.00920284230226878
0.0447613903005891
0.0277295266219193
0.0332094050318006
0.0341287385114928
0.0372055631670825
0.0282135698165385
0.0252584310365759
0.0314252243984917
0.0327375217829678
0.0343974130982286
0.03139586555593
0.0298166414736457
0.0358292568412037
0.0293343941703278
0.0292066135378686
0.0386131580141574
0.0296617094341032
0.0263717045735166
0.027836101534823
0.0403466966854716
0.0315357245970839
0.0295300730794925
0.0392412144413668
0.0381876874745862
0.0241496522648348
0.0400585633228131
0.0237104253243976
0.0351310752587467
0.0324696023821566
0.0374019311762617
0.0314692609526317
0.0449733778748944
0.0342694214896665
0.0454500525171123
0.0351588237159373
0.0364346403491986
0.0367659410213349
0.0408403641154535
0.0388067352461654
0.0414800888440866
0.0410956284379654
0.0321946136006639
0.0429841932376326
0.0387440840235683
0.0388832875861767
0.0547637377137578
0.037358411044212
0.0457109058826145
0.0610689825898798
0.0549432963410154
0.0549005602062433
0.0429997404216761
0.0439506295590885
0.0404081217752712
0.0521989092974471
0.0487976834835719
0.0522006176990431
0.0493820750407807
0.055356472085281
0.0533467699610386
0.0431551024980682
0.0571179017460599
0.0820154566545175
0.0556334993679448
0.0653451547604097
0.0456606022067357
0.0509639491131057
0.0733597210143166
0.0532772482703537
0.0756032279558472
0.0593362488483855
0.0747537255860445
0.0538490068670274
0.0663106189988786
0.0570949809539991
0.0790284411990117
0.0643725499976832
0.0753321251081168
0.0718979519254374
0.0747927749840824
0.0769981146976534
0.0648246273154739
0.0887358316551228
0.0853688372763546
0.080955037683944
0.088124466142391
0.0865057730277683
0.093580221034328
0.0766372308504559
0.0903663535189221
0.11111479626676
0.0784281904359727
0.11785263444807
0.089220753468904
0.094007579581105
0.099903149790508
0.0994510904896919
0.100310596724162
0.108405131614397
0.106232314468413
0.109856812226054
0.110392136857594
0.120642508244286
0.111090502670888
0.111303303768094
0.113783857809085
0.126947161807309
0.127646449016698
0.122977854854103
0.125179693436916
0.127197349126941
0.145867527582597
0.134678396620893
0.127304191476582
0.129658238817737
0.142361739028949
0.13893611867525
0.158531329394901
0.139564932014103
0.157115696652895
0.149158542935115
0.158434344920503
0.156148857626867
0.171522710984879
0.167621461410789
0.161825236545908
0.165529569094425
0.163319788541707
0.161973852088128
0.166028422898453
0.18316108002833
0.170647597633539
0.175309417283837
0.210444050035756
0.178757359021397
0.199267663036075
0.183083532288317
0.195082807640403
0.193787071141858
0.209712414604558
0.202435059247274
0.202027290561257
0.211122784350588
0.217625877748579
0.213976415745306
0.220381172514361
0.228714010424657
0.220365332929947
0.220101259478176
0.215524078922511
0.23664621974736
0.220236409534994
0.221344217787664
0.254557343105277
0.237673536457441
0.268240382351995
0.225671667808956
0.267835226825958
0.234761420179608
0.264117981202139
0.26448497454169
0.267744760423415
0.264344803126257
0.291543607491693
0.290897080445921
0.30630519620577
0.273991519320932
0.301542055560589
0.287184436854197
0.302862082721535
0.292237575620955
0.316998630565478
0.30966038837971
0.31553955845257
0.292617920853859
0.325289778251648
0.307443020970661
0.343388936382752
0.310324535779098
0.366885290033481
0.336489398983071
0.359526320440297
0.332926757063984
0.35367937094513
0.320437916411593
0.363775629510251
0.358785675510206
0.362290741299921
0.37091955783806
0.384523621123592
0.383748223727328
0.403546618245304
0.399372680671846
0.398041096520572
0.391840825810828
0.382615570359884
0.373602123456785
0.415928237726554
0.399851504602541
0.420492476083552
0.405490442286643
0.415561388910449
0.440600768418325
0.44845719535962
0.431970050598073
0.474798974088578
0.440110767879318
0.443694441887596
0.448001773324259
0.475278027401434
0.447366493202944
0.480808900429034
0.471929056340281
0.494890222412086
0.470753020331028
0.477654743524143
0.488056840464182
0.510162613784861
0.464736066884411
0.531734648140002
0.455745345304545
0.557783592409919
0.508552482685278
0.531419403828323
0.494881819624819
0.525080020559572
0.532368283349197
0.545846373077769
0.536638505010456
0.6110002148942
0.551019398570856
0.567633473437649
0.540223577577751
0.573053978235
0.56191627951376
0.602638253150714
0.577019308655758
0.637516066925601
0.601413994756184
0.627348323149232
0.614645418700954
0.629237026341591
0.59207454093235
0.662524197947863
0.59442586509696
0.651753022425339
0.58943158036166
0.683414721098349
0.591753841878346
0.672218065646968
0.634541409751924
0.682788389866109
0.635953247374846
0.658338147828229
0.647317312460902
0.681694856891109
0.670461805136161
0.684341188152753
0.717722686536955
0.727151057737179
0.690452543239289
0.702284754323447
0.666625590398486
0.785229689032225
0.665854870451034
0.793833582390094
0.711900312310393
0.797741057735303
0.729032787139478
0.78212971771689
0.68560089724145
0.746773353101407
0.691252207688076
0.800569297778465
0.737863429680237
0.786089836424104
0.749446140023362
0.756677809460524
0.726602272709209
0.795477367335486
0.778168112517296
0.79766980738573
0.76289286432838
0.816232387070928
0.792856491199357
0.866966976435069
0.829272553304553
0.878459722857134
0.797299397942021
0.938987647697069
0.823876349021596
0.88172847814324
0.834534927109065
0.889643680681574
0.806170176082756
0.918917011640644
0.86054028902192
0.883593068871025
0.838150703825228
1.00088795558707
0.903588241659841
0.96299451178762
0.859569246479711
0.973578721443147
0.929393661609485
0.994195098201457
0.879414775739737
0.921903231770892
0.899016175208867
1.03105024891047
0.900032150236832
0.983028295172383
0.967070084477489
1.01936481024178
0.88801169593127
0.980680152840292
0.913777212236354
0.926620783769368
0.931770836951093
0.982942783509078
0.983925346516224
1.03253234599296
0.928889629439813
1.03761524362814
0.934554005496289
1.02003506466773
0.978547384309045
1.02784965631044
0.987524308310047
1.13769732397258
1.02037126501691
1.07249441796782
0.982611316026688
1.0475644178268
1.02103224859592
1.15381358260681
1.04454862241005
1.15004313454655
1.00865940931089
1.05802140749949
1.05270364932885
1.16616819489183
1.04689195294578
1.00927605067445
1.09005970079182
1.17499948526797
1.0050966626283
1.12930236943448
1.02814081628225
1.16518241545074
1.01314349509429
1.05484716429407
1.04797189439755
1.19729935532753
1.01742065874034
1.08078532193335
1.07541678125115
1.10717743319821
1.13760725543159
1.18974549568124
1.08097442059983
1.1529375452515
1.10221271869064
1.09930127072423
1.12257646301118
1.20905019110018
1.12757023300914
1.15951406078638
1.15271495921096
1.21861882750348
1.14278678150444
1.18487368086978
1.22802996800169
1.25035942244691
1.10211832854246
1.21893447470607
1.33481480421402
1.29185566592169
1.15889814178427
1.29679879967471
1.12334434618659
1.23840015212928
1.12563577772153
1.25723621371936
1.1225661589244
1.25264517225011
1.24025938339201
1.29984104926345
1.20581995506895
1.12894641361337
1.10871705931907
1.24352314339645
1.13470836219101
1.28950646663662
1.24351504743781
1.24668922862509
1.20818004216126
1.38842388082674
1.1345882990447
1.28359289225678
1.2068897788533
1.2835405896342
1.13078116038909
1.3396117179109
1.24359290904338
1.37351155745594
1.31674095167028
1.31639216303333
1.30167109218652
1.29606329907958
1.16262722800755
1.28711195123772
1.32019038630468
1.40298814804121
1.12965177432266
1.29953418729296
1.32502738002348
1.34296730717899
1.27006993491525
1.35639722881563
1.28843691927446
1.32639704604124
1.18888443948384
1.30482020674427
1.18941579689846
1.26651472174921
1.23856883215006
1.29339335289855
1.27569197631068
1.45538974900447
1.3832148972056
1.28624996747584
1.21546928598444
1.33734665656788
1.28561058778021
1.39196024290362
1.26580453651712
1.31233929990265
1.27454865207413
1.25493185543643
1.15591982749741
1.29629561318418
1.2891616011363
1.3657332892052
1.31765602130862
1.36519166407593
1.25344713253022
1.33815450115379
1.27948664971335
1.35044770888412
1.22173821884929
1.33346384048984
1.284369085747
1.32249335047974
1.29608976804977
1.32995552945983
1.30061265066609
1.3218953893818
1.31105748279537
1.2808548567538
1.22803962130752
1.28209248906333
1.29562395511467
1.36789824873639
1.34829817625711
1.29869472457566
1.22879167514672
1.27078234871038
1.28844274807971
1.32917016588808
1.27806735240491
1.35854269817622
1.28682778405058
1.32198171455417
1.23581127383267
1.31482214266455
1.30773469193803
1.29831941035408
1.28292783352712
1.30432515303558
1.21814658088662
1.37164337949732
1.32469152052136
1.23687823479308
1.26177224181823
1.34656745040274
1.25482358691138
1.30468506529942
1.32605202091227
1.34345949697099
1.3877409479567
1.30599531620287
1.22787595958582
1.34016308830105
1.30964513570588
1.31190098266705
1.21289575557657
1.28498609533445
1.30669223931348
1.38265041152667
1.18922274017523
1.2515829280293
1.28311211273453
1.33186056419305
1.29075414708287
1.34240346040591
1.30793736856969
1.29064706434287
1.27028781701469
1.23939724944602
1.27106429652306
1.20685692212839
1.22122571089901
1.34321689398541
1.20843961118614
1.28398983398198
1.29171091085697
1.25555444888764
1.22833903803519
1.2884667152416
1.21377242235197
1.20674740617317
1.17196180379567
1.198353476444
1.186293956855
1.27248198239518
1.24247815005562
1.14532312078383
1.16550561826604
1.26675310394163
1.28811074647468
1.22933333606955
1.20382634143365
1.2453740620857
1.22562552928569
1.28123747214965
1.2710692341674
1.29930242552182
1.18451444532095
1.18945199100012
1.22700868281314
1.23950332250713
1.25006663489643
1.19716197538599
1.1720513150312
1.19423584646462
1.16162449068496
1.16953858737353
1.20857490156218
1.16467990017235
1.172746055018
1.20171525197105
1.14548054219352
1.16624060775043
1.13636495932364
1.10294000846173
1.11385245310302
1.18754772146028
1.16488337744002
1.18213139041857
1.15951342705519
1.1596021428461
1.10210708634882
1.08942773927705
1.15834567067894
1.13853032217442
1.12954740493176
1.14287067287206
1.03305058465374
1.05163553145962
1.08807514287826
1.13016057199439
1.13487802653561
1.06880938634228
1.12378757384158
1.10805427079228
1.0525837781191
1.05308338437116
1.07083954889234
1.07836902890541
1.04201612306931
1.05489106317535
1.04918304246937
1.06331169704417
1.09938504009705
1.06788443759951
1.03719808908312
1.04159815714972
1.04424360691101
1.04340885752962
1.00802885757596
1.01110854139248
1.07592604333634
1.06113152101954
1.04909185710792
1.02608399318662
0.99715492461207
1.02752286204624
0.995465221070441
0.991443643491874
0.976046290042454
0.998743789660691
0.993941428536174
0.962553060055295
0.980410640176196
0.962234443200747
0.962020418291739
0.988203627885328
0.959094000606924
0.945838849959375
0.940331244603491
0.939208006190922
0.926962869369967
0.919960888452425
0.952716201353325
0.937617159606959
0.915682886590225
0.909751396406423
0.932900903750862
0.887488344718255
0.90600918088714
0.91055846933768
0.903631619942412
0.896429188667184
0.87146022505328
0.891716389765934
0.89522617926288
0.870873347664429
0.861299263338849
0.833583775225434
0.865702337941965
0.880714234521784
0.879105290536935
0.835561916460423
0.852759110238972
0.867279842999133
0.831328776472539
0.853225886304214
0.837652014723105
0.81572273484482
0.851509959682147
0.8576774087164
0.814485377289063
0.802897064948279
0.811218232514988
0.803438268782955
0.809435648745436
0.811640637667516
0.794813972384882
0.813756910596681
0.819392949371097
0.769881713599425
0.77188025416035
0.770550578343752
0.778243440264433
0.769364817095381
0.753548126382816
0.755358316707693
0.765932585269382
0.72763446243181
0.732662269443751
0.744975727174932
0.74149831721253
0.749851819882066
0.746154955180913
0.734575671993858
0.723719932106497
0.715799782697353
0.714627464477239
0.709376506705548
0.70325759989556
0.701129167981382
0.717321757553398
0.701523471894211
0.69572514839741
0.676054293152802
0.692184827733082
0.688687324004448
0.680269236637749
0.665132626590671
0.684477312096587
0.675524407969492
0.672946201773078
0.675441653650737
0.668588630192895
0.653013378173016
0.656993848527288
0.657170398225022
0.661251233184253
0.64071743689842
0.664348821744659
0.657371030963072
0.637257191808844
0.632190221397883
0.628272773253098
0.616396141139014
0.628537887203922
0.615985589269479
0.622301177805755
0.61349395061037
0.611913578783572
0.599531607883553
0.604777868141328
0.60204410432883
0.60648961296999
0.598261307907156
0.601662689101138
0.596394302326381
0.584852539441958
0.577487980490136
0.592506617478431
0.593022696894604
0.578457662216878
0.573554814204973
0.583810734972491
0.577403158334441
0.579844299464879
0.567142290706459
0.56318399452557
0.559119669024
0.570601148110437
0.567014676890126
0.555102682578305
0.550316875489976
0.547786606660479
0.541236269581989
0.553215729539349
0.537827282314686
0.54684901703149
0.536137953491028
0.525299421634619
0.521592746316619
0.521971196107686
0.51968995502732
0.529888628890215
0.523271842925802
0.519289992905053
0.521567206632884
0.515086193147745
0.502738016627537
0.512105759595039
0.513339418460017
0.499667302579175
0.500724417034984
0.503518863267057
0.495631688206662
0.489965075728263
0.488110923036759
0.482842236286434
0.490220122813922
0.485819670262656
0.478694044056036
0.489663281081591
0.479495492140197
0.483749100148827
0.471096918772005
0.46506027677713
0.464638499150798
0.475558992769676
0.460227727070524
0.463628570217641
0.458409724499978
0.459334449731912
0.452390428888286
0.460467416528017
0.451162233193569
0.453575412087308
0.44561867613241
0.43718008635067
0.441046367415371
0.448659463475477
0.444508751223035
0.437611561300254
0.438713619301946
0.432584367186149
0.43609872195525
0.434294258260874
0.431544923662338
0.429503718364616
0.427261112176049
0.435603483862538
0.431044316791301
0.441028074553206
0.422866926458426
0.420748616855145
0.419344740997263
0.428582667251026
0.426295361700137
0.424826658623965
0.430061750807541
0.41934851817021
0.411553273414373
0.420332857955187
0.418642321939196
0.4164843871192
0.426606116108756
0.413325831269489
0.41023659343866
0.42124034322008
0.418880195819121
0.420683559237931
0.415576842786714
0.430579953166089
0.425483002396444
0.429968603086902
0.419301226516992
0.418487276389952
0.426040620674694
0.433185181922691
0.428325831337946
0.426881732580044
0.430812087551611
0.424396674767742
0.435690947174628
0.442531598848612
0.430317278586089
0.441727203107868
0.447890765670871
0.436670030492001
0.455483977860183
0.454948696499239
0.451513665474985
0.454662244082411
0.447944728795673
0.466190041320571
0.4548010551483
0.472357608352288
0.454299861195445
0.478251424019741
0.473759304742873
0.466945041396127
0.474522533964485
0.475670239458138
0.489528479418282
0.476905146823914
0.465613338450596
0.49129416627649
0.486907082982678
0.481646296295649
0.490809001197795
0.497712272065812
0.484300452314306
0.501850935762692
0.502024349141954
0.511113043912708
0.5084085324012
0.519121038081323
0.523866505680221
0.53039345202431
0.525949524432023
0.534594950839958
0.52262385046971
0.532056729640811
0.548776736669921
0.538653603358016
0.536076465690985
0.571756490498517
0.556333819738524
0.565989720378599
0.545528825380193
0.553435534500043
0.554014531519095
0.563153765100586
0.554272545642872
0.570120978980814
0.566142375885924
0.58861081454071
0.5570367022078
0.583050161989744
0.565323227578382
0.575954081505399
0.577422571988115
0.571244760552135
0.547306423923758
0.576818499373932
0.565727531880041
0.574992940627908
0.565413889182157
0.568651167061509
0.578338910002918
0.583235059227859
0.552186830889769
0.569529049528863
0.569373546827316
0.555671403314581
0.560930802772917
0.562131057703794
0.553243087893972
0.556647813268487
0.550997712859361
0.571184121612422
0.560824627055444
0.563701962552754
0.55957874565279
0.565005554529889
0.561375937346463
0.557746965993084
0.563285002677042
0.562437519122208
0.567950223463477
0.578745559771518
0.57355869202718
0.576639212570406
0.566863287284223
0.577673226515537
0.569902629164984
0.583541956509393
0.568978502219785
0.591133138920679
0.550030295393
0.572267920878662
0.563337644765193
0.569307772246613
0.553616386013202
0.571467849863563
0.558521588194547
0.575472453449545
0.561502751736923
0.562012692729448
0.552466600940395
0.552865726579181
0.560143424500014
0.563570901009143
0.554562548587181
0.55857620845696
0.539970184268509
0.55378427493604
0.54323220558736
0.551422413742306
0.525456719466067
0.537955682601238
0.533265418109202
0.532706944604099
0.516679933330406
0.523688166942506
0.521694165982345
0.535722984230181
0.509552978746126
0.520138898097
0.492081123766495
0.507216971636865
0.490925140415344
0.500334773676001
0.486112133187385
0.481071402194363
0.477007648909071
0.485602302622829
0.462681606524451
0.472024851273671
0.473033366979639
0.471353567451397
0.465202996388625
0.463329620053444
0.441358420618379
0.463342793538626
0.451999169365814
0.451194420564163
0.447123458740936
0.447598494372022
0.438850658464186
0.445447485555778
0.424457740080575
0.430132722005769
0.424719721954706
0.435530450717818
0.411049604456978
0.414595004664849
0.420611444322506
0.425832906785182
0.409790113059849
0.411804868209834
0.404502902328052
0.407153082047616
0.404375121185186
0.404071320274037
0.401160352543339
0.410587647271788
0.396944278158743
0.395613908927783
0.393517448168576
0.399885958054502
0.388179899450674
0.390253867935486
0.384500053845333
0.390496926284623
0.378757030139645
0.38845668839053
0.384338061560338
0.382689134685277
0.380906353164332
0.380318670685991
0.374995569621621
0.37001419594018
0.372061121725513
0.379932083069287
0.367093777653074
0.372557433967155
0.370161290689937
0.371085053345379
0.366126819388963
0.363280231673193
0.357206309596607
0.365952542057737
0.361132160377086
0.361859653364714
0.357239033648373
0.362750640951382
0.347650179823886
0.359286723146855
0.349818563049149
0.351705441105673
0.353335277820057
0.354300168642903
0.339819862065261
0.352125947596354
0.341182135344473
0.346323993068206
0.339682844508269
0.348578163918077
0.346575247832976
0.336410331059844
0.335956564435287
0.341643501154224
0.334347091551443
0.345967331659506
0.339370300016737
0.349522700224319
0.32715119306025
0.332862276625102
0.3294356196704
0.334233064439425
0.323849862244835
0.336032890138239
0.332928126749787
0.331660177778306
0.327959073736002
0.333972890263569
0.324631372134014
0.331722750488994
0.317728274983432
0.323883765497388
0.322374542341246
0.321292995530735
0.316425638091764
0.322034195863251
0.319852648620709
0.322967649437826
0.320229883246061
0.320905989036095
0.30866115098824
0.318407689154874
0.317005453720027
0.318349815689044
0.314305618503257
0.316557670544825
0.307819422079894
0.317373323075629
0.310836636163049
0.317998804510367
0.311513387855942
0.312439460948425
0.311255672290482
0.31525562009719
0.307335253818672
0.311910947199842
0.30828999465962
0.311236049374405
0.303602533138853
0.312468126407204
0.311863450709167
0.312418781523902
0.306234243002442
0.310106791054028
0.305274934005157
0.301012124577933
0.301458831459169
0.307661151452196
0.300911809904834
0.306838795929758
0.302156856774319
0.305757899095746
0.300637212115043
0.306021310185243
0.297884309462399
0.302999853069583
0.301376575964658
0.301935468512691
0.297816033841648
0.300632117387126
0.297451982511556
0.298089041482702
0.291705542696532
0.301292663175827
0.293573957512228
0.304486600566689
0.291802158548552
0.293696501118967
0.290055273563448
0.296188836346013
0.284033629327562
0.294156998583707
0.285578724014745
0.295660819506933
0.2910160943951
0.29774476865871
0.288606293316231
0.28843569838021
0.289341634859612
0.291726919271861
0.287348455617064
0.289889613233353
0.286816827903096
0.289585628311854
0.285295688229068
0.286764476292726
0.279624534824507
0.287669259143376
0.281538032485852
0.284845311454402
0.277422186493668
0.283886048892596
0.286815891024071
0.287916739980352
0.275877598413921
0.280245239097373
0.275334307847282
0.277127145951667
0.275972065119992
0.281164604954511
0.277900668409136
0.277205958413104
0.272621127953221
0.275822251197078
0.267307534644993
0.274053312421815
0.268952508749285
0.272771582200984
0.267066706521675
0.268686575593144
0.271391025709412
0.269136760910511
0.265052735712701
0.272070459894278
0.263242190191646
0.268538360742208
0.261420692189785
0.263456710368565
0.260328190922621
0.264307220972981
0.260541641036123
0.259996686649272
0.255944948116082
0.26378506782287
0.257174795255752
0.261278521004713
0.25738925498987
0.254140729555279
0.249468566142474
0.253100846176184
0.251570485427362
0.258642364940017
0.255731434670559
0.256051490415937
0.248807396293112
0.249368057238693
0.24965470469512
0.253092351458123
0.241047552258926
0.250405421024896
0.243413890431617
0.24565411852015
0.243397669616419
0.242203427679417
0.236579062694769
0.248414071470863
0.236865105620367
0.240955060475855
0.2351021948087
0.239943233922823
0.237521301855133
0.234236462152439
0.23182216387702
0.238283635394247
0.225235071356795
0.230382793415173
0.224599043470177
0.232233150199128
0.22737316793608
0.228750049190261
0.230583994084312
0.230962472624201
0.225556488505087
0.22963878248785
0.226464312682218
0.231512214383554
0.227951072463283
0.224611038415259
0.220266828689232
0.228991081869812
0.21580392364235
0.224444729943217
0.213098583179651
0.218232234787022
0.215208840627959
0.221113216244746
0.216160501576624
0.216927034814442
0.212430996582315
0.213322963017292
0.213857606521903
0.213457906750734
0.214262526430024
0.214591343195703
0.208356180006818
0.212103224916603
0.20926701750357
0.209784929728119
0.209605225615151
0.20433131636482
0.208225624098788
0.207797788400604
0.20354230128274
0.203841304457097
0.20300543847833
0.202806083161142
0.205178138661696
0.203035902759
0.205516745610021
0.212389262084477
0.207039834912221
0.202135721367581
0.200367780468546
0.203276802069244
0.199592254742747
0.199449969243232
0.202812400759331
0.198208366967661
0.19736288228314
0.198332069511155
0.19490866778709
0.200862235252454
0.19455836352035
0.194054068978151
0.193567554292709
0.19756511968975
0.192011818819762
0.194239796092505
0.192557819082959
0.194921210431765
0.191320012777976
0.197459911451798
0.191983723030427
0.19667659057492
0.191601298072148
0.190865816525307
0.192202391950211
0.193662211243325
0.185946335755717
0.188722965668712
0.187367891471731
0.193042416934219
0.187125486966956
0.192869025191389
0.190718904894773
0.186755610206003
0.190903484806066
0.189533815305835
0.182980093755651
0.188394864731869
0.182916950457536
0.188015942440493
0.183570087685011
0.187393945898375
0.186633510035705
0.183339097452187
0.185629535727409
0.184744733081536
0.182943237501028
0.184485573677144
0.183737460068053
0.180263914491851
0.180646259427923
0.181416741879122
0.179505111842216
0.180424542657282
0.179269713413253
0.180270346680905
0.179420649517598
0.17848531361544
0.176922783765835
0.177205057358025
0.174999745763706
0.18268369466388
0.174130685290874
0.176342424489113
0.177332356500698
0.178168249176724
0.174773498114325
0.183302257242589
0.17755077451032
0.175772467649321
0.17116706109388
0.174851370887439
0.172874875742072
0.173413518132247
0.175704737940669
0.172856511903251
0.16869750944325
0.175992895543178
0.172748080001613
0.172060830343331
0.17003361841969
0.170501460257788
0.16616812875448
0.167020489146572
0.166482331495379
0.169632790155908
0.169208933456043
0.168858942551016
0.168298348155815
0.172954246168885
0.169646677438638
0.170663707461675
0.166572265239934
0.169714504634784
0.16413049959391
0.168036655994327
0.164048625933687
0.167074528785728
0.1610680838135
0.164207696673881
0.158570462672645
0.164255316253295
0.163737114882071
0.163265901023586
0.161531874486976
0.162585618211783
0.162077714042223
0.16185047908308
0.156528133640821
0.16110288403479
0.158787931958163
0.16322532710977
0.159328990466657
0.157635852345575
0.154449784559804
0.157302490872387
0.156379290609411
0.152923072157036
0.155673087604496
0.157080342365247
0.152921397508457
0.152308966833242
0.151992013710679
0.154558590729748
0.152695619910059
0.154209453499711
0.146204388346804
0.151045152122185
0.147504446796085
0.145987942237582
0.14849383463045
0.148371701408796
0.14744865306941
0.148560022652131
0.141496384685103
0.143142500591807
0.143372387878464
0.147739551263934
0.148000960672035
0.147579790055857
0.142795949756265
0.143752440570675
0.142436316339025
0.142628197705442
0.140205172969005
0.141852871040191
0.141212125038345
0.139216741113804
0.139807875103769
0.140005349115752
0.137662966223827
0.140321728520688
0.135628596127173
0.135773369782053
0.135746580018257
0.136407333925512
0.131914250974066
0.137108703402187
0.133944694091223
0.131680133056003
0.131541945012603
0.135306505390327
0.129826127305861
0.131742454574907
0.131225486545827
0.131023279266427
0.130052294880144
0.134009151807567
0.130303522428019
0.129559047118602
0.126988615584682
0.127419340735505
0.124417496652299
0.127931960492058
0.127944401449254
0.127776799293124
0.122714171609747
0.12748217328982
0.125491894511522
0.125932568310343
0.121380019195559
0.122087614513505
0.121120353515576
0.124712718972895
0.121409939602314
0.122019350079128
0.120217362108747
0.118793239824343
0.119799417427882
0.123479646732077
0.119573798425538
0.119441262364673
0.118331050313073
0.120672033353552
0.113699143888152
0.118562122326561
0.114872968064599
0.116363703778507
0.114770231973801
0.115808030708097
0.114248977685073
0.116240841897353
0.11775756204622
0.119097270779931
0.11302439008286
0.11592868025791
0.112173599509791
0.114400247961836
0.11314556413753
0.115028231327749
0.111240508588798
0.115189921283238
0.112877407139521
0.11443881667416
0.110746465144777
0.114404869637441
0.111633642091865
0.108653775698245
0.105992874102548
0.109489202125933
0.108521302629398
0.111397082250153
0.107372358226483
0.110204041227172
0.107767648182608
0.106341705045735
0.100222064747553
0.104426685490807
0.102440045059681
0.10732156710295
0.105827485635712
0.108682153530742
0.101619660971209
0.101896569881473
0.0991075352324335
0.103281943432079
0.0958800849466335
0.10454688899926
0.0992713353115786
0.106752386507053
0.0969075872028445
0.0984796223972495
0.0931284772426907
0.0999923006833967
0.0953186559295057
0.107582982807259
0.0961353862159348
0.0966137822036561
0.0968935335925606
0.0997719188352073
0.0980887441253946
0.101205166549552
0.0976879493455463
0.106246819020819
0.0939405555310845
0.09994757527018
0.0955762973775396
0.104324919981236
0.0937379883111684
0.104044215214564
0.0966523735866627
0.103846666505242
0.0953881601722768
0.10272048370173
0.0916728274870573
0.103148719036143
0.0951573862068116
0.102216335437588
0.0923322503225939
0.103342189871929
0.091491464877837
0.0980101231453168
0.0872487581704815
0.101407342719471
0.0913288419922365
0.0999612440721301
0.0877269699031379
0.0913083328499264
0.0953439195128593
0.0990737335426377
0.0937758679221368
0.0922559880198239
0.0961489219437642
0.0871681713965143
0.101084889735434
0.0855253326064203
0.0960638279393041
0.0832521655999917
0.104172866751301
0.0801570637573595
0.105819072066451
0.0803393695523265
0.101614932778949
0.0833818614387366
0.101797047563051
0.086926421945484
0.100926737919356
0.0918339810059649
0.0915141724328908
0.095036488835766
0.0910428901602958
0.0926593918620041
0.0903272874796107
0.0930116439237332
0.0940989900537738
0.0921773001094486
0.0932808270843336
0.0918024571614555
0.0936314335312071
0.0894762128946527
0.0953408484538317
0.0900077519196601
0.0890306457541755
0.0900327195120991
0.0894748536789028
0.0890780600659236
0.0900824926854909
0.090678244258628
0.0896934172627981
0.0879408607434838
0.0919622051812274
0.0910691117968256
0.0892716430647732
0.0913374267253677
0.0933240716360125
0.0898451394898322
0.090358322654517
0.0919626760983239
0.0932142667891302
0.0888164697115819
0.0904283533787858
0.0918603059881708
0.0924594750505986
0.0880878127503347
0.0896319198146064
0.0925615667715621
0.0927449545942506
0.0917409537751571
0.0919382948095971
0.0897155947730602
0.0905449380518895
0.0894013977527301
0.0917758123416078
0.0910354115110568
0.0918703207641545
0.0869339640170708
0.0907963388199314
0.0898385515589778
0.0885131036698581
0.0896110542430443
0.0921963081600936
0.0910617491971583
0.0897840148545204
0.0897557869435783
0.0893179646258766
0.0901812036988558
0.092781237050077
0.0899522558950413
0.0902067863817337
0.0903926866884623
0.0902774860884973
0.0894871624108571
0.0882162756184261
0.0907338658311186
0.0879102192270659
0.0880805307206848
0.0877331975226541
0.0868850939541597
0.0900056124305725
0.089101468850348
0.0891794184068305
0.0909977512178754
0.0880764330570673
0.0870621278066458
0.0897122807024685
0.0895308862570036
0.0909406772695464
0.09224132927755
0.0894207446053986
0.0886964461151501
0.0887158786834967
0.0896287238825063
0.0913504885390004
0.0899412290660329
0.0886857541293387
0.0915772150692413
0.0905471908538216
0.0912216323155566
0.0891844171031361
0.0897539527030184
0.0902608862658241
0.0894603592549566
0.0902200553791537
0.0905263104768358
0.0902021436249779
0.0910212170734529
0.0913231725374925
0.0921652313756886
0.0903997411211202
0.0913409041996368
0.0924001632258766
0.0889735520203539
0.0919786683749955
0.0951565011020632
0.0915016999122027
0.0924261488981424
0.09480886943196
0.0912596046335628
0.0905532445359552
0.0935872963390636
0.0918707814189092
0.0911044174752367
0.0905903805071232
0.0922126059984526
0.0931041830315265
0.0934829939048042
0.0917668470471667
0.093245513270231
0.091242318232203
0.0896357980161477
0.0951520473396451
0.0920890497496133
0.0944486572986522
0.0946115165950874
0.0903140471716611
0.0917128561197011
0.0943996883777568
0.0919863021637626
0.0925563670285081
0.0944748578397525
0.0952175756984053
0.0953265490678011
0.0929460962791464
0.0929778270486884
0.0957236065956354
0.0952175934893635
0.0971133681561623
0.0927012163681136
0.0928064220385738
0.0953998083414256
0.0943811222385594
0.0918606059288685
0.0946954416806272
0.097572332152557
0.0974669056062482
0.097837818188635
0.0941556707531102
0.0947117707227341
0.0946139569848546
0.0929369903203324
0.0960401365767349
0.0934623316974812
0.096096017585749
0.0962583637939906
0.0947102001094505
0.0948469694531478
0.0954490786922811
0.0981392816196037
0.0969067954668138
0.0970003420071399
0.096357711042827
0.0986698146140555
0.0991053481108966
0.0982225536208796
0.0975236037680741
0.0984770273761825
0.0968509074982366
0.0954975871774065
0.0978053666032359
0.0972935876049282
0.0978682342208389
0.0990318239470332
0.0986446849552536
0.0951196093958534
0.0987672759182796
0.0992841047499766
0.0974090598332429
0.0948437972900686
0.0966964017065029
0.0964646165817003
0.0973351871277418
0.095958247838692
0.0946207249772614
0.0953056491033733
0.0961219526395484
0.0944729366010275
0.0947606867229953
0.0978160479211512
0.0950361870725592
0.0951045138684682
0.0919509534301128
0.0928389972061272
0.0940537828610782
0.0940363496111704
0.0962042975105786
0.0919698972415837
0.0941563914662342
0.0957499978711036
0.0908501647549072
0.0914002392926963
0.0941465912913874
0.0940905425632085
0.0923605419996521
0.0922090562308175
0.0909388750065592
0.0944043908027705
0.0900751692705846
0.0906097886252795
0.0891230832710744
0.0911064483195968
0.0915749477807806
0.0935223213833009
0.0912294302508275
0.094464390542949
0.0900208919830356
0.0910689003664783
0.0917304497840926
0.0864292948007894
0.0881062378583022
0.0872033191818531
0.0891114017198488
0.0932707705832516
0.0927452316575074
0.0925850100766592
0.0895367908165797
0.0901655144279991
0.0886637421468583
0.0890580377258724
0.0905591271618774
0.0896868844101827
0.0893355186345294
0.0917512907212571
0.0885837374284236
0.0870001581771358
0.0919285715431607
0.086653266768373
0.0871701778034961
0.0861554781170757
0.0869415384304817
0.0891860029793765
0.0863239366091279
0.0864399667412526
0.0875933479973978
0.0879071098216566
0.0886672287729079
0.0868323562974981
0.0884093860095561
0.0879552740949991
0.0894524428868237
0.0872795379190781
0.0860758362471963
0.0875557044867126
0.0859074697414624
0.0891691469215303
0.0878451295200123
0.0889518287971771
0.0909239784566548
0.0851519261364026
0.0863135246405851
0.0864336668065291
0.0862568982809424
0.0888239257157548
0.0902942643094386
0.0883690215690043
0.0864449370886313
0.0888395818003118
0.0866248263944606
0.0877052357363731
0.0864557306248462
0.0846931177041194
0.0869391624684126
0.0862435106799445
0.0866353218672846
0.0846405767563568
0.0876339439141648
0.0865806655671892
0.0857367756316608
0.0827167997167521
0.0868582975343557
0.0883267180849356
0.0847066093609056
0.0833455910116311
0.0862736595269599
0.0853115758592318
0.0847809215929961
0.0830339924279294
0.0863906428051339
0.0859318891618775
0.083600730292636
0.0865368604124736
0.0825208320622212
0.0826964222525208
0.0812808386658927
0.0810960286297867
0.0830061757716418
0.0826651321741606
0.0822977549089753
0.0826872687647116
0.0807266537991502
0.0825327570148997
0.0818640360933164
0.0827935555119562
0.0809268604098111
0.0781723781580902
0.0786725520251437
0.0816755545237937
0.0794886652320635
0.08156972074301
0.0813139665495158
0.0786776961948
0.0753015384395063
0.0788954379322194
0.0801413462963183
0.0778492849846389
0.075814523144525
0.0747175622061352
0.0772515166960018
0.0750306012717467
0.0768956417201429
0.0758561038314319
0.07655382107667
0.0765248791422763
0.0766342154353316
0.0733302752518818
0.0766374108154752
0.0749368980825379
0.0734697884087548
0.0738144503560681
0.0730417994138112
0.07366897143317
0.0753094298567698
0.0718761520377269
0.0712262314466662
0.0755610222706129
0.0750770847257243
0.0749801782893887
0.0716828988850528
0.0710339050036748
0.07258117288649
0.0686240433900669
0.0711399180251229
0.0705061881264301
0.0711952302961894
0.0703217532206494
0.071437751681824
0.0699453270762404
0.0713654763425047
0.0692887578035118
0.0710958162742739
0.0711732429404567
0.0714587761300235
0.0708907266005954
0.0730006635630784
0.0720732710425161
0.068286798037989
0.0688127650174713
0.0708849206951112
0.0704799112349855
0.0720960965547356
0.0668576264939601
0.0679966695928097
0.0677293498307976
0.0714033595608713
0.0692029582336639
0.0703027957921739
0.0692366348488888
0.070791972181575
0.0678307539496232
0.0695041191129261
0.0709717894414281
0.0681693664708577
0.0684840562446991
0.0697933892938625
0.065830929381606
0.0648732074541496
0.0679108301200706
0.068154986463944
0.0677306822965362
0.0681996911242077
0.0649791828076794
0.0670592012520908
0.0690614858479467
0.0667824923790441
0.0670413268530503
0.0652263510317058
0.0659273147506377
0.0665840324703316
0.0672855691542983
0.0646008808498564
0.0663166714881407
0.063403975885063
0.0662181928493742
0.0662818588673188
0.0677095292527724
0.0628655830290556
0.0666127125060782
0.0624230099578591
0.0653244928073541
0.0657740785089077
0.0663125914985392
0.064296112461691
0.0665702701658946
0.0669482372280596
0.0631492347418011
0.0629220572311472
0.0621145962918519
0.0617245295002916
0.0630127677644695
0.0628320315165107
0.0629406071220115
0.0653591126212428
0.0632786900802838
0.0670274133263322
0.0624608279429851
0.0659170690084312
0.0664581092422118
0.0626200414375756
0.0660998580896323
0.063664888849594
0.0668365335492072
0.0653656692716278
0.0635736205379366
0.0652331337580704
0.0620963721072987
0.0639981267118891
0.0629438406016298
0.0669392442166668
0.0620545806736031
0.0640496628704187
0.0629830247893064
0.0653443492253682
0.0581141899700341
0.0646068012295556
0.0612235159132198
0.0613644367542293
0.0619780190047254
0.065756119287289
0.0635352136526701
0.0644402562018019
0.0607543505772409
0.0651832334027164
0.062703931337775
0.0674034147931288
0.0634917092529815
0.0662547660151217
0.060623916090109
0.0636578709331151
0.0619435096829529
0.0634892636613494
0.0596801025539655
0.0662762027983246
0.0631157762247299
0.0608379678112374
0.0635862657949573
0.0642037673018535
0.0629214118193378
0.0635996619720213
0.0630190103379773
0.0632255607356913
0.0625416477736786
0.0609733710017511
0.0615015632350795
0.0602471812445357
0.0608572927867897
0.0641028693109478
0.0611368613714375
0.0600093876917606
0.0655948929834466
0.062712387715939
0.0634180315692468
0.0637414768612347
0.0617281194088137
0.0679868822629647
0.0641797745423233
0.0633177394323615
0.0593777571935019
0.0647498160751614
0.060443929346383
0.063864291523872
0.0615497770256106
0.0627317687859783
0.0629022633488344
0.0644217539092892
0.0618818557633396
0.0649421115627747
0.0625542819983446
0.0621776515200624
0.0599934494055643
0.0648394158172108
0.0611986340704178
0.061608639425665
0.0638787673836903
0.0639003878528129
0.0656286773915452
0.0617925336532849
0.0618271535428414
0.0622935237610636
0.0676272306137096
0.0603704048698423
0.063475823032286
0.0635844475628345
0.065147917658887
0.0649288728709554
0.065304538481547
0.0653691221434731
0.0659716206860093
0.0643245233350176
0.06497329066602
0.0642867688462844
0.0618874857774469
0.0626594726492551
0.0618857494872278
0.065781485224735
0.0682547400057954
0.0672518389219132
0.0640534286670277
0.0633719952660479
0.0701763280537023
0.0621202301221255
0.0681854759826307
0.0659285862276068
0.0636582944372697
0.066165763838601
0.0676037018433971
0.0695435825912741
0.0673506961880813
0.0658988090400656
0.0635646331848597
0.0696033280191463
0.0630959783886892
0.0687922271364604
0.0669485092780934
0.0673411698744167
0.0681431115957662
0.0674745750814131
0.0709852313999311
0.0692917695078735
0.0659249537678808
0.069266333825952
0.0665925067241442
0.0694447016426668
0.066842875541778
0.0698396383481021
0.0706322598348112
0.0674495396681785
0.0715335207531186
0.0721831083446854
0.0703684910074106
0.0720806955697419
0.0714588851270516
0.0745974574064678
0.0663704996449981
0.0770464474348394
0.065014437435064
0.0750145350180631
0.0703251017321982
0.0749914056480106
0.0702591243600884
0.0733175332588971
0.0717183743397139
0.0701558824291876
0.0747457315509442
0.0714220128976336
0.0791867262453615
0.0680346978851679
0.081019484745406
0.0721232934861021
0.079714511660699
0.0762925859510158
0.0787408438221454
0.0750698129691061
0.0818687473432295
0.0714556565879011
0.0790796953550075
0.0833683113925011
0.0762715245325255
0.082653791416218
0.074430664966155
0.0803437350941819
0.0819299406755949
0.0792481266514843
0.0824071951805244
0.0786346674075356
0.0819899068840996
0.0815094806629431
0.0826309571116537
0.0833237735543855
0.0835881906417397
0.0860896378171613
0.0813300883164662
0.0806044124261444
0.0900122883229504
0.0874343174561537
0.0874288132710144
0.0857705834331628
0.0841418683279859
0.0833821356755206
0.1014169484485
0.0832299112862158
0.0963759490890475
0.088307739048655
0.0950217053043618
0.0916520872542984
0.0946859881663545
0.0916333074945326
0.0980882690662356
0.0945723398576361
0.0972068917346669
0.0951177313537443
0.110275688330942
0.105342094576955
0.102253891813776
0.101984135491501
0.107217849242339
0.105047937167703
0.114689516157579
0.115217420100033
0.116179141123202
0.113001242052854
0.115667161449663
0.118240265667454
0.115028702741984
0.119791476816382
0.116770267740044
0.119959617711243
0.122782470539306
0.12038301406336
0.125805593875707
0.12395202770981
0.127462084757771
0.126452757359021
0.129472102711432
0.129083330802643
0.135681776677694
0.139363444021053
0.134479765695113
0.14997841396683
0.137456763701608
0.143174145148576
0.138958188608844
0.142269521915977
0.146681417246036
0.149137732865438
0.147431730948122
0.145873359903754
0.16075470826872
0.15109978062056
0.154050252143314
0.158036520779204
0.161646230197578
0.164007819714917
0.163130270659825
0.22758129870761
0.173823132523499
0.188917414932064
0.182111707231933
0.194500265108085
0.205368858469457
0.20468079209728
0.209255394990364
0.211221784220902
0.218021514447446
0.227066250231786
0.23087975954227
0.235878037933862
0.245382989865981
0.253333776528635
0.254821921703848
0.264879203884566
0.266768459094768
0.289983486592529
0.288265270980253
0.293998950433653
0.3050429712636
0.312062749364097
0.312529042183074
0.333059564231925
0.326772309247494
0.341168282027731
0.363169085623298
0.363275718606015
0.362164197313486
0.373955361623676
0.395015700800087
0.389830600741926
0.410715480797882
0.4139731242577
0.410973781979025
0.42002813438044
0.431429312869994
0.44623259024009
0.436818558574637
0.473244303927078
0.469089429480448
0.464408118883904
0.467536454794315
0.481778413002749
0.489790236425989
0.502954047222092
0.50079188005831
0.503006297680044
0.518397079313844
0.518259051645668
0.60368923198958
0.535129169158844
0.515538984029665
0.518241998864649
0.509494137014127
0.54699010568314
0.529777607306772
0.557784006394499
0.530815386285893
0.525994402872601
0.524573210238626
0.537309246044657
0.53303168017819
0.532726519872912
0.5305739266976
0.526535592152831
0.536281198427656
0.531225544087463
0.5315374584322
0.57570791393208
0.527956953273628
0.535162657311947
0.537612839525063
0.531737539611296
0.533624098287913
0.537649723824907
0.531125101674595
0.554819685129019
0.523360790176143
0.515098983750807
0.502523346229634
0.527518947278248
0.499288119069608
0.509664988994913
0.505815705390312
0.491958070649228
0.495979690170993
0.480120543792707
0.482178999657247
0.515542026908178
0.468523644041703
0.476277232917059
0.468657435641263
0.465827416593757
0.458316114503342
0.465402323103511
0.457996966366282
0.458727095135614
0.453310061222365
0.450108493280935
0.442071441089685
0.451163563465453
0.436572893273555
0.450117708705865
0.437719697439873
0.43856588732811
0.433965549169673
0.438600662717396
0.435141744264459
0.437606863767681
0.438524097298447
0.435917609591826
0.424912260070712
0.432227938525503
0.433413927859937
0.438450796942521
0.429358191073697
0.427433456198668
0.418336109474738
0.428353340846028
0.424575209324668
0.422988778427282
0.421547907911933
0.42816255864796
0.421122303108856
0.42901585247101
0.427541473098043
0.423183437579807
0.423316475179112
0.417701019151842
0.417123689945638
0.412753894126369
0.447480440674151
0.417484797270104
0.409506478285884
0.410897561561425
0.403846289432025
0.40567866380838
0.393638964825095
0.435252761179832
0.41029178091425
0.399844723417453
0.395256585425594
0.389812360500323
0.391585202393549
0.399662818990124
0.384035962950086
0.387050631254634
0.367345143427114
0.397977931626495
0.393768833974316
0.403713262600123
0.402745888863251
0.380665881863655
0.371423454399467
0.378205360717497
0.38401239803047
0.367457325497312
0.373553031047913
0.365159411679829
0.385359902977546
0.376352989967739
0.369664204186499
0.372495388922393
0.360358869959518
0.357207921792263
0.36956588467732
0.356685947384542
0.361310239100384
0.371231801183672
0.355661006351866
0.381740120496215
0.364682473276953
0.355487232573323
0.341010956575708
0.347798483412911
0.344130676819651
0.33782112642194
0.35142822954383
0.335664486213788
0.335234594151769
0.328974681559037
0.32501467872474
0.320883100257101
0.320527706987444
0.330144247851115
0.318277355244539
0.328110800965975
0.310350197764811
0.314339090327727
0.309676417311254
0.33276501681454
0.308922146776696
0.304535817399118
0.299582294509905
0.30778034960395
0.312778186710844
0.295708950168644
0.302838165155722
0.297088681529603
0.296179663935528
0.296815046259791
0.280148303328728
0.286799906706057
0.277198536831484
0.285701530628616
0.294962826472427
0.291612533146398
0.28896894454198
0.27832386243665
0.271574352081813
0.277932313840637
0.268810647631909
0.275704079737069
0.265937366036166
0.272127958343864
0.272165757194117
0.270772056566961
0.291420167035078
0.27460881599954
0.276658158469189
0.279082978516891
0.277594138625587
0.280837430980049
0.283316516756379
0.295784191317485
0.289970344401501
0.285418681216353
0.302805650321897
0.296179098971346
0.300440351237679
0.305656384857767
0.314563233818352
0.311189397472034
0.322271492916256
0.325486480524469
0.325946681683151
0.337778214442549
0.341029786455785
0.342916007979815
0.371081318774918
0.355573271998346
0.378337714709141
0.373212579201891
0.39761154941244
0.399201933403835
0.402485952368605
0.410008944651676
0.409287070123469
0.416157966660622
0.417843920931534
0.428971543515074
0.451993841597463
0.438659373236143
0.445309220639949
0.450458696422139
0.452460023391773
0.441171142776829
0.462252486185241
0.463204802244518
0.480231332522281
0.481254565944253
0.464516306436983
0.481916995966549
0.481829906718
0.488460881102545
0.484534697719219
0.488392137527744
0.489756124280656
0.484997274212859
0.508620783354953
0.50611795754113
0.504678536999886
0.508957555412217
0.510808418857096
0.509583819921108
0.51301414063104
0.515467723068895
0.516371412200042
0.522479216061362
0.528602606653039
0.519050304039577
0.547179294656094
0.544058007305836
0.544479206121442
0.544239321707154
0.547217873861689
0.560487303570735
0.556430432608163
0.564395176444496
0.56922208217782
0.568321185406708
0.571335795560063
0.57102543304957
0.575858738027832
0.57816204696856
0.596237668084504
0.595369717214867
0.602297161949627
0.597399423543963
0.606553342638011
0.634286734598402
0.612046878155634
0.61803548660079
0.609553860936493
0.62607287532464
0.624153208372965
0.619029021107568
0.620687211539487
0.630961067010359
0.625110059849682
0.63228081029137
0.637387973365856
0.630271317440167
0.624933521813596
0.616536007794823
0.63169732990979
0.625916766650772
0.625713380946855
0.633601990285339
0.629484518386547
0.629444820505652
0.63059892361051
0.636121013483076
0.625588857542694
0.626676709290925
0.618765090606066
0.637904771100805
0.632837797998575
0.618200918630638
0.629676097479036
0.624604696457433
0.630380089404446
0.640312724226471
0.616472833926844
0.638063948247883
0.641713706949992
0.641257698057844
0.647959639363499
0.646268265323913
0.64109813807312
0.648715282446425
0.650046237418689
0.655977329838239
0.654571221618404
0.668630848743133
0.661190269314131
0.662272319306979
0.663064179425349
0.656549115283212
0.663045411806703
0.661497956727255
0.662561106106841
0.656777737680108
0.656844990874811
0.66422395765413
0.656520529175457
0.648263366733037
0.644595037228302
0.642532635517611
0.623240139877349
0.637748867142868
0.627329631989475
0.630566855299409
0.623552260189683
0.613624908141395
0.610633960526949
0.607384101837575
0.611433754696104
0.595952879450721
0.597119369748272
0.59384543778821
0.588868267257106
0.5883282875125
0.583940876931121
0.579952633412208
0.587945634695562
0.581781713801694
0.576566945138494
0.581800054046833
0.5819613239225
0.583085723096038
0.580256696967234
0.577399563489516
0.572504542480755
0.580119806824494
0.581739672347753
0.574569024257015
0.578795719909398
0.580868685181886
0.578000905908032
0.572252262431652
0.57675485105692
0.576482631367793
0.578187312567012
0.571442036662456
0.571680339732476
0.570415200804944
0.567584517728286
0.571908361336901
0.571863805171461
0.567217971975956
0.565614064168356
0.56781508803761
0.570935571992481
0.574142221599227
0.569858380311534
0.567945408849313
0.569563031716277
0.569905147162318
0.575370235588563
0.574558875676557
0.567755253473656
0.565453177811718
0.566575905973324
0.568607852225885
0.572466289931764
0.581536541198939
0.57225035867047
0.570118729119391
0.573379383899561
0.570595857222348
0.569928343747885
0.570060387774536
0.569022833074241
0.564439036435523
0.562043891243675
0.559847960098911
0.557425481304246
0.550012330982911
0.551722769513896
0.542222379024676
0.53717882143505
0.538035897119557
0.53010635318778
0.52317846824451
0.519968455828636
0.516067396002911
0.514120188361282
0.515208289242383
0.512813521352481
0.502179235773305
0.501884765690307
0.502677627390276
0.501595759091984
0.499598685644801
0.498793105121604
0.501278762396518
0.492366299782209
0.498012846788851
0.497414584291765
0.493701306594896
0.496409904901009
0.49517629578076
0.496459000208048
0.498081532436624
0.499784489200923
0.498102188190573
0.496734151034843
0.500800363972383
0.502588110011229
0.508562809607963
0.506990250098646
0.506448804672196
0.509907890449073
0.511753343727006
0.518490963595663
0.518508726258997
0.520150065346022
0.524016468810274
0.525535647324624
0.522499356313023
0.52537284309634
0.525788417885343
0.52846558395926
0.530593210636389
0.525574743390329
0.52460005471565
0.527050961070471
0.520742535689971
0.522653144195504
0.520932305993258
0.520518017520094
0.523553780029249
0.521890174021225
0.51544507263238
0.519557777769488
0.512590844487124
0.51338071246171
0.513491922450135
0.511745159320971
0.510321215222849
0.510757136284208
0.504523341427191
0.505296818575522
0.506147007673782
0.505167791968225
0.502098376163678
0.49887651034973
0.496062207417001
0.494159950265378
0.496159535526663
0.493315554387525
0.493492904485253
0.487471054310774
0.487922671117079
0.489898439987853
0.485662229540029
0.485752635382045
0.48749865941626
0.483546049005329
0.481573976926998
0.47924828261568
0.478686258686682
0.475407578243262
0.473046166945393
0.473373414437744
0.472403186886462
0.466385933920083
0.460398035391512
0.460808453778857
0.457207869431553
0.452439637633745
0.451697647698632
0.447222105114784
0.442449087027187
0.441442839843305
0.440805091400238
0.436751249390493
0.429572710830738
0.431298881456791
0.429087514349576
0.430832291975102
0.427355435713993
0.423585903542137
0.425627953558267
0.425670089726641
0.420700387911984
0.419782338597999
0.415955198731589
0.412228176530854
0.41295818732513
0.408062977260127
0.40184772459235
0.397055944705301
0.39288612747688
0.385737521889407
0.380202587137342
0.376083623111127
0.375528947885453
0.374163515785013
0.374943442432649
0.375097288315121
0.376478355234729
0.379852799895473
0.384797203423682
0.393056525022043
0.400718522837845
0.407862275403159
0.418906223267216
0.431007910431423
0.445397951751936
0.458948849723305
0.477618497564737
0.496229289970348
0.512344685603543
0.534106376026658
0.54893098619973
0.563318520874715
0.57978978646503
0.593161915541555
0.613272675978437
0.628208526292045
0.643623391043608
0.663839732235828
0.67494584457362
0.689000648878532
0.702405570818139
0.719620789278574
0.729369851897891
0.74061779625023
0.755129612330481
0.768418879139329
0.77984738058705
0.779570974839758
0.781524931582998
0.797755852443335
0.808022339013892
0.807892484550131
0.814939030512162
0.818258670148286
0.812502029191909
0.816594600437258
0.824723049469861
0.823169140613925
0.826400423459377
0.825955737103543
0.828824237614794
0.826026357565019
0.834484340786817
0.832806723876316
0.823552700719275
0.833080412599183
0.838826301579156
0.836947157053139
0.847804981581775
0.852102826008292
0.859932465950102
0.868409025082538
0.876683534326642
0.88305993408455
0.887282325055075
0.901016783411165
0.908668390693845
0.919300827896457
0.934307717433942
0.943212193593001
0.956237356826506
0.964230893702656
0.968111267480109
0.988974928079299
0.998411567963445
1.00747125374087
1.02040582056286
1.02990072196957
1.01806855732153
1.04098948684354
1.03816665660337
1.0544575760949
1.04275710753096
1.05604902225369
1.0440840179469
1.03673229874246
1.0391989738803
1.04602199652861
1.03770380812207
1.02623830072387
1.02920185884647
1.03829973428133
1.02895748686995
1.04520783414102
1.07002405462588
1.07789209637279
1.07020850632317
1.08808508045292
1.13334626649622
1.13734000964763
1.15161256242689
1.16170803930255
1.17891774193298
1.20134315286649
1.19891478432774
1.22565289384842
1.24729144010861
1.26678610155361
1.27760048644093
1.27832695131721
1.30985371129136
1.30644418163708
1.32639316848751
1.35656378693947
1.38151132303262
1.39187531711314
1.45543497882532
1.46455366058742
1.52810520561395
1.52132638148108
1.53379628588562
1.51410860201076
1.55797731437322
1.61950731372976
1.64341697944856
1.59776017965371
1.67237298721052
1.64854093015209
1.74781162353442
1.7567923266854
1.7140097483875
1.74124857650533
1.77132960807726
1.81568021322398
1.72912304355212
1.73147284003983
1.75587573592886
1.71772807538201
1.69603826622938
1.71501787975436
1.73469985601242
1.64644987924555
1.66270219371538
1.73595675573695
1.88965884550233
1.65405823995861
1.73736220428736
1.72383730160135
1.76400500653014
1.77901665727169
1.8259961503692
1.72251174050648
1.88183506891447
1.83575842233233
1.84951746482137
1.84504105093002
1.85380118952293
1.90886270363976
1.97518384775723
1.88807499256149
2.09117913621193
1.93736405014884
2.00341857637258
1.88766602541632
1.93624117444435
1.99663554078619
2.12871448302381
2.21475821373742
2.12911339755805
2.02537444557908
2.35768282737765
2.01945653427665
2.13044162640489
2.11664804244031
2.24854195483519
2.13916442080087
2.13842398115851
2.0004147143721
2.0788124615718
2.12284314113737
2.16324566050867
2.37391241775017
2.06453048695778
2.02800289155214
2.05267424556429
2.0552417982364
2.12635030158651
2.04973251109035
2.05013084839866
2.07067616711079
2.04641988091885
1.91078392916199
2.00204512286192
1.84719002467185
1.95542041253496
1.90285322676074
1.72937158392672
1.77394836258869
1.74180965946359
1.69774428690581
1.68245852052141
1.62639119447025
1.64988306053842
1.59240488108465
1.55887394055181
1.55618831050186
1.54959828122768
1.51305610345877
1.53580816683058
1.47921893600875
1.56887195924645
1.40138279282544
1.45122520259132
1.39236971522844
1.48555929065221
1.45449652517944
1.43248857334169
1.3834125548772
1.40890346903403
1.34541571642163
1.33018512258775
1.29859409367825
1.2898198589628
1.22176841723515
1.2381808673618
1.18439799247372
1.16339174545539
1.08246023507468
1.08683955743034
1.02774557373112
0.980804271786288
0.932209206604158
0.909810696476397
0.868126560984392
0.837941760623178
0.805772145190723
0.762741758062072
0.739398805538645
0.714057731237433
0.691124039492475
0.660118634230703
0.646314397493319
0.640743081605706
0.611507127145283
0.582739562732864
0.575126547101449
0.576128836509206
0.553713112102855
0.55740977566279
0.543183036982103
0.545190428929454
0.540613195006871
0.539145139833792
0.54151014781118
0.537572380757965
0.528806803413549
0.538695527828556
0.543981588791752
0.538482681514681
0.533566064652191
0.537559262641978
0.535054332611487
0.538625598198411
0.531227378564416
0.537538948569542
0.526201641524339
0.529139958136076
0.511293446427564
0.510950199097175
0.51813535836363
0.505033364755404
0.502233073610652
0.502577221599608
0.495780743262153
0.489583114825967
0.4980766370692
0.486056456824452
0.495580160645434
0.48650222442479
0.493084515311327
0.490506840479253
0.495682124237024
0.498502113712282
0.499731352422576
0.504850565978618
0.509097134195218
0.515242501838752
0.508913048525857
0.520812991960513
0.516166256064758
0.52616579841508
0.525046775601975
0.528629618932576
0.531514246278967
0.540545334752692
0.530936014129987
0.530679817928776
0.521877804881122
0.534782999690165
0.528451999513769
0.533918615522691
0.535888259333742
0.555021619009344
0.537903007528678
0.554486168225366
0.556471486637249
0.549295221729396
0.570820945207843
0.582898434558858
0.582286647467828
0.594924140886247
0.615944740786302
0.63011484540648
0.634654143426104
0.663871119940008
0.66879188821133
0.692517286762032
0.697689505498523
0.709838945748005
0.704459209444543
0.703284249315299
0.699915880352682
0.70007006985465
0.672404393521712
0.659672596796013
0.654664516180922
0.670084268632084
0.642664609835281
0.627909415034717
0.629537638020906
0.637752982608542
0.634138230659889
0.63753940835075
0.610712543527742
0.640015755115254
0.638966225900927
0.636022513254402
0.63045054720635
0.645326670267175
0.638505758718706
0.638192525938044
0.614149984422313
0.613718372890669
0.583170138180536
0.606596634549277
0.582246864968908
0.60051930304434
0.578168833522491
0.599510452483851
0.562337267065769
0.571011084680175
0.574104358588826
0.575946620198606
0.55383300758407
0.559431545233179
0.549288331635967
0.53531101597966
0.545125618162882
0.540174332813257
0.542577435060334
0.537561342414846
0.542905431146718
0.539135188459731
0.543240667090092
0.533959288366681
0.525066664657207
0.533729016949277
0.517192717197843
0.51708943480107
0.510486177746571
0.514627017458597
0.504951714258165
0.513653166286973
0.500607530457935
0.498516756298764
0.496274615766633
0.492069826054777
0.481704142460288
0.487181208794159
0.486690472729653
0.477403793385404
0.482372698598362
0.485151551110714
0.483388472128213
0.4718472017844
0.472551150200187
0.470433652740403
0.468393616764512
0.48441994888512
0.473640983445489
0.485291484560764
0.476962509295033
0.483516799439562
0.469245353111115
0.489488945499861
0.480950526171477
0.48272069622529
0.45636857204447
0.485187782816173
0.477421091554347
0.484270529655223
0.474940041472464
0.474628514805985
0.488672835671528
0.50021922008066
0.49242574711737
0.509747493254625
0.509803131010361
0.51118271771023
0.513887409042813
0.510584761071103
0.520955255670049
0.536157665316829
0.509782360410092
0.534595573091958
0.557901949566854
0.54638257966107
0.554586048716872
0.564948089829526
0.577375042461766
0.582595930377371
0.582390752291446
0.635156177824285
0.622694172155517
0.638383760601624
0.63772014754234
0.679842632458224
0.693007593378142
0.688542600529138
0.718687172272536
0.777582579438453
0.732299975901931
0.771951995093069
0.775636778223539
0.820899717461155
0.819183396259824
0.841277808281807
0.836205771130816
0.813262655671149
0.803512458337286
0.811737543994453
0.736843750807568
0.811693424566248
0.783298644423151
0.850221219148853
0.834030755640232
0.789353518486915
0.77575381373994
0.829663224853889
0.753281081492396
0.853284221484024
0.758445086518064
0.820191809773231
0.757814909825513
0.835511013024314
0.731923945970087
0.779799230736358
0.787979648964361
0.804562699214324
0.730837756468099
0.797072727006747
0.741395083153467
0.72191423965221
0.751498164488581
0.739707873812859
0.732762385167737
0.800584715306119
0.697947320583248
0.78739833005597
0.708274812296029
0.703063975712955
0.688900731714915
0.721936489667402
0.664811955358763
0.735926828594518
0.706426554330621
0.751625666954756
0.737775130760742
0.735692752057729
0.67033427733861
0.737898616535677
0.627149169941588
0.722579213582203
0.769681548961287
0.645090616258234
0.800453904831453
0.782326847866423
0.684600196655105
0.798166282082737
0.711983965871134
0.769666154022628
0.770462490799777
0.746472713631111
0.733695887181562
0.833034828887688
0.758148254019427
0.829253231777983
0.807921773525051
0.769187303278577
0.822709786467234
0.693053676778415
0.760834828718503
0.747381689598633
0.868518223110883
0.860078277367472
0.780799686016105
0.849632884161152
0.836145277787219
0.834575053765555
0.729829565297581
0.818939476009189
0.71974055219085
0.977665970305029
0.893269448513972
0.900769067438121
0.737755441755814
1.03174234380815
0.939913191509203
1.20769302830675
1.05635525728746
1.10708536881107
0.931564567439966
1.32270716675005
0.857056167325717
1.3353646656912
0.80675864501966
1.00242525550736
1.03089009311731
1.161131784388
0.964415787944593
0.969183538813712
0.899079613339512
1.28271716399238
1.03900499548445
1.01189033127987
0.800625798605472
1.05486554269923
0.780307663258621
1.08644677443785
0.827625231964153
0.781842609458168
0.925643072788205
0.891541835541144
0.761205480446063
1.04843646661944
1.05899173874833
1.1251339515018
0.94468291352557
1.04757035085462
0.777227226496208
1.24319302892109
0.835845291559995
0.99391558663379
1.13581538711598
0.894281376432704
0.738243441978429
1.19680219255517
0.725308862440483
1.24077770562206
1.56625506968389
0.467669187027478
1.11300285990061
0.805023074387793
1.06582957199002
1.13660909288666
0.851305404846449
0.986102855898002
0.896229321712999
0.784130914273773
0.845887604217898
0.905376496396581
1.00753218289726
1.00540705687026
0.509764129176296
1.02598111701404
1.3954375443219
1.78836719434371
0.650388033669551
0.848423852215558
0.721415589453966
