3596
4000.36533379555
650.420452594757
1
2
2
0.0257058633398809
0.035047588675436
0.0223085063970054
0.0245137557138892
0.0184438993829146
0.0255728826241656
0.022991826499319
0.0299731304699682
0.0175132372864406
0.0364472228654858
0.0168112154435772
0.0258007298350168
0.0304612361698538
0.0323268959914103
0.0176035659569413
0.0292627483583345
0.0152499017704358
0.0244838711441604
0.0222444748660584
0.0229995873269686
0.0258255891486555
0.0283414200447921
0.0210444005126035
0.0274431036101117
0.0320832585681443
0.0210230252275554
0.0202443182731492
0.0387469759969823
0.0256991318761884
0.0297080634814053
0.0219557738825786
0.0326669391624342
0.024272633919015
0.0272252202101499
0.0308325611056079
0.0252193870885701
0.0157325342480095
0.0288336862047791
0.0213210169154821
0.0331378819705274
0.0269366668921037
0.0270610140700393
0.0188106724661742
0.0315887779324185
0.0240680604805534
0.0284217545840253
0.0294625420913851
0.0265402465032835
0.0206722549600307
0.031785963322859
0.0249440670085185
0.0266434050946664
0.0128944699062871
0.0358188034971179
0.016783574364417
0.0133701252152475
0.0162373070266114
0.0253589549485078
0.013523222893624
0.0283805366169774
0.0207691915723077
0.0359322914479839
0.0238815493400806
0.0249001276021136
0.029916038426775
0.0250889379147979
0.0173057337964612
0.0250384894078819
0.0275215911557194
0.0194458097698788
0.0221315318182016
0.0208680801623195
0.0161837625864509
0.0227782154740412
0.0235302929225304
0.0237176767733507
0.025124309485836
0.0338022172935617
0.0168938772658605
0.028238930997624
0.0320102681620243
0.0196234770184418
0.0261959379017827
0.0289661700116085
0.025695865109893
0.0185061469295451
0.0121243930286259
0.0184027893409155
0.0241461936560981
0.0219563908965148
0.0310350739852466
0.0229732022679522
0.0275062002047104
0.0187602229639416
0.0249575360292557
0.0215896844189032
0.0302370821640573
0.0157682398251048
0.028152313744382
0.0130048664875216
0.0344256727838235
0.031898509043172
0.0226838788847259
0.0237391749660588
0.0036277407050879
0.033675318201724
0.00191967408310654
0.0248301103081464
0.0187830492457172
0.0157043157802918
0.0234002898567995
0.0227903697837129
0.0218201696115557
0.0173306058863574
0.0194474504288479
0.0206316671454354
0.0323237856156689
0.0234956799079111
0.023293010753488
0.0209186953875813
0.0281220884128027
0.00148776409142128
0.0302741161849714
0.0268959741878972
0.0242146857615424
0.0204954019555631
0.0183412197167012
0.0089598973908021
0.0149001780650764
0.0271006636528384
0.0244742811936589
0.0233134819236887
0.0119203012293815
0.0306098488858829
0.011254249422772
0.026869660919683
0.0135922944106539
0.0178297363869129
0.0232494163308385
0.023229794868005
0.0251238707437724
0.0201261426960029
0.0162696101412738
0.0241444863665795
0.0138083923187149
0.0218201476718419
0.0172885986229342
0.0131478850018684
0.0161848166047761
0.0216296704592738
0.015110718804766
0.0188550618849957
0.0172314060544861
0.0208377573361297
0.0201369590059432
0.0120888650063306
0.0271167468150877
0.0287029261456803
0.0155241821640993
0.0316900841648129
0.00480493200733129
0.0242603190073622
0.0113666077962358
0.0196395888090897
0.0179546285705324
0.0262873338167508
0.025373649125502
0.0218050465080946
0.0184783339676218
0.0242967528647072
0.0171187377920118
0.0169390531568207
0.0191676162666576
0.0112046701211661
0.0356710516609471
0.0144450363607885
0.0176646588439475
0.0246543821059443
0.0247786182582388
0.0247188942942108
0.0121919141266447
0.0253864820775748
0.00983451632130386
0.0203842372605347
0.0216349734527566
0.0129781342122311
0.0192105950552836
0.0216425352107874
0.0180616512104651
0.0200397902609946
0.0115018321257966
0.038579321960989
0.0311698564695833
0.0305810989351782
0.0125915832511583
0.0315363406583174
0.000701408887365032
0.0211845454511103
0.0177652641854775
0.0157813392569518
0.0108195674418076
0.0184349902403583
0.0273498547759311
0.0237137534091474
0.015489171335735
0.0204833329749691
0.0133194893187005
0.0335744171690509
0.0161868132161173
0.0251199023670295
0.0161124270445875
0.0258054328378844
0.0165740183114604
0.0210212150320848
0.0247774382939946
0.0149995080080045
0.0271630612555907
0.0279645740982467
0.0195164320662806
0.0237063529847182
0.0226642466875718
0.0230506626679434
0.0236638891944743
0.0202810926786125
0.0159693746840062
0.023199092668614
0.0131935000734337
0.0221198711366322
0.0175212218064639
0.0315932686349886
0.0259546882027387
0.0131593403574675
0.0201240815306171
0.0185541745675633
0.0182297982939815
0.0212844268570207
0.0300524504180834
0.0316731016798661
0.0174081456200923
0.0247051977059515
0.011406518039578
0.019526390945629
0.0162467087666087
0.0263797731922077
0.00631276204201208
0.0326794962266516
0.00533065906052277
0.0278357262300122
0.0232101674848935
0.028924881863923
0.0132017753008459
0.0300563736733587
0.0182832753511604
0.0219476997631655
0.017798971924603
0.0254671869533813
0.031206551709984
0.0277150674046304
0.0153423215310236
0.0222905671596334
0.0240281913203988
0.0245921235466561
0.0236343470368188
0.0209448442469483
0.0355280513101102
0.0316198435702927
0.0215940095252766
0.0137658387609493
0.0354621867027484
0.0243328870506637
0.0218727566734182
0.0184439639981616
0.0218523299814519
0.0341207965521851
0.0345570215143305
0.0227788488916659
0.0250894502718011
0.0215290344502776
0.0345816968660635
0.0217202016208215
0.0327857715425358
0.0275616569636696
0.0223740829366308
0.0423557983703199
-0.00112585254562464
0.0289926967480147
0.0212381722800176
0.0341109999155494
0.0216095485054211
0.0282418812401149
0.0286385303915209
0.0171955903285734
0.021391861898331
0.0245235214900103
0.0287409493722736
0.0241485569346251
0.0264630136302619
0.032856975091905
0.0353697012705043
0.0231311098062152
0.0353866770517135
0.0150976206423432
0.0306211753336885
0.0319668024066594
0.0310437513696169
0.0277464623766617
0.0242587869268571
0.0296935410324006
0.0311347645096597
0.0300103347203463
0.0428924077281891
0.0319750278329981
0.0367063240761496
0.0258673419631549
0.0303973393578487
0.0319395897301257
0.0393150112157394
0.0299419520380741
0.0343632732767271
0.0187532178421888
0.0317933846155273
0.0323020158558082
0.0290739417884822
0.0316003214012167
0.0357318704737506
0.0280754708858816
0.0336345953736756
0.034684532950587
0.032298501669174
0.028490425954815
0.0440753182481815
0.0308462961855895
0.0277556399037779
0.0410635285227023
0.0345075566598486
0.0412371152601147
0.0391876955339383
0.0371215436263768
0.0301610433600663
0.0398685650959206
0.0409414723790611
0.0447898495514494
0.0416622841366405
0.0420971246587019
0.0385786889896642
0.0462854041181681
0.0526660455577671
0.066024456158236
0.0382902793120723
0.0576033724967899
0.0408613050468507
0.0377692995771756
0.0527633822404145
0.0413985504611407
0.0682526997224372
0.0537051897911905
0.0580886696585318
0.0448876572145619
0.0562845170602067
0.0512082359424469
0.0543394296754016
0.052864578161855
0.0626877810063906
0.054610835334695
0.0619590341878948
0.0660533952160727
0.0565497387801207
0.0555330689526662
0.0669864992315009
0.0672582509633356
0.0722039718816774
0.0683433803931248
0.0810807080907933
0.0716049278501647
0.0710446226912914
0.0922728111088539
0.0613263869551151
0.0860740051939412
0.0714278248226661
0.0838103663229761
0.0845652372415413
0.0862059063119757
0.0888424291994905
0.0916306145255802
0.0891231708407188
0.0978845700366415
0.0953414410323993
0.0948243490231435
0.0961375642962203
0.105103222338788
0.0969675170594558
0.109076631122543
0.103228037858764
0.098451441259892
0.120750071526404
0.103449191263795
0.132671501522589
0.0991398853488396
0.130193280903298
0.116648378592998
0.124542785681955
0.118264063653568
0.143211661626687
0.114271916680945
0.136052474714482
0.127042303369347
0.146474834522432
0.147248003219117
0.137313200346898
0.150207211660103
0.139819934163297
0.14710950731475
0.155878058989886
0.142535848047801
0.168111670366471
0.144135171281174
0.166465550910037
0.158626270171355
0.197025166995444
0.164879766627462
0.17899699457223
0.164674292083512
0.181146056373165
0.171013665248168
0.184984995714255
0.175497695612786
0.192516132163645
0.191089638237168
0.189691883293589
0.201173919153754
0.213908747649039
0.201662530430491
0.198374318271032
0.21762311110997
0.213154018540303
0.213545063523702
0.218793661145677
0.218119127896121
0.249127863184241
0.215023951446434
0.225437970039818
0.239654702856763
0.250424579362089
0.225548696887799
0.255844256312673
0.249454195030245
0.262918061949476
0.24995092370822
0.267115154446092
0.260992295554671
0.288903620807775
0.267018817527618
0.273534167497707
0.28718625867096
0.29409102441467
0.275511281975064
0.295636571201095
0.284901090992025
0.292022470974307
0.291132652110247
0.337658727523344
0.32593528939294
0.369738583188321
0.314113432962402
0.384493025077374
0.318415806029425
0.338115920380039
0.330830167429691
0.362824720224026
0.336450681011755
0.368430683646752
0.329053724241995
0.368493074650347
0.364519739574804
0.362600087470869
0.376318633909658
0.392690202523488
0.375796886906815
0.409330814935956
0.380361591766922
0.419766474015041
0.376469977864517
0.410254547683118
0.392199252551457
0.426027035332068
0.417701472452965
0.445123393907487
0.413442729053588
0.440550279805375
0.431075613855606
0.437640752073027
0.45185809698459
0.463988531286876
0.458086730828854
0.447975573564448
0.46320563729183
0.464412277791009
0.467918372336495
0.510815838037519
0.502201648224046
0.533978855425666
0.483990064942959
0.509332275116197
0.481756963355635
0.544884839692018
0.497154237291337
0.547915583918154
0.521399799599748
0.558858348573876
0.527758562909487
0.562326897762847
0.510135302857267
0.562351557306878
0.549131733183457
0.61991081349791
0.553066148067975
0.569044100100615
0.587051808087737
0.636185199275422
0.570426218878527
0.614165630004369
0.599338018732818
0.654760755832292
0.603553756358294
0.616903826931981
0.608643720119707
0.673233252591376
0.622414989733451
0.627800789083547
0.639739476436386
0.702622127236961
0.639147267034556
0.714122607034437
0.65383751761374
0.700740341881077
0.646421898973435
0.717035763405877
0.68053191289604
0.741663764612087
0.667460568157124
0.751665483282198
0.717681351763174
0.770636877379556
0.707712320335824
0.789177899734459
0.726755498179068
0.736975786836646
0.742394055385289
0.761994436287094
0.720130397053805
0.818330666796508
0.735089457680073
0.76914022014199
0.763729055868408
0.827561161322355
0.75845498784914
0.869137587252306
0.762692223145238
0.803626924242673
0.790827347950989
0.846812654090123
0.774040226820697
0.816814663099806
0.845435084129608
0.86965464254929
0.7899511274837
0.870949732906801
0.834240946143736
0.911859509873888
0.871042427986578
0.943062281074926
0.882402903811818
0.925676470510417
0.875210884252452
0.99685198273739
0.891386887323732
0.995716196883878
0.865601539231276
0.892609283505262
0.938395735469852
0.970437697951283
0.876602429078012
1.05908569435227
0.950722537433463
0.974690610228053
0.913175270165025
0.981594369171055
0.920174870847098
1.01444943070408
0.949359813882222
0.987411282559272
0.953709421895788
1.13804958819418
0.989895521370034
1.00537915786382
0.95016737478393
1.01625597775394
0.967268791022156
1.09548751539204
1.0201652576457
1.08869802916097
0.990285455928751
1.05709738160105
1.01643524979506
1.11453444641393
0.970984848920051
1.110224166317
1.06536075443211
1.21664414467914
1.01088699146431
1.11607804740823
1.05412855861435
1.18601195392271
1.06447110522654
1.15253820775165
1.11006472331219
1.18040555920789
1.07315601524856
1.23363109510587
1.16560291443977
1.2423738737927
1.14282139326624
1.27907016177863
1.05972252509511
1.18018483427187
1.06464626473061
1.13264416857958
1.08776110792867
1.23375668542933
1.19195351914573
1.24567043350525
1.14195915248172
1.24802094707591
1.07221265633505
1.2569754195476
1.05854546751948
1.29723465849454
1.17020482917777
1.18941451149463
1.16503797093289
1.20991278673638
1.11252888448324
1.30201005311972
1.28784921362958
1.50776145760738
1.15360011852082
1.34058030907206
1.181488839042
1.34243855830255
1.25581314102455
1.35284164587919
1.21445181695604
1.36741244521426
1.32987752092765
1.33269925590197
1.26705727804289
1.47120157694869
1.3025063623394
1.46456885024702
1.20493535566132
1.19176082466665
1.28312045940966
1.5629775783167
1.22578403014821
1.47748958870385
1.32026412093229
1.52708779533465
1.27924762985043
1.30156003750774
1.33952045383527
1.30304608348207
1.24105841259759
1.34708809532594
1.25819858796102
1.43269906032794
1.2230650850765
1.4170545860148
1.27264581448494
1.38369423903095
1.30050716959436
1.41126689473098
1.32752531050681
1.54732654790003
1.29806312468903
1.4857924170087
1.56518195877599
1.43242910857017
1.29767708117055
1.54556305325383
1.37519798922898
1.52542390538732
1.35864091509478
1.36946897335111
1.37060727656889
1.4112599741791
1.37045219505553
1.50985195903267
1.38030312852882
1.44610510894968
1.40135996155983
1.38556196476336
1.3149882190978
1.40198569810311
1.3311413919978
1.41268661965195
1.52401848885902
1.44858428877311
1.28751697918255
1.4492507964495
1.30620769566908
1.34870884336612
1.39390217038933
1.49172324803502
1.37953703384369
1.4238152532195
1.41502041306948
1.44688686656273
1.40597782418668
1.56180464630964
1.356683363247
1.47416285136189
1.44894542690077
1.35970861837808
1.39216342824911
1.5147806033616
1.38052738430007
1.3720929996863
1.29498820306487
1.4421632423168
1.38798037953001
1.50210872091572
1.53044322250198
1.56983965562444
1.38744827629848
1.35408920187852
1.4548224592363
1.52717646645239
1.44412992284612
1.39693550223839
1.47065679471955
1.59153223166973
1.40790050262858
1.40347048762313
1.29920177660599
1.38489651432531
1.39630733972861
1.47419721391188
1.32025285415484
1.49529438405068
1.41398954794626
1.34054655787229
1.34863590455905
1.37939007614308
1.31275119177459
1.42233396166576
1.44278348276178
1.47585968298829
1.37400253384181
1.36528061267406
1.36294733002955
1.44979205283997
1.36608843474519
1.48819969450242
1.49892045872272
1.44057778628456
1.36493802584617
1.47466682407528
1.48757405825773
1.38847303134543
1.34072474130771
1.48705819499569
1.36144788578183
1.36020685442332
1.35906259510015
1.34339317516132
1.35631054619974
1.40559029556283
1.33724611898536
1.55803524449012
1.40025301722532
1.3543403697791
1.35069248215698
1.34722510552139
1.33211201137576
1.42866942137146
1.31852988237832
1.43093853219664
1.39403550329822
1.45208249670748
1.42812787212028
1.34487998182703
1.36508760162828
1.42313595294578
1.23848350235676
1.30307025467228
1.3735084585923
1.34335688138863
1.33209497491119
1.27506322876107
1.25269407243264
1.43200792485125
1.29880945731305
1.27086614257322
1.2382871119154
1.34274175060834
1.30629222461017
1.27637283039382
1.29501504060961
1.29994924335326
1.27713976373188
1.29737195534732
1.40572590607838
1.39274718902269
1.18052833656423
1.27728760187666
1.34390915684884
1.25917558339341
1.25696169070536
1.32601540400168
1.26169840687122
1.24055293858012
1.30607644940364
1.3328456254247
1.25416532096203
1.3300774517063
1.21697601374089
1.21921858998837
1.21621067893597
1.24219395934882
1.22482403759604
1.21551375376319
1.22174037712177
1.22578653703047
1.19462909168804
1.19409581257588
1.23240779875511
1.24061097468574
1.20166026437427
1.16599344383798
1.15936144513602
1.25911281499359
1.19538732607421
1.09825815377346
1.14473556430707
1.18982135160286
1.17045743297645
1.15669720795214
1.22727616862472
1.26565035535036
1.12229010210163
1.1452653833124
1.11801872726311
1.12414370463049
1.1584282511399
1.22685369825742
1.19250302213131
1.15593327793293
1.18127156751932
1.06870537387376
1.0902521834212
1.16484724318711
1.09875560473465
1.10650182885375
1.10208142999594
1.13644618905598
1.13116302610661
1.05884735011782
1.05896533499428
1.06938151858356
1.08595600937749
1.08524181077297
1.06445924859411
1.08791190226866
1.07875567876878
1.04517159638119
1.06211010970446
1.05834775464132
1.04241101850548
1.00957076550667
1.03339276165174
1.05719434665762
1.01222757639655
1.001828483827
0.993847618517008
1.00047347625342
0.991874691709524
1.00432538156174
0.992581173378566
0.952835946940406
0.99291130519007
1.01055783889826
0.965584868765017
0.946797895885806
0.949731250242567
0.962764134765608
0.980133838401892
0.97968886489286
0.958197855304553
0.948253341814117
0.973245072112641
0.966250938794399
0.949947992740246
0.901100965661212
0.879628883915382
0.92637002140567
0.928007473540457
0.93162444592619
0.942213218976821
0.89931977275696
0.877476991803558
0.873198968826513
0.878211614964873
0.877603056432483
0.866314167098985
0.883217721259146
0.886625407050691
0.856080469190825
0.852184090343588
0.882641076650755
0.851829871054072
0.838045728676927
0.840550085547103
0.819359297600239
0.822182754858599
0.81694749476086
0.829948608455886
0.822111472531719
0.811702023837733
0.82612814413422
0.809010195764685
0.804724635092395
0.834328998359226
0.843688850736227
0.771226362375113
0.767355965923753
0.79287626982738
0.797581577019067
0.782079148207742
0.752139588585097
0.768104820263265
0.75235745866269
0.764150901605796
0.749744076910603
0.742985269425992
0.735745556890375
0.728005121107264
0.742851039281363
0.731459942701606
0.72165002965184
0.737836704272338
0.727653235518697
0.719808382132937
0.711545900758885
0.703047903161192
0.713794634570938
0.692409043706723
0.693666964818069
0.699173118114483
0.674660988417705
0.692058868829802
0.696182960657897
0.691655213050048
0.683343031820211
0.687977798602722
0.678479218299656
0.667859302010191
0.678128606381495
0.683028282442915
0.658846188475517
0.651740228268523
0.659199000194859
0.664513097472043
0.644829287486135
0.637840136951341
0.639441572161604
0.625585196851903
0.629491539226335
0.63493160777238
0.622161812927579
0.634876256449113
0.629785543562732
0.632087995418937
0.63059285144863
0.619868575637922
0.610306794232487
0.626706795203088
0.624738153960171
0.625438862350623
0.602370263604324
0.597480566777759
0.605079249370903
0.590477394778187
0.588371540445437
0.584391791567405
0.585119059265507
0.580183524421239
0.562945811248776
0.573807067562872
0.560639505163712
0.559799411794165
0.565513503677117
0.554121039979926
0.56664289015772
0.568638849040906
0.546104080319422
0.554863569848558
0.546779474087319
0.538501448839022
0.541099610354937
0.551609761508063
0.536510913320811
0.550419397304796
0.532888130236587
0.536951643544439
0.540742049107606
0.526661325118378
0.533337117003016
0.522123572899516
0.514285172713747
0.517956691455154
0.510922622008816
0.514574300030493
0.513908089403174
0.507809031598036
0.504734130013666
0.491010287100214
0.488814479588372
0.496285069226993
0.495107375588499
0.498522221865532
0.48108591339232
0.492204340661725
0.491891543712882
0.479399011467881
0.477552990293454
0.477076492018627
0.476641603560822
0.479481832017862
0.469885666280956
0.474927725148402
0.482064921788148
0.473445604190406
0.464080540523965
0.468114270675829
0.450453663067046
0.467810752443567
0.452583673888899
0.455956530985926
0.448750816136466
0.437002394034771
0.439698178796397
0.445243715590028
0.435788802843412
0.438832228193631
0.440189769179689
0.443447007107823
0.430400447133942
0.441184564627591
0.438899069444926
0.427972737102017
0.42808121385547
0.440183931780244
0.422224787660776
0.420751770624625
0.415475075758666
0.414663888444314
0.414845642689316
0.419329708871983
0.419754683349959
0.418314481102814
0.412039406399103
0.419850351715558
0.416294312002924
0.41437880472834
0.411639078828678
0.412528929236113
0.412784816721322
0.408249552379957
0.408301842712243
0.408702299486119
0.412180038984638
0.422078648195218
0.406056477784922
0.413243515909426
0.412326455911905
0.411224263758611
0.413950173770819
0.41677551678733
0.419388068899356
0.42922314349975
0.421691453267146
0.415745142304385
0.425018032477312
0.432384508686938
0.429726904773186
0.433943051190412
0.432877637979908
0.441601642974719
0.43923412783012
0.441258010178417
0.441524350240014
0.463894720455944
0.440834947842161
0.449276278364559
0.449258478364198
0.455027280355318
0.458634927976045
0.460926181153892
0.456930398153395
0.472849700094156
0.474986560141966
0.472266367263777
0.458520508222709
0.46802238920014
0.462398765385642
0.480976976188031
0.479553716616779
0.486218247421405
0.480685008475469
0.49859080700886
0.486330539955535
0.498320169134882
0.504226543467133
0.506247855621518
0.501953368129497
0.507021589729966
0.499603991797363
0.525631914215633
0.512151407677638
0.521121595904267
0.515691245723746
0.525301695475953
0.514828097475787
0.516181448974038
0.538009431492878
0.550054721229632
0.545333910921037
0.551230468157735
0.550759071838281
0.565584694216402
0.554004411535051
0.560957362101977
0.57044975636782
0.569822646390997
0.572218131043347
0.594456058834754
0.563772375638056
0.586851376828562
0.56354031861189
0.571007082125874
0.582254966332504
0.58354847383063
0.580389428133877
0.591840708122781
0.590926305265077
0.583804008475002
0.573602851591049
0.587118804886116
0.576602027119367
0.586277507503902
0.574611879620537
0.591676236006892
0.572474349838308
0.580573340742352
0.576771551551087
0.602601447453528
0.56773785187981
0.57527195005712
0.569518340378668
0.585711229346234
0.567449805178877
0.572403517273364
0.563738003500143
0.586653911053069
0.584428850644369
0.575793410113851
0.563357721038335
0.581759162805579
0.575318564089506
0.588204419294107
0.576449986476204
0.582251725124044
0.564178845288828
0.569979634293445
0.564548777650698
0.577712895296524
0.567842576790725
0.570390326283183
0.570873032327053
0.593578094958498
0.579400295839698
0.582377494772038
0.581068975782046
0.592761363413689
0.571518518511104
0.584990129356771
0.58217865604015
0.578207626712483
0.574362484536095
0.584903191924905
0.562402501692688
0.57916195292877
0.563353911045045
0.574463223519074
0.555904573999435
0.565570391223456
0.56265493735012
0.565600585572784
0.56350109932325
0.55998506292887
0.542236940086478
0.563571028112771
0.549053510106051
0.553339173764316
0.534555121735541
0.552941342287009
0.528459809752302
0.537434293311361
0.52631708335451
0.526652494741844
0.520963740878028
0.516131133511608
0.514651692910568
0.517646080770194
0.509367251302618
0.496935268510799
0.487942646382384
0.500327698085657
0.48712296184338
0.489687499800332
0.480230396060392
0.491713174318132
0.466318181438579
0.469019105475217
0.467307612738497
0.470311145573678
0.461192294064794
0.460738279140266
0.441390651987415
0.444472575852047
0.440937904738969
0.444377275544872
0.433834768382766
0.445089739847919
0.429836829239532
0.42782347653889
0.422667442050928
0.427740084137912
0.411311993050951
0.42162796390404
0.418720735987504
0.412249997354027
0.405166553630249
0.419714385509341
0.405841036997109
0.415268370951861
0.408362997835018
0.403122136984373
0.395362592931833
0.394237258479855
0.385162238873497
0.39853786107456
0.395856744695908
0.391027403664804
0.384432204144163
0.387199634733245
0.380785033251031
0.387764613677715
0.38064771351398
0.380838449173342
0.370051784774568
0.375472942397158
0.371850549691415
0.369221278055074
0.372131554301907
0.374216272528972
0.36118687398629
0.363922698094067
0.355967993459191
0.370715676588292
0.368348547207504
0.367005381604479
0.353903350733504
0.360448718567432
0.350029739168482
0.3634760361554
0.343284061470452
0.353746186895367
0.354067085845771
0.345373853350019
0.342016471658645
0.346675831806263
0.342643499484469
0.345403362662726
0.341661830920037
0.351109120753734
0.343356550960657
0.341385195646903
0.335768491523226
0.340651599118075
0.33175628176143
0.33395466012425
0.33601906091981
0.329959407872858
0.326687805000687
0.323207425551579
0.326917018499303
0.332773280745261
0.327432559893428
0.328542170448402
0.325909661852756
0.33183555702387
0.323213513587678
0.318821961796534
0.31082634485981
0.329675841959459
0.319890663572618
0.320172081877238
0.321568231659255
0.320301551877946
0.311677482917893
0.31476221087726
0.318168719395717
0.316415213753197
0.305941900739471
0.318704037968105
0.31183192042109
0.30575574366909
0.309701194117511
0.31257975521194
0.306744319309511
0.310185287820408
0.301970230606819
0.315606804198852
0.296708488909386
0.306206325817555
0.307701716180311
0.312195672164421
0.297949072906015
0.303879663656386
0.29560703645634
0.302871260948039
0.294813752864884
0.304584984339457
0.293483637721062
0.303624433059682
0.303977926115205
0.30111120987439
0.294060612937147
0.300458206477548
0.295179523548295
0.292628811970201
0.29037946104227
0.295540349059139
0.292643503084581
0.296137024712272
0.294773518629201
0.293031612639063
0.289881266231569
0.293886511784024
0.288034587814938
0.290098705103831
0.29077822979951
0.283319624666144
0.288955003113257
0.293233200717777
0.284188337430895
0.294425845584555
0.282438675010307
0.288481517285745
0.283606235498551
0.292861290519544
0.28674911750241
0.286307827818312
0.279168507136763
0.287188851641033
0.278703952520228
0.287343383177774
0.282150160843054
0.286583365660296
0.279388012333269
0.278036983118751
0.276180742859228
0.278974460325663
0.272187909296915
0.279286012139386
0.272226654600226
0.28241701389391
0.272718248473082
0.280908094310404
0.267590625707882
0.27282132347345
0.266758599809808
0.277093945052104
0.279101426141787
0.275822641792473
0.272032871088403
0.27249519609486
0.271784198853627
0.269948451559239
0.263640442472764
0.269692348831651
0.26005820336316
0.270261291239393
0.265555594691986
0.264777494896187
0.266687890372676
0.260437154865777
0.255689831360035
0.265183882908599
0.258706163136928
0.261300679990065
0.257197783277184
0.261246198877322
0.257627429714531
0.254659138357826
0.257488714652682
0.254056708984871
0.249611226987435
0.255870720045979
0.253104289701746
0.250625952139223
0.251562187572477
0.254731140067246
0.254696277990203
0.248857575517362
0.241416832715779
0.246653100125908
0.24817329992185
0.244756053734923
0.246074157766275
0.243713242412778
0.244397197405322
0.249636758548866
0.24202422750693
0.239401733978564
0.234320250754062
0.241922662108679
0.237816629648159
0.241682564401008
0.232812996580457
0.237676668927064
0.230019251916036
0.235823972988324
0.229322199609392
0.236196253338142
0.232789797761477
0.23068385281242
0.228003561771552
0.228555445764881
0.224268014320689
0.227792290502532
0.226939327314519
0.228949017211349
0.219458248598242
0.219742767772295
0.215975488414009
0.218276618811149
0.218889116578832
0.220245376038628
0.21519560119777
0.215891811842747
0.212397329633578
0.217175129860206
0.213669710444463
0.218048977879304
0.215939476084776
0.215869332418098
0.205802672965907
0.212087099831594
0.206033682906128
0.206406130266381
0.201089903606602
0.208791875682565
0.203089100053624
0.209888820637336
0.203507950394113
0.205396540024892
0.202187596941992
0.200758470996811
0.204997924384056
0.203227263810357
0.198236599257156
0.203537624087502
0.198317474046068
0.199849857888765
0.192151387949098
0.195852751190186
0.191803924064632
0.199461666846562
0.195797102065377
0.190064407097063
0.189728146212666
0.189778333439277
0.188106750293286
0.191130156571035
0.186879653255099
0.189174884311125
0.184714766370715
0.188440744915441
0.184625037489216
0.186103774956266
0.186242176130278
0.181341060281703
0.179551655060113
0.182299603660974
0.176862562514733
0.179517179512024
0.180142589615795
0.177515249047251
0.179957547756776
0.177507627082865
0.174914175900583
0.182953730906072
0.17986256213976
0.17562694410617
0.170752904646593
0.177145749522044
0.173042938622287
0.175379204354652
0.177872311087333
0.17356467431616
0.170226629982328
0.173701603355117
0.167606930868691
0.171698383484823
0.166458789945074
0.169828737234037
0.166347575918907
0.16853207793687
0.166168671502745
0.167866991314395
0.168846273417837
0.169863493715677
0.166930169839053
0.164977783170112
0.165943141979236
0.17106455357956
0.166245974066222
0.161652248010877
0.161189804400554
0.163894533925003
0.163165246878479
0.164008901278114
0.163683090898893
0.166625099665122
0.157179624745187
0.160546891050574
0.160391132550499
0.162145668649723
0.157881985305678
0.161574388842538
0.161006763160086
0.160962843560115
0.152765428373231
0.155402675891897
0.154239491392373
0.158071780274029
0.153021585662835
0.154775149954986
0.158114691393886
0.159392256662877
0.152176945289525
0.160342986016151
0.155835421920734
0.155733088665437
0.153647736798125
0.15076336013752
0.152895918822609
0.152154454589988
0.144783784473
0.151592641230298
0.150839251763383
0.150071090922797
0.147961849545102
0.152460450534754
0.146374666757313
0.150282714364157
0.149930067721794
0.150475074011691
0.144975813323616
0.150182712793127
0.146774789272676
0.149635904135126
0.148081145487317
0.146286411864727
0.144514549358633
0.145260761179079
0.144929436675916
0.147220517534189
0.147071144674962
0.144608030804285
0.141267255318418
0.144285636602881
0.143038650445674
0.143985322864215
0.14266317347123
0.141337192405906
0.139469154248403
0.136369539326295
0.139926361222479
0.14259613447597
0.136752619682771
0.139583347187979
0.140301047285992
0.141225098547911
0.136083697354867
0.140294192499189
0.134437321565814
0.13810398062927
0.1368897467505
0.140073402541019
0.136124384310667
0.138327290100395
0.132603868940952
0.135283209496952
0.134275727194939
0.13571200044073
0.135506101137225
0.132068041266493
0.127705962693286
0.132292376568599
0.131606067774238
0.131416351215537
0.130656672288911
0.130865420210897
0.129394558642463
0.13050125063245
0.128172098235819
0.126917733924789
0.125511501734357
0.12820169075229
0.126934485135933
0.125841521441218
0.121916427447027
0.124742714351433
0.126013445439763
0.124834587483359
0.122343826680985
0.122941297709621
0.123322414591212
0.121589429440938
0.119826934952791
0.122335543970634
0.118350944045757
0.120391463644018
0.121148141150003
0.119240971045507
0.119596103145273
0.121209932880037
0.112210775331145
0.113980349335878
0.114029837733793
0.117397454156912
0.116408624337354
0.117220261856983
0.111931189546471
0.112892460926228
0.111842478331893
0.113943349058954
0.11004119748305
0.1117133213867
0.109912808488578
0.112204697573957
0.108504840081197
0.106923672761996
0.108047664084017
0.110379567737909
0.105970066213611
0.109631848905656
0.106900925005828
0.108933558672464
0.104466899951082
0.106910825991763
0.106127060736139
0.104825325216717
0.102950936262082
0.104570516663139
0.104194083727172
0.103069558420611
0.101862875648598
0.101635567242995
0.100433708852088
0.102811620262733
0.101871198274503
0.0979716599635654
0.0996224052703044
0.102446536447801
0.0984901889850768
0.101332373765489
0.0964375526838915
0.0988008725487791
0.0982879769750244
0.0959643814986487
0.092844493820272
0.0957391234808215
0.0953889221135429
0.0953473433441925
0.0918054213636421
0.0948831913151515
0.091062508185336
0.0918541975628415
0.0916972534228757
0.0917471184885755
0.0904360154750715
0.0934478485407782
0.0900114220706668
0.0888575022171274
0.0855870287573682
0.0896705990417125
0.0893437994078574
0.0884691655644664
0.0854513448453532
0.0922820373732759
0.0878212905496405
0.0879648097710477
0.0866786121938542
0.0908163812489011
0.0881984998999345
0.0877237213273588
0.083646856445322
0.0868927568451749
0.08451486907399
0.0839088414176231
0.0833492697460213
0.0868371077054572
0.0832449935533255
0.084590017145493
0.0831563090389207
0.0841019674338908
0.0823116725706853
0.086603219237499
0.083582777468197
0.0837123289543273
0.0807100708460591
0.0827271432428054
0.0834820022402012
0.0843471282434494
0.0747886894250485
0.0824832941232422
0.0835034396966489
0.0785980171518339
0.0734479849674206
0.0785687112737301
0.0747915947306763
0.0830919303737947
0.0787904805410167
0.0749153516745292
0.0703459821868526
0.0751414792303216
0.0706875987470894
0.0769357736720815
0.0696254161248935
0.0781971288557335
0.0725685222346597
0.0760562755460283
0.0710137149273301
0.0746623313261352
0.0692850508601076
0.0681874778595217
0.0685101632403104
0.0815567803944968
0.0664448442058289
0.0739637069153099
0.0669359924353344
0.073311962413661
0.0754850761059719
0.0715083903990343
0.0674998663661276
0.0759772294853027
0.0683234295309567
0.0751955983787148
0.068144682301829
0.0769998850490038
0.06741939745151
0.0738243866648135
0.0688549159355231
0.0803662293331481
0.0707484843025409
0.0764419955805368
0.0638141494984094
0.0725778634528488
0.066346912626312
0.0761278716796636
0.0638877155246956
0.0731094886452945
0.0595204438389899
0.0706085777992468
0.0638874648181059
0.0758392327006135
0.067658964137221
0.071199167953427
0.0613299225180381
0.0653212112205946
0.0645874615249485
0.0703381997147781
0.0671447416260975
0.0654061118363327
0.0704678426019433
0.062247547505535
0.0750760809572251
0.0592636177660722
0.0736919259977922
0.0595813144887171
0.0769459894297242
0.0527721972953861
0.0801712348492334
0.0524735345327547
0.0766415978116623
0.0592260545610542
0.0743971336548061
0.0601895617551554
0.072548067130152
0.0665078449670901
0.0705805495613437
0.0695394983105662
0.0658411295352424
0.0668512721544043
0.0670059887562307
0.0708926718508344
0.0676273956754826
0.0644514597607949
0.065447645236659
0.0648615771973306
0.0694742421071567
0.0637029760003245
0.0693730694844086
0.0658596550163651
0.0653028861579913
0.0656054192452681
0.0640344001549222
0.0632390457477178
0.0648983230002134
0.0649735105900305
0.0662188150298003
0.0637794162617191
0.067210913470766
0.069053726146249
0.0660465088974551
0.0644305701859214
0.0673034471039104
0.065801260175333
0.0641197318758469
0.0660169893987146
0.0671269815660447
0.0636466458343985
0.0669935421496927
0.0666866687897147
0.0651824702156478
0.0640679976811987
0.0665326570592596
0.0644622202267471
0.0670627451739945
0.0660040019240573
0.0676151774646393
0.0662203489010934
0.0637231842010415
0.064291666614463
0.0662222203058575
0.0645136917469773
0.0661994533358844
0.0646564958343465
0.0663722362251652
0.0650795134023115
0.0661306494998115
0.0643765532665581
0.0658552118018781
0.0665445196433691
0.0677000731104149
0.0668937733583584
0.0671357816006229
0.0663865627370653
0.0673738708849788
0.0663944666637265
0.0643490292479685
0.0641350589885345
0.0645094413580564
0.0622258172036401
0.0621719092350729
0.064917686920596
0.0633828657684975
0.0644669978434588
0.0636556948488469
0.0631459749315128
0.0640925389891666
0.0647217153867571
0.0677412259333009
0.0664654695724918
0.0654346587952733
0.0623318890423649
0.0626577040316339
0.0648188994701858
0.0652421154800499
0.0655362591648879
0.0607428670363611
0.06380682544406
0.0652446345705849
0.0633250425324853
0.0654771202543616
0.0634147179445312
0.064155088216045
0.0668067913048036
0.0661400914726353
0.0689779663391136
0.0652230189274763
0.0655865126423262
0.0649314418243873
0.0648055908396303
0.0664903158929482
0.0657789488104402
0.0668438011798808
0.0668265321656698
0.0656120966960926
0.0668056143946163
0.0653964317266694
0.0656225327519366
0.0675431090425472
0.0639981278306364
0.0652403940919178
0.0661223553004568
0.0663233595322373
0.0681083845212767
0.0669590578450528
0.0673725527055531
0.0655276364231336
0.0675984916724019
0.0663944648903172
0.0671269855390444
0.0662700505129513
0.0668686314618619
0.068316853681507
0.0688409704843608
0.067124311155967
0.0673874177184495
0.067644177415831
0.0657366602668476
0.0685225622345142
0.0694571985588932
0.0689441909995074
0.0686282937891372
0.0693182133519783
0.069265315041344
0.0675324891199908
0.0661139104576079
0.0694626435658335
0.0693275718368306
0.0699533011030451
0.0683673936375807
0.0645109337714993
0.0675828056392179
0.0689301433820466
0.0686822228248792
0.0695348339769485
0.067521181702179
0.0679922982946993
0.0691778736442787
0.0705597666917841
0.0689179316404963
0.0683098512444713
0.0679151120258147
0.069310460363034
0.0714280723659586
0.0691872291513359
0.0685139589721237
0.0667352099482329
0.0696338237607468
0.0716061137623497
0.0690482253094003
0.0713941345762931
0.0714850303736438
0.0691646361055461
0.0696474638119521
0.0685222715628832
0.070571626184409
0.0724637685838645
0.071503689500359
0.0705147647846789
0.0723012030352773
0.0713710279454195
0.0707828651796096
0.0711957034100959
0.0698729085020676
0.0695395662893982
0.0702939626185358
0.0697147532634302
0.0714890120293067
0.0705361771930178
0.0709531137015018
0.0697580399530654
0.0703218755994772
0.0700083685821524
0.0720682834286297
0.0730343123407282
0.0715965013849223
0.0702819687105568
0.0697151680224863
0.0713141518605545
0.0709366649156646
0.0679545715713023
0.0668910991612253
0.0715212143720034
0.0691496700721362
0.0676692131060108
0.0708970219285733
0.0688798921390662
0.0694315398069547
0.0682702716556182
0.0668472069755086
0.0671202885378397
0.0683086674160576
0.0701230862326568
0.0684095447050369
0.0679870721288211
0.071141459217881
0.0705707750230582
0.0667112582567836
0.0671207440653621
0.0681977614826486
0.0667711194467549
0.0652248165339386
0.0658281170080163
0.0666544640511513
0.0662999488663455
0.0671342580916919
0.0643568077942201
0.067179979939935
0.0679783960876926
0.0672388947272631
0.0653305824582475
0.0682525975756801
0.0677136499328014
0.0690285098693099
0.0650236249991768
0.0648471450230236
0.0680388632995035
0.0638387204344858
0.0639194649300127
0.0676939450761764
0.0668726439045362
0.0659078458032028
0.0641219863277478
0.0665933064741038
0.0643428686636792
0.0634045313192906
0.0663972481510912
0.0653768816898221
0.0654605308076123
0.0667563831274233
0.0654650550509706
0.0614387497963335
0.0660308229461316
0.0660261527845863
0.0637202011033281
0.0615857385148596
0.0660964763971667
0.0639494358431012
0.0617012765048977
0.062840986438138
0.066470011710878
0.0636087291946431
0.061829263565315
0.0635687191929161
0.0640518947673125
0.0625495583222945
0.0655718110786044
0.063058330100177
0.0646328996233723
0.0640525947628511
0.0618587473580811
0.0645161734549993
0.064622500445523
0.0657402435929613
0.0645749132995022
0.0631415100357971
0.0644555965579545
0.0634572860183095
0.0616641115292806
0.0640236596104944
0.0643646136839869
0.0645019310781782
0.0636144561591355
0.066663240586858
0.0643314460130585
0.0624583674335581
0.0626498751991097
0.0612514928206141
0.0649897137865822
0.0648112157424104
0.0611981975967528
0.0610011616865969
0.0655354698468867
0.0630278512687245
0.064057655208551
0.0608157915060427
0.0630671331487061
0.0647033279972811
0.0622995838605786
0.0618800972541247
0.0625990117233315
0.060502756872115
0.0630307419800843
0.0610017498746622
0.0627890858902155
0.0639325230358237
0.0601503318636274
0.0613717199717652
0.0594633440804963
0.0603191859205316
0.0588781919503719
0.0579025490715067
0.0623681202189227
0.0622449442163285
0.0601571129964498
0.0593407486509839
0.0579956474816575
0.0592761133279468
0.0591605193566914
0.0584793242023238
0.0576443098073572
0.0581379337480204
0.0599701572855723
0.0578773070202355
0.05798911783243
0.0588068439795956
0.0592939601267359
0.0565528475435186
0.0553874946970937
0.057484293203119
0.0569965777629169
0.0568007392360663
0.0571651261820426
0.0576403251629777
0.0571768885949345
0.0575980852068756
0.0582373941856479
0.0574015636441214
0.0551086602226505
0.0549747118950045
0.0555340167651347
0.0572938822016496
0.0536566685318792
0.0562169166189685
0.057171977227632
0.055165452705702
0.0511073458851533
0.0541371764470949
0.0538384475795359
0.0524933135078016
0.0510130836448309
0.0542534392483382
0.0534321802795941
0.0557753713946362
0.0520923411187973
0.050800970794228
0.054679593046534
0.0500427483730252
0.051892309393905
0.0530256493648582
0.0527675184938842
0.0533850283233417
0.0528478894000065
0.0511969604826798
0.0533563231872427
0.0515084742389544
0.0536540575665071
0.051979983948711
0.0498630280927332
0.0537972243637981
0.0519396795005777
0.0493886482437892
0.0486375479659196
0.050576457459661
0.0519820406893754
0.0526032627682808
0.0532515598134845
0.0507215267327419
0.0493025707854917
0.0512062431126675
0.0545835228843781
0.0492521494488554
0.0502281920873544
0.0486717815843362
0.0537808491720058
0.0498999329958263
0.0510999799229325
0.0512741021865655
0.0499894858450879
0.0502150400356467
0.0529617936168079
0.049294103087508
0.0471705499726766
0.0523157117021427
0.0512517666547738
0.0503140333791427
0.0479999798308715
0.0480313122743641
0.0495722656325061
0.0509838993069092
0.049200388972973
0.0495369486904874
0.0477115019121363
0.0500430496596029
0.0501030218589764
0.0512582674225738
0.0482219489720705
0.051232466126276
0.0491592355688426
0.0487676823160223
0.0483267824809822
0.0500688717315964
0.0457184771481976
0.0493505714727678
0.0457477950585747
0.0459014224250076
0.0476658215156785
0.0491824570158519
0.0484897585947955
0.0506169020431445
0.0496694225664373
0.0476052777254402
0.045069311083889
0.0472155648777672
0.0471041174822632
0.0458370545693458
0.0456006711006438
0.0476799172501348
0.0497794538801655
0.0466803496046502
0.0512336239770938
0.0488664825580349
0.0492033769256832
0.0467592742016952
0.0476770132390239
0.0500103509704117
0.0492811718269713
0.0520026229318395
0.0478035051385954
0.0462644154563877
0.0488529021761753
0.0458705611446022
0.046488913673277
0.0473292856996035
0.0511923831604903
0.0460631868811431
0.0491538702619693
0.0480224289955032
0.049737024183537
0.045663599038524
0.0486315666995131
0.0480816119764445
0.0462835006150465
0.0495996537243997
0.0488318954206217
0.0476812850901253
0.04854180527495
0.0442738818950721
0.0507003978974971
0.0486251771272922
0.0475373287142848
0.0474850172088294
0.0512553156618289
0.0479166364169376
0.0491666538985679
0.0472623144852284
0.0501244662812222
0.0451385199956355
0.0518731535462879
0.0457671558406358
0.0480779697623147
0.0475913762961811
0.048867992999041
0.048811484437387
0.0502121529529098
0.0463827245767615
0.0481815896952722
0.0479361058757463
0.0451795686888773
0.0483453765940163
0.0480528516928657
0.0480439147709699
0.0483848096687653
0.0489894578728786
0.0471938070882719
0.0478981720787393
0.0463462754549214
0.0473340476197401
0.0479556625737317
0.0473479566736974
0.0493888063123645
0.048866258911269
0.0504643664031964
0.0463582951276557
0.0490883507283418
0.0474472272643111
0.0507704998878019
0.0486845435420103
0.047368871945074
0.0471993507874963
0.0506320642182005
0.0477773757040172
0.0518173073506797
0.0461295287241057
0.048328432365922
0.0470734211168366
0.0482747086073266
0.0461798818032222
0.0507565294119187
0.0493161299725496
0.0479184183199046
0.0504379293877816
0.0460089565764387
0.0496038729695213
0.0475379488299256
0.0536868551864705
0.0490369283938513
0.0515208308344227
0.0502230315794868
0.0495756083723847
0.0487064746311951
0.052554155279482
0.0496426313612397
0.050136175154718
0.0523877532834568
0.0497257406286658
0.0492251988863162
0.0508918987987111
0.0507074810694902
0.0490428000012893
0.0527617602112161
0.0516895509386768
0.0525284104764039
0.0522788986784751
0.0516826214430276
0.0546519065134679
0.0497472243954814
0.0557792886765359
0.053444973845955
0.0506811566212668
0.0509088041052247
0.0538012257995194
0.0546767006908826
0.0515389383601529
0.0548998663062905
0.0543843032751854
0.0537490178872661
0.0503820001343305
0.0535292673273878
0.0540879149136071
0.0546755241097406
0.0547669667540969
0.0564956953614336
0.0534353018323889
0.0548082982806418
0.05214129866961
0.0552515039853463
0.0561351943227511
0.0548300527505993
0.054288732978145
0.0552834367955193
0.0568285855150159
0.0576843769423854
0.0577855142176577
0.0579494146176345
0.0584933789887986
0.0587529406727853
0.0579937854445115
0.0600906689974372
0.051696618790498
0.060376412644792
0.0553920836795755
0.0615973438034699
0.0570463979485171
0.0626477239317008
0.057003735271808
0.0619062409947375
0.0589680371127005
0.0591657219091625
0.0635919913052373
0.0590604852296255
0.0630943884522871
0.0558750352753757
0.0678745981838762
0.0595122479549639
0.0649652059180952
0.0613659270755805
0.0644682457992437
0.0606616639334659
0.0707716556524183
0.0622927225874734
0.0673505093742138
0.0650738735111639
0.0648504284746305
0.0660776029537994
0.0614425792951066
0.0666921653995631
0.0686471735804846
0.0660358108954377
0.0704722365722495
0.068133457705146
0.0700147419055411
0.0674982398283333
0.0699426761579347
0.0708189516242258
0.0699404194360749
0.0744645664552596
0.0703134489077141
0.0706775877529229
0.0788645609835999
0.0702323612759447
0.0755154795216492
0.0740969260285792
0.0746729423367495
0.0687419515163066
0.0877977818502694
0.0713277099043771
0.0827773618762518
0.0762584055044038
0.0851056805609232
0.0800944415605078
0.0839063315395874
0.0812521915720972
0.0854828280712306
0.0832887098406097
0.0886527150092764
0.0830274142323529
0.0986541709686632
0.0924321396525868
0.0908167630550948
0.0930226469894941
0.0941976338145611
0.0933585614469201
0.0986966935172558
0.101362787893572
0.10621689042399
0.097755505080265
0.0997600374275589
0.107789449059567
0.103528223265102
0.108215742524544
0.104914881404241
0.10700552403159
0.109155772009993
0.111029650667467
0.11558698115105
0.113573471128608
0.116282065965754
0.117244158881929
0.119905187211365
0.117840449520672
0.120428268475924
0.125655301371894
0.117514281042116
0.136331952597306
0.124880405188195
0.13077820733254
0.126748901211987
0.127376088986701
0.132043961422505
0.131500208603796
0.136717876818157
0.134554118910202
0.146837756320835
0.140531896288773
0.146659923711104
0.145498628259929
0.152983253021395
0.151823058686536
0.145897273399545
0.194805870017806
0.166851805368881
0.182636703147426
0.175859152647149
0.191332098759818
0.200892142923526
0.203582426367609
0.207339428483156
0.210587134562787
0.219040263416036
0.23157390040296
0.236381284484069
0.241052901005684
0.250886949489649
0.262545949598076
0.258872085799725
0.27728082527958
0.272552917324191
0.295212707573704
0.311061555066304
0.310470223369635
0.320628494321151
0.331049877204546
0.330657138965289
0.351106028695022
0.350692056221789
0.36201696835259
0.376039381668631
0.385012386473919
0.391143295366164
0.395203324354779
0.419649145591118
0.410285134545718
0.443000609032683
0.4459725540925
0.447566325719254
0.457823419164895
0.468671915696133
0.479884768934598
0.486889488553349
0.509538664184607
0.502932265208321
0.512273232884357
0.514863786177117
0.531177800491075
0.533316527052478
0.550555435313253
0.544672106093927
0.545796506521925
0.563477089181206
0.574507646843972
0.611652541884912
0.56519681289851
0.558490346098074
0.558782432367785
0.551581371836118
0.580361494869059
0.559713253803284
0.612036511039959
0.583618742530351
0.577283965764546
0.577518789538247
0.574007616560827
0.576962168730647
0.573216339184141
0.570717100446897
0.557605423672337
0.589291183089989
0.562520706512406
0.564348722679003
0.608942907962973
0.573368156543718
0.575368707943179
0.570473714897433
0.569304499739474
0.573079557784294
0.561027360052077
0.548756086508547
0.569888236089849
0.555828315151868
0.560684683104795
0.534355498859201
0.546261061651892
0.539668429264776
0.516416629786657
0.514483277673557
0.502929917403945
0.505136127358062
0.495006652350039
0.480828012781983
0.518083073503874
0.468365376889298
0.472550944281643
0.469790399958968
0.465791397195907
0.458595537586695
0.465594866137684
0.459914159647404
0.460600290914351
0.437580345005234
0.454403998937329
0.441420351276916
0.447850130336559
0.433236218970463
0.437825258891345
0.425269629451128
0.432060519409607
0.429473333413431
0.432702587651436
0.427676235275138
0.427042266611005
0.419161951566616
0.435139212677302
0.420862316948621
0.432438768058914
0.424693253119658
0.427007438495109
0.420585512265389
0.425090619470434
0.422308007972028
0.426553729095606
0.425010011767516
0.425051254887984
0.422218373100762
0.423125819806703
0.421691327728359
0.420406561390806
0.415895025624477
0.420202762681927
0.42267024674579
0.422166472070659
0.419742186528031
0.41868962455544
0.440573229393487
0.422039390899265
0.41275608007723
0.423724963702573
0.410063191020265
0.418376694851732
0.401831064700297
0.426163257349628
0.416840579261213
0.413606361146684
0.401784471204679
0.400591709658161
0.403263754861625
0.413950595895811
0.393880970639826
0.402164349760447
0.38565384244644
0.413882293011686
0.410652776610343
0.409276931039458
0.425589191967127
0.406944705650567
0.397373152775943
0.390643592951294
0.419189600118971
0.396820315504389
0.396819148046312
0.392288142801146
0.406527598711311
0.405321369447438
0.400314829045685
0.403473966166524
0.389923467459154
0.3893892503054
0.397657421489467
0.391824850247858
0.389733817514907
0.40296816852063
0.3844791817704
0.408893948122565
0.414944464715696
0.393691613454306
0.372474406737777
0.375788014193288
0.374864790483471
0.366022612183532
0.375456841747098
0.364036910504634
0.367968788514616
0.361252534306749
0.354695876555115
0.349852284256298
0.350891638045762
0.348903195572063
0.341470750295664
0.363591242959148
0.330599825495864
0.34279928644288
0.336723222739985
0.340858645242987
0.331764778286391
0.332776776361138
0.318023207556875
0.327471951973934
0.330295514199881
0.322341784599464
0.322497174559705
0.311042806744352
0.300728503915485
0.311385368558245
0.298122688042256
0.296494195766713
0.286584807548232
0.28887768125296
0.291985763572888
0.28904064359713
0.298046892331637
0.282265293118933
0.274533520265985
0.27700929031212
0.273727554605024
0.27630198345526
0.268466319100052
0.276932637787577
0.277330053116943
0.269034388829074
0.283338376270209
0.272783003243436
0.270587240977926
0.272027558969477
0.27121581057497
0.277426745692341
0.280283839456644
0.288317576848463
0.282034620832526
0.282802787688727
0.295239261076561
0.285829131377319
0.291563570540733
0.294321335229267
0.302493473500571
0.301134854181927
0.311558718693465
0.31579227357896
0.316101409645622
0.327383905413692
0.328078686197788
0.328432957254248
0.357747461023578
0.343274843597764
0.361651429695402
0.367731899967957
0.382806198876327
0.386782253728752
0.393559889558685
0.398034829204977
0.403270178606278
0.412805628939518
0.408944531943591
0.413895620043085
0.436103828590688
0.426176602932813
0.438749811542336
0.443879458005752
0.452274219554188
0.447256862566661
0.44981490100718
0.449345775170095
0.45779234927015
0.479139049097315
0.482803151989617
0.480658914950327
0.466851571844317
0.481287865863322
0.482829520174103
0.484310708131783
0.489027880824166
0.482013937396695
0.502591359734773
0.494002250261896
0.493364340170427
0.499582869914842
0.504286555019265
0.5121396828027
0.514242888925066
0.515582184720797
0.511841527187473
0.521670941525867
0.52086831692048
0.503015265517331
0.556903211034471
0.534744061982723
0.525160383992227
0.533998527887658
0.54133270744303
0.546806183156217
0.546270599041736
0.567117657411801
0.565959475630744
0.561392806537935
0.564737085766248
0.568247957199549
0.569371493475021
0.573116595849536
0.587237891648574
0.580137561847912
0.591161079956383
0.585882003297249
0.585901043973384
0.619920157665279
0.591028921554432
0.599627185467625
0.595537699810011
0.608175375501038
0.61007502347471
0.603505075920741
0.605041966316977
0.614787509739339
0.621809816555626
0.628437298524617
0.620954600427975
0.616248151753155
0.618994975468978
0.611313457680343
0.62625057522536
0.620188159700854
0.605146325581918
0.616022963499147
0.618557437353554
0.610578160059029
0.618801401047047
0.628622710892524
0.616582835369619
0.617601479115613
0.620882939777723
0.6178579169718
0.620831488783396
0.621844364585384
0.612891865304181
0.613005624866622
0.617444564339664
0.620391398931917
0.619912986337826
0.631938175705577
0.620477128032484
0.621762796269934
0.624177969299007
0.631251642467387
0.631588603123316
0.638037978904089
0.629912780252928
0.645409961382665
0.64585364498471
0.646794232256798
0.649588186131991
0.643624220247311
0.640972740619116
0.642674343141141
0.648491677280429
0.635145593153171
0.628470665777857
0.629695327745618
0.624922982924785
0.631915202432033
0.632552244863274
0.626790906970431
0.618555079307701
0.617019910303941
0.603247368897661
0.610813453494622
0.592018432011416
0.590492075867195
0.592619216180773
0.5809753736063
0.579366516039975
0.573451533553166
0.568074579452272
0.563300106084321
0.565447707444472
0.566171869842908
0.561086070880018
0.559577607788267
0.558236047227628
0.556617126502568
0.556231386729916
0.5622045742449
0.556536983618688
0.549708506484203
0.550163153199548
0.545083143915534
0.547623133002353
0.552119504548743
0.53816168397059
0.542045382938388
0.552243659442047
0.549593323490237
0.548820212479539
0.54899040006216
0.551031474164273
0.543259751386398
0.548547569929472
0.543563507450248
0.545183934746554
0.544266199456501
0.546079472650617
0.542467120338174
0.54176934525804
0.544672902714564
0.543371673491009
0.539608979447629
0.545262748886337
0.544562435238444
0.540964629010483
0.537944845535547
0.536588094517386
0.541488342394221
0.539865183531928
0.537403046705989
0.540304302856
0.538694209918158
0.535950412783134
0.545139335252123
0.545146379208919
0.544357646738107
0.546723190945774
0.543764653062491
0.54193980703223
0.542998271060333
0.544081213681584
0.537606554245159
0.537284718574569
0.537462730858759
0.537125507951272
0.531744568790917
0.533347800427866
0.529794377494172
0.522296696245364
0.520772234341153
0.519070644439923
0.516467055505222
0.508591676693081
0.504581481668023
0.499374714817182
0.490450262924727
0.489914978935779
0.487217842989601
0.484811028215237
0.481952942496002
0.476862861654534
0.478031581755758
0.475926988515374
0.475516693574861
0.47101404146585
0.467569748803029
0.465447926363554
0.46807655761913
0.469106382992749
0.462273716966112
0.463101457671461
0.466954820891428
0.469298268023041
0.465110145803706
0.469394892845356
0.472908025682306
0.469089626418886
0.4730509139553
0.471783955752927
0.474525210640876
0.473206741155859
0.477623599530834
0.478417995319237
0.480348400134565
0.48607505626505
0.486627933777748
0.486032439561116
0.489437120148745
0.49424076616691
0.492288342484374
0.495666227001891
0.493032486632288
0.494894544591235
0.492585731186025
0.497163310129583
0.499908433933766
0.497066319088737
0.498222167003737
0.498552765175755
0.49527949950324
0.492789667548124
0.49125693370785
0.495813198895042
0.493650907192579
0.494621319729263
0.494908033799769
0.492404148502864
0.485942267073285
0.486513037585571
0.485590223993552
0.482644916595134
0.481829651911191
0.48600942509837
0.483231823406606
0.479392127977915
0.479392286273092
0.479805119638968
0.471969627575309
0.471014335030015
0.473155762008221
0.470767347244226
0.46971779049341
0.466015459505241
0.463367592586976
0.462198155293933
0.46711321756614
0.463963142355241
0.456508575665071
0.456505816774041
0.457771105394493
0.457309923719915
0.454846420387884
0.450844700574234
0.449000391973713
0.448267377972207
0.443893939576266
0.443954690562831
0.444363303597884
0.44172699508954
0.436896866422658
0.433884105035251
0.427445559110965
0.423685800686121
0.423199717431324
0.416833218001674
0.415752610012122
0.413730080695967
0.408189705430513
0.409677224723624
0.404614810947283
0.404004620414843
0.401463305679909
0.401390829076666
0.401998935869905
0.395934795870342
0.396460391481619
0.396576133252237
0.395123357947799
0.393473431526161
0.390262323096016
0.38799365134337
0.387079652667966
0.378704012241486
0.375564546137759
0.375046808633578
0.372237013998143
0.365482055823106
0.360195218543179
0.354453662064065
0.352953630643815
0.353463815523283
0.352626751043622
0.35254116007798
0.357932948482736
0.35844221726888
0.364092539837648
0.373332437135389
0.384491230151699
0.391243174230314
0.402214488836979
0.417845295264361
0.431434067135126
0.446845929475173
0.464534470349017
0.486193657529874
0.501906675139428
0.517781586630395
0.535096969922101
0.549713806203009
0.574417940122564
0.594778602622124
0.609945409291773
0.625675952608001
0.64127748506327
0.658629417745646
0.668588711481583
0.685114780987309
0.698148610478926
0.712735215831135
0.724545796297853
0.740553446336722
0.746678259116346
0.754825436825461
0.770686212762552
0.785469194998918
0.781791648933353
0.794568602321821
0.793122367711407
0.795338507467187
0.804093486161623
0.805390296651931
0.817556176433666
0.820342066852715
0.817803306932069
0.810893367180733
0.815992754912059
0.820120758145971
0.816799001504519
0.821144222565626
0.825196229897844
0.827198974925138
0.829349067320732
0.836687168282955
0.836818051190511
0.838344906694995
0.853831574564496
0.846844131813348
0.86005463274892
0.869821000885268
0.877313599670377
0.88373561742798
0.877423445563222
0.886996577474735
0.900339386656887
0.913907559559074
0.923705347398755
0.935175165864307
0.950041966068183
0.970599261772301
0.967109096237849
0.99141935555667
0.999210811871078
1.01858276046338
1.02821353527554
1.02984982306763
1.04557084329081
1.05037808230099
1.0559020777668
1.04984222472377
1.05323846254246
1.05052913124673
1.06085361582183
1.05018909211677
1.04436768800604
1.04547770545092
1.03510334090376
1.04231237109995
1.03105902518791
1.04575040655707
1.06453568103609
1.05329579869184
1.07476578567762
1.07417616963999
1.12007440261172
1.12985425145471
1.11417093631074
1.1367685976374
1.17297305579753
1.19239475007097
1.21267250943526
1.21066655484834
1.24231625079462
1.26229431901277
1.26334077439905
1.30363869116237
1.34544956102905
1.37412470579837
1.38345277481018
1.34310674995925
1.38497857254833
1.43956454435189
1.4935762848828
1.45139603209037
1.46056750018084
1.51176280640482
1.58187565382843
1.56561653095367
1.56323244634108
1.54333941294824
1.68442270146936
1.73341832469405
1.74127670485443
1.66821595275774
1.763650646806
1.70807319067643
1.75208942039188
1.77264386107398
1.774561569697
1.72145460007118
1.73934992574629
1.73982672581533
1.73700951700518
1.68723577241494
1.82034732459914
1.74094395940401
1.69771449617694
1.79408946437184
1.80390083812716
1.74558439690203
1.8224009803491
1.74425479703288
1.73838711262386
1.68553599728313
1.79446041203751
1.74017061201504
1.74499130833725
1.81661049903292
1.80865420403343
1.77186093459506
1.99211211305697
1.84749492394531
1.76405275094054
1.83862573457039
1.88160283906225
1.97602328456917
1.87484758799429
1.90809084888723
2.16658731455259
1.87148834517883
1.96313581321559
2.04915034938249
2.04683131752723
2.04262549635871
2.10966698686111
1.90829276485597
2.03332614956353
2.07043031134884
2.04728816904671
2.14106463862691
2.11357902587601
2.04799574941648
2.07782802219325
2.22017587205121
1.81195102748547
1.89055803453337
1.99014641636991
1.8192328779683
1.86558004004433
1.9860181850546
2.14451789802344
1.87066815519458
2.09130808516438
2.01136296327151
1.93897877658392
1.99481662859635
1.8520312313531
1.86794641228137
1.84963607478423
1.73403641512192
1.75024952981313
1.64246601992167
1.63116559864879
1.52858007980014
1.53349016372862
1.44733836044654
1.44236629201491
1.39108912634169
1.39281151674656
1.35354588122417
1.31048175723366
1.32106280587974
1.30463984571087
1.25288957152651
1.28511915206154
1.2350474905807
1.24902233086341
1.23202852268185
1.20375980842301
1.2159919514828
1.18865221376224
1.17565335158336
1.1812940755845
1.17546905651368
1.14685196028612
1.11739051438367
1.11166021125447
1.05726657556538
1.05653351083391
1.05883391771251
1.00611677355141
0.983063062955179
0.950880569314481
0.920899106505636
0.894954201323264
0.857459946781301
0.80743532987383
0.787473902344591
0.753051683195473
0.72586400251854
0.686650318943338
0.653843481374688
0.623089494155159
0.602474648330645
0.582876078439783
0.551250264716885
0.534786881084057
0.517422435069014
0.493316106992604
0.488462089989789
0.470566717627453
0.459708205950661
0.442339186752922
0.435088851656684
0.427625578753285
0.422704920448308
0.419034441489284
0.415880328200204
0.408763359910383
0.411048942343235
0.408124671272857
0.403164336700083
0.406267732861889
0.40662044732402
0.408917569125781
0.403501605837935
0.411161001816157
0.409972703335585
0.412249680695628
0.407982919024401
0.41092619564132
0.411198990138229
0.410223193358108
0.404071958951518
0.401539823160546
0.399742627732592
0.402062044143522
0.393108826308015
0.398662869291858
0.389266874110996
0.387153522889681
0.377190322944347
0.376726092603176
0.376747286090686
0.379955119637163
0.379080302647156
0.372052375987263
0.375492636907811
0.382763065466336
0.384764141071089
0.383768154845244
0.385919471510358
0.397499209151784
0.398629646598406
0.402416688946126
0.399007325620638
0.412210830730621
0.403970780854032
0.411785319625747
0.409421592870205
0.420497054284525
0.415012323244977
0.416859266729554
0.418702679197689
0.424891769363892
0.415305816654059
0.422133160858045
0.413231748828516
0.431104002851017
0.422377672483871
0.428324480833997
0.429629129263584
0.444452978290124
0.455657748838082
0.443466806995284
0.457706996765265
0.464304957200071
0.46824477021658
0.490249294686348
0.492772962218746
0.508696939631296
0.519777721444933
0.537495066773837
0.544741094835636
0.560672449870415
0.570970573301532
0.566120262206678
0.57362223308695
0.572817203499975
0.56317151797874
0.551940521847885
0.544084754539191
0.536184285634187
0.524020383098894
0.537306834642455
0.509074872439671
0.523380173362072
0.507997608228745
0.507602551227833
0.49900510368388
0.502173745117567
0.502987375499032
0.500374171897724
0.505411949491188
0.499971482427668
0.503618176061689
0.508344847590691
0.492105982720234
0.500195998299805
0.495721269849707
0.488691126558633
0.483882281480148
0.483910855459551
0.479330429908198
0.46803656096321
0.449689410421612
0.460747431119595
0.441166233164333
0.450138811548956
0.442974621452122
0.451446417284685
0.434560583089713
0.434060995104893
0.422197786725263
0.428820199305904
0.444690757557497
0.430743949414089
0.422467870707535
0.423940394868073
0.414149224522828
0.422588047036616
0.401384655795036
0.408427912317765
0.409412944910477
0.414328257455734
0.398608601104536
0.406120987823487
0.398827055927953
0.402907795007306
0.415341016724608
0.405186556381441
0.398028415115271
0.382410830280561
0.376844422829835
0.385560057753377
0.379224989565732
0.371529147449379
0.371345490234044
0.387272539299861
0.369739829452506
0.383813050817988
0.361849379036161
0.358145938399964
0.369155378228023
0.369318758926141
0.371622166974349
0.367798114154194
0.373573539144186
0.361531022966214
0.373434602081528
0.384744106570579
0.369926227612328
0.375784954312113
0.375586168821203
0.368608274382918
0.370326461363872
0.386019581983165
0.370938140115143
0.390107379200637
0.373973742924166
0.388499330588409
0.376202801063189
0.390792303862288
0.404354389018195
0.394931634693172
0.406942422263947
0.401569188112946
0.405192301597261
0.422744572988366
0.407136880264319
0.412177570020326
0.425575290889352
0.428009441778479
0.443850414725173
0.454094939956491
0.459358322025637
0.464013504649399
0.463169250751959
0.475412120952777
0.49038920509868
0.493186699955058
0.518860158903298
0.512467719404645
0.530935862065568
0.553727202003295
0.55959304945628
0.59652673113292
0.614515437238354
0.649244125447614
0.632478521741776
0.634700458928433
0.634082352947882
0.670152738945495
0.668302635515916
0.667701783966164
0.661404882480331
0.681818434490304
0.646892317615737
0.662253734804548
0.634606412474585
0.679735238294586
0.66416651224741
0.675915689491157
0.632535889595243
0.668361294515842
0.643929470901895
0.687635821140282
0.625107119225202
0.669813133163734
0.631177666679329
0.674658555519511
0.627733082837702
0.606565992231747
0.657665972893314
0.65349536550815
0.616444285701784
0.624429032713071
0.596340413215744
0.642960549213641
0.602372867004591
0.568829028251547
0.592438213548535
0.60775913403433
0.570608940584592
0.616027511592921
0.522765372384141
0.597361138187296
0.586378427325937
0.591020153084117
0.58167857745579
0.633153266045868
0.564279223714453
0.55992889360515
0.579358375716716
0.59628781064066
0.577966026379373
0.599510569895712
0.58779121336713
0.567940248459497
0.608741614556019
0.569935855524478
0.588741494552137
0.601313153197377
0.56400788864347
0.588052986224029
0.574949863840719
0.626651283376914
0.579359493034004
0.626490587806952
0.639433960090702
0.650835046578175
0.558355821740377
0.604374291833167
0.595187587709896
0.627687485733851
0.60561853345212
0.66967582506329
0.600664919055358
0.664697965675623
0.623291922008414
0.711916723900969
0.720624495711198
0.786275312988037
0.735908950347195
0.642788189615363
0.653731832529738
0.669666564032533
0.666205497853837
0.814887722770723
0.716462608590558
0.822419543640703
0.819822533421865
0.760674719817554
0.727176642644182
0.86288966359786
0.843638546319588
0.742398141292513
0.778801592290002
0.932772476791402
0.710870664071686
0.894416035433308
0.700109352459533
0.825664997470224
0.789750191098244
0.725092044508876
0.838045507464741
0.896326182296351
0.879382466870223
0.782055955762854
0.666189507420288
0.849808956583144
0.822406866901812
0.916228466782674
0.633050133904152
0.775682399271311
0.733792640033108
0.837590244732616
0.673943218291293
0.734329512639451
0.861576574182871
0.80880752231964
0.651565313501442
1.12255096154737
0.858582338037869
0.949842349771311
0.617099203649329
0.867460489622853
0.667947815487825
1.00450060366069
0.724149557346927
0.841355239909494
0.722743174004975
0.614985710252463
0.862165436262115
0.748738857870065
0.740467007229889
0.886663479467974
0.547640902061486
5
0.737118029882802
0.875486297179949
0.786136746985327
1.11193584013049
0.738586482745167
5
0.879480395515497
0.951713130069203
1.79600882355495
5
1.07829459947004
1.360155316577
0.775677768409378
0.732439940843145
0.700668735720258
5
0.498338526661503
5
0.761892197142932
