3596
4000.36533379555
650.420452594757
1
2
2
0.0355957882477491
0.0460876164523513
0.0416931632003787
0.0424910096159481
0.0283990335442405
0.0433846103994928
0.0450435012087818
0.0426875450366221
0.0338050596984918
0.0471771817087704
0.0306984809655942
0.039086191249033
0.0448765262049909
0.0482872874562874
0.0319168544406012
0.0441450702843819
0.0342037659845084
0.0437181194485642
0.0427336278295207
0.0397404345731246
0.0358208025381299
0.0457067402794249
0.034456367162095
0.0337248542368636
0.044709311229415
0.0382314807189051
0.0363265145214639
0.04509713207742
0.0353285323624147
0.0410151007848511
0.0379813756567748
0.0391504386937451
0.029205495150797
0.0379795192899135
0.0495059297523138
0.0457564321397323
0.0321555904887379
0.0460518673564432
0.0316345752170856
0.041496128090046
0.0342564087995887
0.0369608448505984
0.031793336187806
0.0517995176493421
0.032697332658286
0.0403219388011013
0.0459568693143627
0.0395004200460078
0.0341112649912858
0.0447952832311421
0.0367286843694369
0.0422361422693338
0.030819730554424
0.0503604722844004
0.0318633905524356
0.0348284337129732
0.0406805046376419
0.0344924441684627
0.0269491674866522
0.0449588026840052
0.0423331443013102
0.0434546826603562
0.0277836794912194
0.0321783983862889
0.0436220069971568
0.031150578766766
0.0378843109168035
0.0421450526340553
0.0342561207658245
0.0385250069095542
0.034382019406571
0.0396598026422145
0.0296650812733812
0.0208779451768231
0.0376637618964387
0.039128602189107
0.0282516030481265
0.0330509635474596
0.0256808199076891
0.0376306445343229
0.0424994235427646
0.0329328567301536
0.0414002231910258
0.0401967847690157
0.0359634967723978
0.0363147388758239
0.0354238757376601
0.0231001568587745
0.0379843389224888
0.0249444076833718
0.035378895915112
0.0331853371401205
0.0278754106526095
0.0303217496284974
0.0389926671712171
0.0399143550761039
0.0447047934325961
0.02807434184326
0.0435659737787365
0.0271551891910285
0.0394557997354709
0.0431562451436029
0.0184333218896267
0.0419793662255025
0.00984164207991308
0.0333839524086395
0.0173699730825305
0.0373793805195308
0.0363871203731494
0.0255228064582384
0.0399146056633145
0.0397047023220267
0.0414582566315299
0.0302599003376416
0.0310816158488571
0.0259020211959203
0.0441979878223309
0.0284945918856907
0.0286405447560748
0.0254670292826226
0.0329641213725075
0.0129458115394545
0.0295173900167607
0.0290824651438189
0.0294739025709381
0.0339466830784642
0.0370881132478455
0.0152453931132219
0.0226918443240738
0.0354163160175679
0.0338504026825284
0.0371289920487522
0.0179994147503374
0.0435419198739888
0.0329547274856165
0.0390478698830096
0.0145986125547644
0.0359587594086654
0.0368923002420926
0.0404880562236013
0.0371233246180811
0.0251773469822969
0.0211868809037627
0.0443287405422973
0.029805095921399
0.0300456428029887
0.0316783408013601
0.0276154983541497
0.0300205518293567
0.0313707084357169
0.0214908408976181
0.0207279381230044
0.0329432007649906
0.0288201084492857
0.0367308357659713
0.015573186406662
0.0372317049759899
0.0446382748055811
0.0127424340783411
0.0451538856757754
0.0166622715511065
0.0323736017614504
0.0245032720856287
0.0214526935507237
0.0283594438212372
0.0314514105670669
0.0376585432251733
0.0277957256245001
0.0202357917241544
0.027386020477451
0.0276763564829481
0.0241119098586717
0.0350907019836676
0.0309694993762813
0.0342016027122122
0.0348133168047192
0.0270523043411692
0.0352811196913573
0.0343959478749591
0.0321912150936325
0.0187551716383214
0.0454580097777227
0.0205997892488446
0.0276883949230731
0.0298242948924246
0.0279330901321236
0.0240447856871845
0.02310050087042
0.027822353467135
0.0348736220204459
0.0198616576049743
0.0369976125156034
0.0342571397794214
0.0331621633258135
0.0130865609964714
0.0404409983022498
0.00293397976352432
0.0349585346048776
0.0250235523655492
0.0257244175041008
0.0314415059211137
0.0266706908601199
0.0338207147739869
0.0281156962369139
0.0313912954591067
0.0354689748674203
0.0202381382435903
0.0344450262468329
0.0242464734166877
0.0326356783904942
0.0157840966006304
0.043545182434871
0.016440787788734
0.0272472569779737
0.0367316088409135
0.0279663936347033
0.0300458244903032
0.028640291151801
0.026458877350457
0.0271232494399952
0.0233151288810449
0.0215014962577028
0.0291559510460964
0.0249291012659161
0.0286581499873473
0.0344727941395679
0.0261811982202087
0.0290540223468333
0.0218885232750672
0.0364395341845568
0.0401024268011341
0.0236060102020577
0.0311947810348437
0.0256380249547337
0.0262189666401886
0.0352987306117316
0.0417292788397509
0.0333329128833133
0.0273469975066942
0.0314446875358002
0.0259719739583891
0.0364898237547522
0.0270869687654331
0.0267334945929085
0.0172389052250279
0.0384940899937867
0.0169210125927983
0.0344718418880494
0.0258377829997173
0.0376797644297011
0.0341300217706903
0.0348065154804209
0.0258888730209431
0.0241237259258247
0.0245804826261322
0.0321322835756915
0.0444920950686473
0.0362389068333225
0.0251671510282374
0.0367306540296602
0.0284872835911083
0.0311618294192154
0.0328358676565888
0.02609742483826
0.0452009329474095
0.0286598561707538
0.0315597871935861
0.0241928793720543
0.0275846175598279
0.0370272217327873
0.022288975923318
0.0272900212556975
0.0452008845595354
0.0235917749217484
0.0373843865102806
0.0287106738790444
0.0387069146636177
0.0337868754278178
0.0387295048891959
0.0305291947325202
0.0375081254965167
0.0486015884259251
0.0225612920999051
0.0524053928350053
0.0125343848698066
0.0373317617349148
0.0290522195813266
0.0392096008345646
0.0336118595273691
0.0318505494343134
0.0271892037537482
0.0349813967221242
0.0330153772309073
0.0337921876867855
0.0391197819888922
0.0283411435763178
0.0387927535587783
0.0406169121313848
0.03815074433505
0.0292718449962746
0.0514981368966427
0.0294695578871662
0.0360350784784925
0.0391115689782072
0.0463033511903917
0.0311607851949798
0.0292773114083441
0.0463206659386696
0.0352503809255628
0.0318115287504252
0.0550243581331748
0.0337482395705068
0.0371591867648591
0.0424217748597089
0.0496260698165771
0.0406745920921382
0.0477560195581287
0.0312831281721574
0.0554015589749227
0.034937369374972
0.0406916807292513
0.0403202109786294
0.0413245767154134
0.0382567280161173
0.0396728303455992
0.0398934849813698
0.0426096365769183
0.0467996812410732
0.0482560449908538
0.0445860658200461
0.0597077679579058
0.0436797528828292
0.04886577510981
0.0497814882901598
0.0572952229353919
0.0596209649020523
0.046314330276833
0.0507024697022393
0.0496028151500169
0.056442819008478
0.0534897563526112
0.0562606801303952
0.0564351108947066
0.0585122190354486
0.0573613164460535
0.0667179785826959
0.0604666888447911
0.0747946111505435
0.059335537560833
0.0763641838704524
0.0565057038834373
0.05501419915377
0.0824653872355824
0.0561889738276719
0.0814093252708951
0.0673356428344732
0.0729901971297151
0.0646186955623236
0.0780978816562388
0.0653367400301575
0.0784049551989694
0.0803048510292117
0.0785106099260138
0.081198900087146
0.0840765731605504
0.0883758251390493
0.0823199556364547
0.0858302340194029
0.0932650764652664
0.089661967815269
0.0991985058310336
0.0939740609246609
0.101137362811039
0.0842443191189819
0.0897880827348642
0.121323946664402
0.0934569648550132
0.128192323867249
0.0996445853668451
0.10160269108949
0.112881459742566
0.118182771588277
0.120575129865542
0.12051085925198
0.123087639349384
0.130579373360294
0.12821224396186
0.138087365740105
0.124030120475135
0.135046013644141
0.128313222870665
0.146381088541139
0.14751522966531
0.144845064423001
0.147245188890797
0.140130799378934
0.154913330851657
0.149365524941747
0.160997436753337
0.157768270675879
0.166545553103134
0.15870853794549
0.175166940494771
0.157473183669786
0.17688844844048
0.160011754278918
0.185923645059025
0.186406389520327
0.179576908997414
0.187961296351641
0.181478418235996
0.188713880227891
0.193790412103728
0.183432597542298
0.213309396410389
0.207308245933924
0.206513692210467
0.206350012242613
0.237478749034927
0.215969107060479
0.230623310528484
0.210743459911971
0.235031487271622
0.218948099976671
0.214229200724766
0.226428190653118
0.241270379592989
0.243562978550502
0.247671939019482
0.238853978058196
0.248460310076482
0.252710481009112
0.256227198488136
0.258454767706405
0.277967440547093
0.296011493572425
0.27670553826809
0.278116510620685
0.297120284550286
0.269233262247246
0.324853997930638
0.275635026307438
0.305690411621099
0.254243009465017
0.296594508891773
0.306157110346846
0.312532583695686
0.319587718288177
0.332951433395265
0.322359929155194
0.333909533829714
0.338983632350801
0.362364817544347
0.336169755963802
0.355984295149483
0.335229718238072
0.349240103729212
0.386042427711817
0.374975555307785
0.358514438043052
0.368856054181652
0.376679302277084
0.438095203910188
0.370834192597622
0.419832953452799
0.374915924424737
0.400912352215407
0.386217268842477
0.424736874032802
0.390186826984343
0.429973106099135
0.413493981050991
0.438862185201366
0.438356144428689
0.453998861233331
0.4284232281475
0.470955917325812
0.446112636912818
0.472200795627627
0.438451542913095
0.484230751528449
0.458933105638355
0.476623113351628
0.451096587293717
0.504068035519568
0.480545114237456
0.498849700759891
0.497960573715746
0.511980717518546
0.527216494413762
0.541050163813942
0.495431470665093
0.527939650424567
0.520267982873116
0.571243577752014
0.518900123613305
0.541994912919147
0.563976310695745
0.566667198573287
0.538187461685006
0.593287355147607
0.535172581468931
0.599323705240537
0.611684203740634
0.600527340610457
0.571413413440486
0.646611843628314
0.589697607538067
0.597734327362807
0.612111204552478
0.632153218722729
0.596733398668467
0.699045388850524
0.611363195775061
0.658716258250692
0.631270926198114
0.682125240676225
0.645267559495748
0.702049801718644
0.666363374210439
0.707522333175738
0.62920364315617
0.707382251313186
0.728431348782492
0.71219777684672
0.723675895685369
0.75103888769779
0.675056680522723
0.754854351212871
0.685853879362197
0.79134833775099
0.749282870292586
0.765663484054531
0.723385142298882
0.759613291253136
0.74983627230289
0.861589823396478
0.714511021488912
0.846380622087063
0.812320756614159
0.939424582911477
0.756742051388464
0.821924582101957
0.794483605595424
0.791162853087971
0.808935206936449
0.866923373548067
0.808105007970287
0.8529381359271
0.799689368496445
0.927097143685833
0.887039342123862
0.873637285259456
0.809330790050899
0.928785178480135
0.85465898093853
0.937127558884137
0.87865637882692
0.948830258183737
0.88705412181059
0.956105089399562
0.936434047288746
0.918306237550331
0.886753328758055
0.94077611363895
0.953086612559928
0.959437373892099
0.873242544086054
1.01038431880919
0.902946792988355
0.993184547453741
0.952403482349183
0.982983721093643
0.937936249692652
1.09718364508146
0.964219150418088
1.0700591290487
0.939468846334706
1.02660726165604
0.971039410060801
1.09914761997069
0.947761127407629
1.14717792231898
1.04178104691358
1.18051684657974
1.07884197819574
1.07146577806844
1.03267103438182
1.12159978690561
1.04348290835469
1.30436790125645
1.1237570238859
1.15934812289047
1.07131120414373
1.14320982409115
1.12966917706969
1.2192985291211
1.09986929384521
1.19551862341166
1.13233790436579
1.08764320001214
1.0614359455685
1.14929481353756
1.1527626022011
1.285575925928
1.07033212698264
1.3265034151656
1.14403263007975
1.33150425249146
1.11569874365226
1.25007614448341
1.12858563261724
1.26782855526503
1.06202540349977
1.4509424390188
1.19099874787461
1.19888038915028
1.22737379851174
1.26061293489159
1.10636058042009
1.251077339689
1.16636210572644
1.45178327512644
1.2143962361748
1.31399527358032
1.22650599906091
1.3904700053516
1.27222888199645
1.19148047349309
1.19498768560182
1.39951242336157
1.34600667904182
1.35376528265113
1.18831483158398
1.36478700330644
1.2730798818777
1.56807071838724
1.24866175362454
1.35380639363273
1.25775274555736
1.24521822269799
1.25706072464579
1.36591212479736
1.23799454064498
1.72757922148744
1.3346159274333
1.52045629972174
1.27799196550122
1.35364925483461
1.23834201079547
1.41694199166167
1.39530127618936
1.44620854075182
1.25894169318245
1.4447420624107
1.32559768057635
1.60251969195707
1.40857984058072
1.56572975230413
1.45768597167657
1.7152150639123
1.54251443087734
1.35088558098856
1.25639636442385
1.60076511791798
1.34457134330694
1.44917166170516
1.48737926436982
1.42368413410821
1.44018795132455
1.43277002650083
1.30890772644391
1.5579205648709
1.37436862235339
1.5263530548543
1.51684033206789
1.45617728560766
1.41686709900901
1.61065226252749
1.38549770744736
1.67498530369557
1.33359150193628
1.58775819383143
1.62114012789784
1.69181883024147
1.41391011272527
1.66938522499696
1.63257101910082
1.60128669258607
1.417981229977
1.65990387879137
1.38590997419486
1.56217225134128
1.50780309126395
1.77812285050975
1.6360029843264
1.75335723440269
1.61804858516947
1.63745552919986
1.46656927480783
1.54621703917832
1.36620395210204
1.6309976418392
1.37731604950223
1.39074898634926
1.39317589166938
1.48645687760564
1.53099479152856
1.55757270384143
1.40922441145224
1.54748681797011
1.5409565303059
1.73396237728451
1.57158558483488
1.80882585159005
1.6030247413529
1.53759683186951
1.48961505725214
1.67191078764225
1.54658818224813
1.90004644187349
1.58548627167488
1.59786845092081
1.74635130113995
1.50097716867351
1.54876224210992
1.88272319079268
1.47452298448707
1.59086018997891
1.60096704670354
1.53628622212271
1.49686225430441
1.65796785766557
1.50374254762723
1.55247336703715
1.39551879130712
1.4450265937833
1.41430029870318
1.57347746914319
1.47599852312184
1.52283881765863
1.35031903897277
1.54493202527425
1.60211618716258
1.60504075903014
1.71287926904888
1.66112559677391
1.59786768295807
1.6498367125662
1.67722523432466
1.5356173999632
1.44355301582469
1.68368437895392
1.53617714648628
1.80704693277564
1.55019864037608
1.53805155447552
1.56170127882785
1.57782078318189
1.51760357790322
1.485575965225
1.47757819935688
1.59312750467303
1.58474271118749
1.74487705240416
1.56954490330231
1.59344051340921
1.37810755888638
1.59972465634947
1.58597581304919
1.57779394441981
1.54509071082142
1.55850435522043
1.59471938854861
1.68928676051184
1.69562773902611
1.484346234957
1.47677759907632
1.63410592375567
1.61625739843969
1.57568644939938
1.55282337735689
1.52930079690242
1.50181193616163
1.59046179519368
1.59910804627455
1.58224381991745
1.55874432727331
1.60591676356148
1.48196307863118
1.70545192410734
1.53036872890732
1.57077850224797
1.62076452235385
1.49848022048827
1.5608988663425
1.75223942135446
1.55668712487645
1.4953936092644
1.5476272588241
1.68359554429788
1.55655223660298
1.5885487071594
1.62413150894767
1.56632425109943
1.49543577168624
1.57728792186668
1.48920547256415
1.5000122545009
1.47311186184827
1.37622177494959
1.41889084645056
1.57638487279901
1.51030034161056
1.44041104606291
1.33104920856883
1.40893871049224
1.51317251966339
1.45272574124447
1.36922931324389
1.53796091021925
1.3868233292433
1.4911839982782
1.51477138246586
1.40566543779042
1.38473949797924
1.39080058333144
1.61107066697468
1.6307489468884
1.38563996712807
1.42080689549682
1.34913427289235
1.40605123129256
1.35765143049279
1.43015730183711
1.57513557425384
1.34869795469663
1.35946723116352
1.3910618570516
1.30924387674655
1.39837335039757
1.45908400769384
1.35538904620312
1.39594308206219
1.32859934527859
1.31395770911901
1.43251906833978
1.37109355417811
1.33593438212264
1.33803955002326
1.36780033637279
1.42810132425963
1.41657318188813
1.32274629113684
1.3149124936716
1.35225010705187
1.30288277097965
1.30634127417605
1.34567722172041
1.32853219265396
1.3491906939356
1.34945384090918
1.30866648971303
1.34357946613675
1.37526687945611
1.2892979728916
1.23498160647245
1.24795204040383
1.2765534865563
1.25593115597193
1.2317772608573
1.24544185830289
1.30051885377461
1.18780371471786
1.17498406992378
1.24889614954793
1.22836395870003
1.22042034886159
1.2607871600124
1.28764890847133
1.21503389552485
1.16608716743874
1.23442301191914
1.23553897081768
1.21031665930066
1.17255715399646
1.16322406838562
1.13904280597083
1.14190877830462
1.16202068760343
1.11015799937466
1.11651211052436
1.12731742240421
1.10245308696934
1.10518784374738
1.14880806784463
1.11451151257268
1.13074173891786
1.15511290081035
1.16653587106089
1.15540015701815
1.14089274524404
1.09390286962312
1.12515955053692
1.10397400001572
1.1091004347876
1.09106768045126
1.08260285638437
1.06545175752307
1.02124181035187
1.05664011514253
1.05241459343185
1.0300891204434
1.05055828827746
1.02496200100036
1.0391947541232
1.05575655957817
1.03608242915938
1.00244878261937
1.01555559958871
0.995562825286637
1.02029335678001
0.995498897610992
0.985855336907025
0.977930448484177
0.974617738283782
0.976967511074633
0.984822798105268
0.974029824994556
0.987419464059229
0.95779889179932
0.942770075003933
0.925425035934312
0.937081305217344
0.944329657693608
0.940081124390053
0.923291849818063
0.902719341538096
0.937122578846351
0.920514597635072
0.882509293272061
0.919372251390317
0.884045739443676
0.896895230300817
0.893047908561837
0.908817743200223
0.894850243198625
0.895459160836733
0.886303867755552
0.888049349377889
0.890836445919004
0.867899221548436
0.868506227956214
0.871816804391223
0.83837049300039
0.864695739531509
0.83488060659957
0.846589623798944
0.828373507927138
0.814452265302845
0.811106656570395
0.817568664415444
0.807673226925286
0.814827287775016
0.790615643741721
0.799590007753498
0.790142359660403
0.788440149173111
0.793384150197249
0.766288987483871
0.779153252988375
0.806865712027883
0.773117043685078
0.776659668955847
0.762606450273639
0.767215950265512
0.750600185796343
0.756596561807381
0.760206225570177
0.759524910403066
0.756750630710756
0.756792194621946
0.743091715370583
0.728882240092861
0.734802037250546
0.738004626878541
0.718484241032743
0.723541805027531
0.710381027127095
0.707127303256003
0.701999736442777
0.705774687411677
0.70087427227606
0.703555694288027
0.693093092338624
0.702576876288968
0.677785595092205
0.681669573178285
0.686001563417711
0.686250979375727
0.664889788301522
0.673897779911957
0.684160187123085
0.674047318742015
0.677619695361444
0.662089030244843
0.650701301999834
0.65589113620126
0.637600281819316
0.649772726736355
0.655435688007561
0.646853522075445
0.635952136372998
0.635710714675516
0.623610922432223
0.627923318221869
0.619783761627462
0.627250168993707
0.62059612702503
0.620788929990634
0.621043822652115
0.606397090003534
0.590453882246394
0.600715624163579
0.603722541662785
0.590255384647643
0.585448975433367
0.578606333218656
0.58542356425709
0.586987725864757
0.563904600433334
0.569061755375421
0.578855739504069
0.569263764283003
0.574955687024405
0.562060407964653
0.565424484759237
0.562159118310549
0.550343525988141
0.546210037927933
0.552809324081318
0.548255688440885
0.550214347450605
0.555798754952767
0.544822084475117
0.547768506995928
0.537530639774194
0.547302827258778
0.54633340199104
0.529078307387436
0.522517361717385
0.521945843480768
0.514381568904502
0.524525534936378
0.510278695061674
0.524270982994139
0.51542977950836
0.518986714912346
0.518195946936917
0.518279279010699
0.494140556884349
0.503903705969834
0.511986765746471
0.508460042537908
0.505843130294361
0.511152651218076
0.490848610424719
0.503384571923961
0.498361322037601
0.486569855737869
0.485335536868788
0.502814732231423
0.502895302885581
0.486844172882331
0.487026678032848
0.486915062614698
0.483813152625513
0.4915563209314
0.480012720142193
0.480980543692041
0.478742917098214
0.490356240741089
0.477610705169455
0.486639790389167
0.482575153394067
0.502603655595198
0.480909709089069
0.489820606269852
0.495252532909066
0.497884658779351
0.497607969975869
0.489861850084532
0.494487982021571
0.505742428583034
0.500135054788422
0.511053219017365
0.510626725139309
0.511640034277321
0.501508443378879
0.513015528963429
0.508654892783995
0.51538376165192
0.521520385548921
0.528236032955185
0.51484681918621
0.525344779872297
0.53108706369024
0.537902879330637
0.527593589645396
0.536393754427469
0.534089151861464
0.548232723784892
0.54407612938284
0.547151589534677
0.549600835291945
0.567703609526259
0.542093643087767
0.57101903726223
0.553226035431984
0.566111515403098
0.559428319960456
0.582921672964293
0.562947992880074
0.580212146518619
0.572812425985733
0.578012462338917
0.572955065651649
0.590019788800167
0.593991304059498
0.60029239110769
0.594294179713497
0.599832318208047
0.589102708034987
0.617879060383678
0.623823794384109
0.629252350250191
0.62076241311578
0.635625221067286
0.634395122659166
0.646833669292007
0.627717210582705
0.647962707367829
0.665042791212275
0.680008370121854
0.651472717557291
0.636314599940971
0.634590408186979
0.68024477350673
0.685894299981433
0.670150161400886
0.65418576728427
0.6751177039981
0.662895135753021
0.682505542829711
0.657896708003036
0.672769658534695
0.659365209507883
0.677624659070002
0.663756498094354
0.689513531468548
0.65762713223163
0.663784176131371
0.665339016478552
0.676124667430952
0.661895251002484
0.680673016987583
0.652240023936318
0.65982022184487
0.666549425706788
0.660768424847491
0.653239492513301
0.672006811333345
0.64630782845423
0.658926892184905
0.644629720720478
0.666291401148983
0.654824524689705
0.657146778489306
0.654794658348333
0.676505172879324
0.661663456233298
0.679468543864299
0.656211019607852
0.669966592827119
0.67029797327617
0.669093549550921
0.681590232022325
0.654402794400984
0.659281335463835
0.680497099185676
0.675403114639664
0.668142847142991
0.65178733554903
0.661252657267627
0.647101707146214
0.674723214426632
0.671911577418781
0.659443859040122
0.658635137547873
0.668422330280576
0.650260053224745
0.684320747552984
0.64952191759333
0.66295760228435
0.661303149664088
0.644262836271498
0.642688983828712
0.651602681293342
0.650133831502085
0.648649372758527
0.635007585472377
0.64185979649558
0.632432867929288
0.636810446388419
0.616684961260005
0.618891614324099
0.611158282829313
0.630633150304711
0.609489042841483
0.619845971021631
0.611355993765429
0.603177086198658
0.605182164378624
0.616678234647274
0.582594981399408
0.587771553075338
0.585567476815995
0.579869532437847
0.57600462127879
0.565240962497369
0.563461078165969
0.561705587961756
0.549918170639504
0.555753480796037
0.544716567626687
0.560817926970511
0.537836058401586
0.535313243889888
0.512276739701366
0.528892932682325
0.513432710986571
0.519158309309323
0.509690385120071
0.513002778558553
0.499962241263708
0.497904998491893
0.505814499601638
0.501376193061746
0.494771120360592
0.491462473932791
0.486320533200386
0.489361795438815
0.483135954518103
0.484176068674752
0.473528046398248
0.474248151735788
0.467066276892228
0.471396417212868
0.470479519781154
0.461077181218263
0.452832883818777
0.467849214562088
0.454039728059545
0.472273794904389
0.455673656835445
0.45225566665826
0.451626891439431
0.443668387985102
0.443215503540309
0.449071672787423
0.43770869874532
0.445864144214405
0.440103009563742
0.428582732911158
0.441986567082191
0.436092199585008
0.433769175572193
0.423570236316449
0.425478435346549
0.43423266571407
0.420253161354635
0.424964416644208
0.410596825648122
0.420502665326978
0.416149086900852
0.423062180854241
0.401771345483232
0.423250103117984
0.412593367709416
0.418857219707201
0.411477687029365
0.418680283477032
0.40119615253617
0.406523445573714
0.401931146864414
0.407872629748687
0.406782830007189
0.394317780873387
0.38772598126943
0.396722327723242
0.395473802745745
0.394604383283145
0.393480105956568
0.402254087662517
0.385661255485297
0.391944398995478
0.380301075213314
0.396299882805216
0.390440643204487
0.387936932121581
0.374086201686447
0.386112727872216
0.381697288536212
0.383747971654773
0.372179959721264
0.385822055257619
0.371352216410132
0.380947379403872
0.375611311197914
0.379376573175741
0.36726691307621
0.377599562493574
0.375327316070614
0.369873593997252
0.377570795654853
0.370684370992258
0.368531775699787
0.370347577329715
0.366271118013675
0.365581164329217
0.360003936022056
0.35933621063138
0.35658250808366
0.367680805916781
0.358099318074505
0.361915603560852
0.357987185812047
0.366078616433728
0.351380646985636
0.360164294485032
0.352696242924486
0.35808132343345
0.349417062031358
0.36047054528213
0.354029222484171
0.361055302691082
0.349065091106745
0.357875827619979
0.350762740514757
0.354743148761046
0.346552127396306
0.354482694998675
0.345847793926444
0.352288112186668
0.350516482919876
0.354911704798994
0.347853904291811
0.349321829238232
0.345995021573493
0.345985614330621
0.34615107994272
0.345984514972774
0.341753784386389
0.348021760205507
0.342662230562798
0.342824028111011
0.341508887222628
0.344509760368635
0.33865402406573
0.345571397346397
0.335863395802197
0.343220654107168
0.342017029277174
0.344356962634691
0.33581319531766
0.344704698899572
0.33671990250001
0.337122048737441
0.335470467574035
0.334045787664738
0.32869132534285
0.333001809957605
0.334138356179757
0.329660523817829
0.327389096578927
0.330429429924134
0.322380888948878
0.332147725142271
0.323358913389585
0.329591283906648
0.328022872859622
0.328345613758244
0.322696864170595
0.332351538100247
0.327273478043914
0.326696514308412
0.318610814896625
0.330073441424774
0.32310855249011
0.320879004619222
0.320286292398937
0.320155839720858
0.318362027225852
0.323758433632162
0.31480190611796
0.317169525741787
0.312804769552278
0.322130492180739
0.310403903979244
0.314721785370405
0.311281902688688
0.313999764366862
0.311390216185519
0.313025132015344
0.310864939770571
0.313102333711164
0.305870911946798
0.318550135469475
0.30471559265211
0.303781055009853
0.301042220214276
0.303517206451741
0.301332122935711
0.308620149367201
0.302507032911881
0.306657793163768
0.296771076340585
0.299543852570254
0.296797402092287
0.298529121654937
0.293405942838631
0.297508808670408
0.294313141259484
0.299751028236271
0.292267694544679
0.295007817300992
0.287046036239375
0.293358596911396
0.284764430939733
0.287990220500004
0.289882890520455
0.288015635310894
0.281859872434531
0.282076487985049
0.279808274226225
0.277508032838037
0.281108890283265
0.281750501954278
0.279393744372848
0.27552697130394
0.274148978815609
0.276563305789312
0.269624365933808
0.275681155107039
0.268076342946207
0.274448200789413
0.269074822286235
0.271635638876853
0.271500217944398
0.268886190486341
0.265352536505217
0.264214723006501
0.263784729229991
0.26940625908089
0.256378943465124
0.267046915620158
0.260992577636169
0.261441583811651
0.254819033119712
0.258583732715515
0.25357932777693
0.257148400507712
0.252661353173597
0.25490285741676
0.256126085669803
0.256768400209519
0.252022874003281
0.253533173918557
0.249619731238178
0.24971562736171
0.246290508427117
0.247386894924367
0.245506337747137
0.24556215950975
0.239264300725289
0.249457025320221
0.243454446124435
0.241592974762151
0.237538521035148
0.248199235822992
0.238556568706092
0.236339371865222
0.231873039174447
0.240358465457926
0.233259760296886
0.238186077852887
0.228648268837598
0.23572745974808
0.230204181712034
0.234559358684963
0.226814564981054
0.231830348651912
0.232249953134054
0.23544326414575
0.228395731271234
0.232652271028661
0.222434023634489
0.225008281418323
0.224412488875895
0.222654302455897
0.220738543040838
0.224595597724358
0.22356128022181
0.222322301853129
0.222154520495678
0.218652189781158
0.217153579992581
0.220810902322251
0.223312628762689
0.222749465576375
0.213905475266669
0.220403559810623
0.21583999170676
0.214013893432161
0.218639762978702
0.219233608983608
0.21355357780028
0.215052863580465
0.217206361915983
0.212050381241055
0.213385130109126
0.21857810567709
0.214326883903956
0.211319117820741
0.213072035134382
0.210755944708023
0.209520288483716
0.213790895642419
0.211457146886766
0.213904596771434
0.211117516532817
0.213029389647592
0.209901768333731
0.212631476292798
0.206030616858784
0.207452667349432
0.204965679525735
0.206533261859329
0.202860188621564
0.20689056552264
0.204495815908248
0.203824225265732
0.203242711830177
0.204791701907562
0.205291827508529
0.208282595451073
0.200026467432098
0.203956651861668
0.19651179599115
0.20304205520965
0.201566120773472
0.199930290053237
0.198056578265807
0.198958640517776
0.201266849534017
0.203027301133135
0.19938914669049
0.199179190824078
0.196138307594171
0.19566158136988
0.1956351610599
0.193877992230249
0.193202328755675
0.194963429902533
0.196740096636901
0.19795880397671
0.191277990212206
0.193920559820031
0.190604404348862
0.196457020236867
0.195085055256567
0.19356201404924
0.190598611514213
0.192604436540755
0.190698446740725
0.192257445184532
0.191637085892474
0.189776880505117
0.186288831673836
0.186627062876909
0.189452107664576
0.188076628104854
0.186512076830375
0.189217071410758
0.186239792985281
0.188263504597451
0.183642040619161
0.184125024456112
0.182050852155323
0.183893648645373
0.184779408695809
0.187092954064802
0.181882920553706
0.186916663094879
0.183475332604045
0.186280531818697
0.184979972684024
0.182951263637741
0.179818351148953
0.180681922822565
0.175319515719821
0.178737656931852
0.178775716801124
0.180695956480447
0.176221979663585
0.177127439590559
0.173506556373069
0.176989955708133
0.178027857435857
0.174614499186391
0.172081464426114
0.177013645411819
0.176618962622737
0.175785874701097
0.169336347581891
0.175849431732437
0.172496678754228
0.173333581221547
0.171691931527595
0.170755525858821
0.168610230725859
0.170596607936901
0.17006249202041
0.169730116236839
0.166955425071721
0.170069141798827
0.166367940042493
0.164048191567896
0.164877063722795
0.165903427806954
0.165007218205419
0.164257982584301
0.1624405456825
0.165938810149716
0.157957954776684
0.161928333397677
0.161070800327734
0.156079315618505
0.16062688782135
0.158270726574366
0.153757952607837
0.159262575811472
0.156219316204217
0.158118348342164
0.15438519495855
0.159348759603323
0.15434718549191
0.15322280598514
0.154850940910421
0.154631583599802
0.153656377283527
0.153331368348988
0.150678144349627
0.150856118504305
0.149907924727817
0.149544341160403
0.147586755802501
0.151710502398678
0.145841210332832
0.147534347952099
0.147517577443518
0.150325788039446
0.144057450226984
0.147987696581884
0.144227871978709
0.143877332378206
0.143265687036862
0.142136090487045
0.139840620308063
0.141904847649655
0.141215702436828
0.141733538080587
0.138705794412623
0.143164612313565
0.139721500463996
0.139106789416014
0.139449516261943
0.140951054811703
0.13421201732579
0.136125520095001
0.133593916322985
0.138587570022545
0.132503168958607
0.133281959471382
0.131453689142546
0.132165695623927
0.12941676836917
0.13181523100643
0.127259862174581
0.130745719377327
0.12923332256602
0.130629963095689
0.129168214806423
0.132313755641413
0.128738537095708
0.133599624915261
0.125963007080354
0.12550641215414
0.126330348415004
0.129999082246021
0.126736196285267
0.126507268553852
0.124562394293013
0.124001046251911
0.121121195072078
0.123582743509857
0.12299926497285
0.129602719185639
0.128299880517957
0.126246282023579
0.120172895254228
0.123568093360675
0.118432909098184
0.11964020202391
0.122446713112696
0.123181134249321
0.117099994615123
0.12373708763575
0.120467066385349
0.120454255657338
0.118418322602849
0.120228316158828
0.117644776112538
0.117444977465406
0.114930997013909
0.117386747548924
0.114926936913039
0.1193727419253
0.1156855422139
0.11705466830759
0.113212109776677
0.116587559649852
0.109429719588855
0.114574565371135
0.112837725862678
0.11468233809209
0.112796053541384
0.107493186353831
0.105672451633031
0.114828808015162
0.108894199979958
0.109840023209732
0.105476892278821
0.108126525250868
0.103336216160557
0.11468628648988
0.108435371639128
0.110262225148778
0.104353692997316
0.10849499083364
0.104883331352122
0.114026509929597
0.102277706122965
0.106567498685638
0.103008886957212
0.103780338016485
0.106397518467041
0.107305655762424
0.101555962704527
0.109945083363155
0.101496886508851
0.109363131276819
0.103140218427673
0.113265414799817
0.102258621610972
0.108028148807956
0.099433801579761
0.108742119316175
0.101045531836896
0.106989021019027
0.102979689925908
0.111761172340503
0.0982913330931965
0.110325682904807
0.0964522804099293
0.108459981104109
0.100140996946053
0.107218533352234
0.0984556138853196
0.109287942192147
0.0991072189869062
0.105737650628681
0.095330620757354
0.105557301985394
0.103530345634973
0.102069769326252
0.0987686110558251
0.0983283498098053
0.102866060573841
0.0975558984833948
0.107995481860094
0.0930379471834157
0.109632740254792
0.0938620611957257
0.111915538728038
0.0852746322197467
0.110075700913082
0.0867418498276479
0.107913753120841
0.0886074320864698
0.110514030034178
0.0949168344212876
0.103978903116491
0.098908785060507
0.101308750633266
0.099993198142478
0.0982398452249226
0.101486731106723
0.0985602273407191
0.101478640372987
0.0994409074980482
0.0979163700726214
0.101696257532056
0.0968589549679515
0.100348314443652
0.096993997127075
0.101553472940394
0.0983054574806335
0.098292011226655
0.0980240923416351
0.0984582374459507
0.0978687593855328
0.0976435198055767
0.0978862577419025
0.0954690636417295
0.097278543130274
0.101421604012392
0.0999887233709776
0.0997218800823003
0.0976220742176895
0.0995568829857574
0.0983577942250746
0.0975452366779674
0.0983357881594438
0.100417038604022
0.0974796503481665
0.100535932458202
0.100794691230051
0.098438769351821
0.0984188018637777
0.101458804099145
0.100795466276503
0.0997407337807136
0.0972751235925348
0.100491606470911
0.100837177986541
0.101029052451174
0.0986899230147657
0.10035072251092
0.0981314984438203
0.0985402604787816
0.0988527764024953
0.102419472668116
0.100444399773051
0.0990035411983097
0.0974703652227532
0.0990292368436755
0.0991542993579606
0.0989636729066056
0.0988260671294015
0.0995312971193659
0.0987296665554247
0.100708748874792
0.098174141338545
0.0991227658726927
0.101179531197586
0.0991065469714312
0.0980504481129503
0.0971306504098821
0.0985312358464239
0.0970280180174102
0.0978146179121695
0.0992841258539655
0.0982958168037049
0.0980726587401875
0.100958013977466
0.0991329912628457
0.0988180054520914
0.0977611631319502
0.0973123286685148
0.100713195541601
0.0998824249214026
0.101638037731585
0.101867650445854
0.0969538502830953
0.0970769632755856
0.0996259527115551
0.0994912852915524
0.0987519782805726
0.0983722547824238
0.0992498182096333
0.099976969760593
0.10079570474816
0.101514195586966
0.0986688286490323
0.0981493455172615
0.0993004499422451
0.100168481628459
0.100367662933501
0.101570969293628
0.101558640734567
0.100584900806137
0.100024328200348
0.100743989424798
0.101931564869263
0.100095576494097
0.0996928026810023
0.100543508436939
0.10080625116634
0.100995810688397
0.101281824219359
0.101547176526865
0.1029503758752
0.102954372048769
0.0994739008657421
0.102831825930787
0.102581393759377
0.101592914158034
0.101249154968601
0.10181651888578
0.104812831240107
0.103778193751509
0.100934071915912
0.104698166320995
0.102579825620724
0.100980966938037
0.104472208466723
0.102332054249045
0.104740691205862
0.105037348205691
0.102755874527756
0.103350760667322
0.10553573328654
0.104161126206092
0.104575858668478
0.106117267546831
0.106459562430901
0.104974715688083
0.102112234310105
0.102443331010013
0.104159504841283
0.103703006879287
0.103041591549258
0.102078691737561
0.103451578502619
0.105945323343168
0.10654391491856
0.105019500736143
0.102365310911774
0.106414705679399
0.107185687193979
0.10881431618707
0.107010520091085
0.10534889187162
0.104170527948019
0.10501128125319
0.106648976314795
0.107225568432526
0.109895292702364
0.107573842522079
0.104618626238822
0.105808872619475
0.107135309123822
0.109230163633678
0.1074709958985
0.106706463625749
0.108005409666139
0.107067210498207
0.109251686569521
0.110109211434426
0.107762616525459
0.106913762661673
0.108288259760723
0.108829133494293
0.110593850333171
0.107232792545793
0.108886410941567
0.109271748531055
0.10823929067863
0.10695885918581
0.108110863938206
0.107301262266043
0.108328967225279
0.109779902999799
0.108568607007078
0.107429455457703
0.104658653305558
0.10486592475073
0.106156009920118
0.104815394830127
0.107351422534194
0.106954686831961
0.107025793310693
0.105303424308347
0.102391314321962
0.105416264721294
0.103943885141704
0.102573951495197
0.102996409656845
0.108011095645093
0.106985118494331
0.103631437889906
0.101590973826783
0.105743639808945
0.106716836221645
0.10304344098932
0.106300773368669
0.104856579358468
0.102743673748603
0.101398114070032
0.102676560839499
0.102427498726204
0.100786401385829
0.098875205067751
0.100556960306764
0.104321824564385
0.101243030895018
0.101915531391067
0.10110792849981
0.101377113509157
0.101073945408556
0.100586195739534
0.101772278856098
0.100391850353038
0.100396825329224
0.101276526696097
0.0994847374587474
0.102555062180667
0.100589683828227
0.101107606718583
0.0972868227765891
0.101735508479122
0.0993170340554933
0.0984402991201851
0.0992148167126725
0.10041025746776
0.100918127733174
0.102092080925185
0.100248560582908
0.099287789129156
0.100028658701185
0.0978243831471381
0.0985087735682139
0.0962347800098544
0.0992466466078093
0.0982587808222977
0.0950998570939049
0.0990159831411791
0.0969696473047018
0.0953785358071397
0.0984077646917673
0.0970408445556033
0.0979609908714587
0.098587862118197
0.10118182190148
0.0988863605497156
0.0977316173840424
0.0964367843931526
0.0981369024751009
0.0989247794562512
0.0983877993938889
0.0977126814450238
0.0993639688078252
0.0971600552402466
0.0978301298995657
0.0957116693266714
0.0949652642702669
0.0979021794957894
0.0980592738306603
0.0970726090039711
0.0964747104140041
0.0980105199127852
0.0962716514834548
0.0972827017782113
0.0956063636220652
0.0919065777986684
0.0985589839205802
0.0968769860812558
0.0942731532952365
0.0929822563997682
0.0965591448135167
0.0965372123737421
0.0962670859921339
0.0945939756213221
0.0959225202274343
0.0946008690676694
0.0919370757165073
0.0926167726556067
0.0944453610466335
0.0933256804516706
0.0963397463550879
0.0912963327067161
0.0918259504435558
0.0946367265089591
0.0943203161386698
0.0923562695376896
0.0931840446728436
0.0939307770727147
0.0919851853023294
0.0923521780176566
0.0935635381337991
0.091557464520897
0.0913701049979705
0.0896475333938006
0.0891090247076781
0.0915013270936831
0.0904959616157787
0.0911983482499624
0.0892283124679593
0.0880792425671767
0.0910022008113332
0.0875385681284665
0.0883180678174986
0.0895960732399212
0.0885366449781778
0.0870126386958683
0.0861193295611501
0.0875946453482305
0.08659604639178
0.0886055486895903
0.0864155932641684
0.0847061597415087
0.0852906764043651
0.0850407823467582
0.086150366967125
0.0873762706133236
0.0867601818959559
0.0845949673561036
0.0855463945477787
0.0851547973657563
0.0849991450004317
0.0835794124341808
0.0822774827808927
0.0833196165769095
0.0810630644838007
0.0841038888867759
0.0815671975637361
0.0799989394650084
0.0786390777197677
0.0823626343013713
0.082152568152236
0.0836513310613521
0.0820971455773635
0.07852169298352
0.0788581504297802
0.0739643400647779
0.0778949675588232
0.0797073276644549
0.078718594054486
0.0819641939365863
0.080162385925458
0.0795977310002051
0.080572308656208
0.0778362151373376
0.0790235301461942
0.0769062204536326
0.0769651447548352
0.0801246749554617
0.0794828699846195
0.077684485527768
0.0786206909753852
0.0766042636102297
0.0777978113650742
0.0783589739136279
0.0767275570507334
0.0765776926982572
0.0758724538040819
0.0759417697548202
0.081119297873248
0.0766542175928861
0.0768679949698352
0.0760396937092454
0.0794330198272633
0.0757981333985304
0.0762060575233267
0.0773096824423796
0.0763246798187168
0.0760709045757982
0.0782289904548802
0.0740739835723056
0.0721206003002544
0.0750559734452056
0.0735040731210029
0.0761567403652895
0.0762030070372722
0.0740307189614737
0.0718702457774135
0.0755787865408655
0.0745889035269673
0.0732266088851026
0.0741673518161584
0.0730784264208042
0.0731174597247474
0.0747375026820249
0.0755288820274674
0.0747870438166616
0.0705939206034779
0.0741204739892785
0.0718215100856735
0.0753283851876822
0.0728874506649632
0.0755040302492755
0.0673173057641377
0.0721000108108016
0.0722065362342458
0.0717059942014239
0.0736361929216434
0.0737648822834548
0.0741373364218829
0.0720143547849641
0.0701197599765789
0.0713552319501615
0.0715598051218739
0.0706859065638483
0.0717834418125028
0.0728404628379859
0.0699016158455466
0.0690848826411515
0.0716602884170034
0.0726798806000513
0.0740765867777068
0.0721213657020563
0.0701050653480884
0.0735965947296857
0.0724617343844996
0.0722356263235556
0.072833911206199
0.0684344273187477
0.0703503176893327
0.0706135850270781
0.0699183762395405
0.0710111997152196
0.0732636642396363
0.0688027547382732
0.0713527195596251
0.0712747138239047
0.0745432751313116
0.0675552637038843
0.0700728886481358
0.0706242144954424
0.0703061221865549
0.0715011274381819
0.0715154235925428
0.0712764772153036
0.0712178504871514
0.0686602147794869
0.0708021846609793
0.0728644544263203
0.0741286556649683
0.0709052810706442
0.0728569916874649
0.0701425779168844
0.072959652955661
0.0671361445143187
0.0732650389873129
0.0649436283655618
0.0740183261167034
0.0700786053246783
0.0712809325380772
0.0713595752746924
0.0702330383953113
0.0704212136839464
0.0713342699106074
0.0674072239727474
0.0721437880253782
0.0697402710275811
0.0713118434411746
0.0695873866419991
0.0696120758581297
0.0698145660337675
0.0704815932309185
0.0674190864227403
0.0701422187481367
0.0704633425902643
0.067803898676841
0.0709605999949435
0.07142946170441
0.0704018480160838
0.0718650808334402
0.0713590974476191
0.0700592071148895
0.0690592679147502
0.0731461628507402
0.0691560211588773
0.071334215819519
0.0712126596284238
0.0717474231269891
0.0709861069496535
0.0711090525549097
0.069893574819434
0.0712026476913718
0.0671670536795173
0.0683963752306663
0.0693956697632822
0.0684520723192026
0.0721994891078698
0.0711388514591402
0.070831845459383
0.069231679941837
0.0726272606610474
0.0708338141063547
0.071449741259707
0.0719930880809854
0.0740299837655007
0.0708013126370501
0.0735386909415593
0.069478069819484
0.0734992200254763
0.0712609681374792
0.075569942023361
0.073491225860619
0.0730337967902321
0.069332188999804
0.0750038196137422
0.0728657286647133
0.0709276432240867
0.0744755952440546
0.0677571315741071
0.0700690732084109
0.0739350081083488
0.0754929052359203
0.0753934520546428
0.0723508755056496
0.075943391927159
0.0724670463810406
0.0744541664333721
0.0729915032734048
0.0733354999988347
0.0764042261059212
0.076126512089775
0.077725221733782
0.0761829326991627
0.075304496737491
0.0734317111718155
0.0742730624377334
0.0751231813060061
0.0756752820355935
0.0774877926622504
0.0790253916632016
0.0748489738316285
0.077875294961359
0.0762114269647742
0.077989192944087
0.0766596963575989
0.0779413313974372
0.0757168981916168
0.0778275809425697
0.076342816323431
0.0793878035206505
0.0788323429447534
0.0788325528552637
0.0811832908553149
0.080835227892861
0.0797948621978846
0.0813713236654822
0.0783849153273067
0.08374076122492
0.0746221133392148
0.0894277224440675
0.0734215505857778
0.0851417178492592
0.0812258573791212
0.0845786947776984
0.0815111182177993
0.0828434639717814
0.082019370048528
0.0825946612770417
0.0843093782885408
0.0813154654714577
0.0831044943078278
0.0789227842797376
0.092215154482069
0.0810304700918292
0.090095007484448
0.0837369832160979
0.088468738930694
0.0857997679199062
0.0931801149906523
0.0835058248982949
0.0897854353475691
0.0887605548274356
0.0890504237029607
0.0921646616343227
0.0892063325165158
0.0897591391996839
0.0914131577456923
0.0933464298463272
0.0930249311149512
0.0891435320445161
0.0957739797545016
0.090215106296167
0.0937858741562186
0.0972715870924883
0.0948234312571234
0.0972476855756349
0.0942920488378009
0.0968091488457911
0.097748487843606
0.0960040563525343
0.099778643764582
0.099008275136141
0.0994275605760813
0.0958207668720987
0.116979048232219
0.0969616019103682
0.110156891209883
0.102825420929463
0.110006274834267
0.108323607492711
0.110853923623515
0.108304952989477
0.113191409503839
0.114251995729622
0.114545946858678
0.108025928091834
0.122610172683914
0.121465866928831
0.122167221131328
0.12061378941785
0.121068566137986
0.122564740941595
0.127102621821761
0.130029692245378
0.13374169953052
0.128891288511007
0.132528497034235
0.139309706087434
0.133439717172768
0.139379703953756
0.138763143584035
0.141363019000251
0.139821608013611
0.135996523064381
0.14712644104294
0.145225237448625
0.151304994855604
0.14698722073043
0.150341116016553
0.150531210913656
0.160812557658061
0.160570798169837
0.156430490764739
0.17146456548785
0.159763915191102
0.166124059435158
0.162827070927111
0.167324125569573
0.166963612319991
0.169883434550892
0.172445051151863
0.170999369915966
0.184389554876287
0.175289776882365
0.181562521908158
0.181579583965022
0.188136328813737
0.189285335859453
0.184995840091091
0.222402732987488
0.203539145923387
0.219162936885378
0.215252825897377
0.221229950399698
0.242899661379794
0.24209574647718
0.249468687390071
0.256926085474874
0.260817658393063
0.273063720980222
0.281233697
0.282059388682055
0.289583788421924
0.304673953606855
0.301934765286168
0.321659889910125
0.327185217440119
0.352194339756818
0.348296008600208
0.358644910004991
0.355622859717918
0.384181222860309
0.379689520977856
0.400706036087493
0.397406845553984
0.413525973095437
0.435751365807096
0.430242168811255
0.43978258616316
0.450617969979927
0.469237354275643
0.457895952625549
0.480718892241385
0.504400138466652
0.501197235744502
0.516050592190376
0.522939289592807
0.534433046718637
0.529430054879059
0.560119707550173
0.56051007632361
0.573657457873902
0.58686512553097
0.596178394246428
0.593070128466337
0.593234565173309
0.60705486254217
0.601892488645419
0.624090222802774
0.645375588599327
0.659326903666865
0.640407406075581
0.629489785517127
0.632488486871337
0.624533418778551
0.652569509847306
0.636906431377448
0.648869318858007
0.655198062842177
0.644015888323386
0.647231921067758
0.643071126670734
0.650072462347984
0.650696065954081
0.651539574134285
0.669368440329477
0.666588752229523
0.654825749936377
0.657235354068415
0.729558941340056
0.64451900548767
0.652218043423951
0.66240651867779
0.664648013612451
0.655743637549001
0.6702044043215
0.64904729402657
0.670606312329897
0.646258618572274
0.648572519405449
0.621264002487024
0.646764166948202
0.629627674482986
0.614521052359244
0.609927037667286
0.58949254907949
0.587237709365469
0.580645905121034
0.594010401572582
0.608112417194512
0.574359142166869
0.576967530904587
0.557172926704325
0.556740485579722
0.546484449645976
0.555892046238371
0.544901911363699
0.55010070487249
0.533612387004978
0.540618434573263
0.524500189094473
0.525553046527798
0.531208951136213
0.528201274546667
0.512141701898175
0.52238526079627
0.515676026841385
0.519947204724034
0.506905786737024
0.520056030039885
0.516758322077392
0.515395710129944
0.519577195144768
0.518518070408858
0.510573210335778
0.503458417472013
0.512180394419504
0.510499316474034
0.505371594218952
0.518064186225476
0.502484438823011
0.502260020172868
0.508443870902353
0.51595325785273
0.502314477596206
0.503421854114476
0.509471454040313
0.504351451816773
0.504605920221684
0.504255636720825
0.503628166983229
0.497232778123285
0.53295404089968
0.509886065125359
0.487467833453273
0.495407681448966
0.486971282751023
0.486988895379335
0.483632823639261
0.508248950684242
0.497178364714783
0.492812743395156
0.476253529142935
0.473056793821178
0.477223362103815
0.478477293250991
0.465169101859341
0.481156547789396
0.460698956790435
0.477605631296613
0.499008375246831
0.493190644311797
0.484779959519063
0.470354540159928
0.457055249683748
0.45950149957116
0.480607044275639
0.456943032881654
0.460059356716701
0.455204288967219
0.471504100076227
0.464277120933817
0.458039785165523
0.461378973777283
0.447619958912216
0.456491279229345
0.455168198532068
0.443540429214934
0.445036193690567
0.456533518977317
0.43513533599963
0.456682428114356
0.459723416051883
0.438044839415116
0.425955877266908
0.43282576585309
0.421908969681317
0.426572700548505
0.445025084987126
0.416803793560231
0.413193589410766
0.409066825128331
0.400421867226264
0.400968388804184
0.395394912634374
0.395602935389611
0.386508882233291
0.401715215123391
0.373006536951062
0.385723455835154
0.384479001413535
0.392538336034267
0.38078525455261
0.380287525917131
0.373046109443458
0.380862278626772
0.383094411769801
0.364732861978724
0.369316608523103
0.362671739146743
0.354407624369709
0.366085055652724
0.351334142419687
0.350487005105268
0.341444500631407
0.342090180827479
0.344225515533829
0.344584470516139
0.342603267114785
0.335404813335425
0.326070158509684
0.332000777360738
0.327468542771404
0.326769215892871
0.3197120376676
0.33211732329401
0.327415229547569
0.317763491931233
0.342371515142344
0.327780882429661
0.333921014688534
0.334964467644831
0.329874741066254
0.335986655417504
0.340956851193387
0.346764460382312
0.345064891903004
0.344131971792444
0.354960207857402
0.352591417716696
0.356082154466013
0.358389776437586
0.367223747051479
0.372658854205739
0.382189824970672
0.384195308510865
0.389907554417439
0.397623728444756
0.404712460119362
0.413406260128791
0.435106598738461
0.421750181297521
0.440658776343239
0.442380790971233
0.464330864013394
0.471167841785223
0.471049065955092
0.478423869825291
0.48511997286632
0.4958627844942
0.492352911261516
0.499697171020473
0.525416700524688
0.513581721415988
0.529827732695705
0.533283713711161
0.538271874777962
0.536051425678624
0.559131295159561
0.552499797067344
0.570554505536887
0.585090025825671
0.564651999152112
0.580547109061654
0.568381741147492
0.573595519666974
0.578790177151259
0.58372063296019
0.581187280962026
0.576136985107074
0.60486572113508
0.594580673375268
0.591636126920027
0.599588640653216
0.603342639616256
0.605361481381039
0.603925326329147
0.615426836632621
0.624087998005278
0.623448918860804
0.620436809813713
0.608716067088115
0.669046539553248
0.646425075540093
0.638268660476774
0.655513915151546
0.647068011186892
0.661394582195219
0.653568095744062
0.661995075448695
0.675716893688822
0.669699831215181
0.674609617973256
0.684693091562715
0.686105379040597
0.680049648447529
0.705097706734883
0.688195347291278
0.70157407123084
0.703367204414887
0.709040078098673
0.734546925853351
0.707400226482809
0.722346071849126
0.711553309079014
0.727368635089973
0.734298815699638
0.733778562575926
0.725961626307573
0.737799455668162
0.742513345758876
0.751651666409932
0.744871302140012
0.745453508494442
0.742861261468407
0.723966237386162
0.751012682561663
0.744238559265327
0.7351966665722
0.748908627820828
0.744003510242689
0.742166678225121
0.741141324645419
0.737639774817249
0.73979286424062
0.740070413724935
0.731422801526801
0.751428405892023
0.748465930674162
0.742256723895763
0.741015994394586
0.735788405073271
0.732847806146053
0.744071032278729
0.746930880870622
0.756752376869665
0.751462564889411
0.747673585756678
0.751117482565786
0.757521426420699
0.754049613174788
0.757471307531697
0.754076185849928
0.779288631582738
0.787562184043546
0.780329032541477
0.773796607894937
0.77870874050896
0.780817026379993
0.783249433745367
0.785566497354293
0.777588611263181
0.77547573900462
0.769584557493801
0.771056228379197
0.775822594586064
0.764896330248229
0.756769770707628
0.751690798190243
0.749678551305482
0.744328711228704
0.753796475403855
0.731344942232413
0.736711499953354
0.728139490183074
0.714496434147028
0.715690098046313
0.709311499219097
0.709778757497228
0.702128846232677
0.705863263033736
0.702245509044438
0.688681236028218
0.684352883135434
0.67865466177536
0.682912747376043
0.69042509831555
0.684542700850162
0.682155862616186
0.681573771538943
0.685703180851113
0.688780491378448
0.683291573621334
0.682414057818641
0.672637731074845
0.680209022013794
0.6818568471513
0.667999615486941
0.679393968059512
0.686979457617838
0.680244259711941
0.67781347407738
0.678102417293383
0.673900974097465
0.673260941444461
0.666764204209775
0.677880276185261
0.680853928072302
0.673358919907768
0.669105330290806
0.671752567023157
0.671166422567269
0.672550531906976
0.668375023913245
0.672678855999623
0.677827649912599
0.67125863875769
0.668990525511316
0.674727074595761
0.68305283145964
0.673410601792181
0.666510465142427
0.666710416735912
0.672700145202089
0.668368744141218
0.672968297179409
0.672086757384991
0.671822289948415
0.673835884246198
0.667409842026337
0.663265526523837
0.670649976250739
0.673564109975763
0.663792662506105
0.658447886698792
0.658224133012239
0.661511027968816
0.655504169326819
0.64753858329367
0.645632430481974
0.645872103121863
0.633918927997009
0.631568690133369
0.625198428254874
0.620086396681045
0.615017439227313
0.609507774047539
0.603565073040147
0.598776971429818
0.599662937671333
0.595622036180546
0.590133704690626
0.59158894169598
0.588680147930714
0.587261418098841
0.586059076600769
0.582383476601488
0.581948498279571
0.577673973235384
0.583619605690337
0.58511269563568
0.578703083079328
0.574711626802092
0.580298834185576
0.582004928778042
0.586067255927847
0.584570552171174
0.583491488400067
0.58687040778184
0.587883120235873
0.595502810201219
0.593499785170785
0.594004488548512
0.596955014154402
0.603971148831122
0.607641837651241
0.605971619195448
0.607140744261071
0.605464525440096
0.611575635520115
0.615165180408237
0.617769845253066
0.620545908424568
0.615663720145604
0.615805447900117
0.620565519182024
0.623386978450492
0.61769649386574
0.617428019671212
0.611232205002478
0.60985095441454
0.607422275103167
0.611409936390743
0.614729265048544
0.618519821844453
0.612219437897834
0.605646286234084
0.605033213379362
0.602657182249859
0.602570195713297
0.603700675535356
0.603849141387321
0.601368833743873
0.594645971818624
0.596961338686285
0.589595212943267
0.587793246555825
0.588765574042631
0.589359516810619
0.590859563620862
0.585132300648371
0.581357111736015
0.583057835858023
0.578029862817978
0.576322371956328
0.575129248339775
0.573472352526667
0.572360975981704
0.571794048985942
0.572127801632196
0.569129515209216
0.569664372242109
0.562875802898463
0.561300702086721
0.558512023550631
0.551193073059095
0.555574925212502
0.548769516276891
0.547271375297737
0.545485492384919
0.536466318021938
0.531705307015532
0.532617044398291
0.526685806065808
0.520324246622143
0.519050019946674
0.515713457018159
0.510804488992829
0.507676686781692
0.501709706572094
0.504484045944604
0.502349028089409
0.503620869328904
0.502837451318582
0.498734286661028
0.496388895822825
0.49631601305056
0.49282101767466
0.493557597389542
0.489289640308749
0.485562765157642
0.481981240883388
0.475398657218128
0.47299194503614
0.467626943296497
0.463137697603462
0.455478824506458
0.448199893748184
0.442110063541942
0.439856795501676
0.438153914365002
0.43744982673814
0.439929836238434
0.440154754552661
0.445778163215663
0.451445753026099
0.458347933645776
0.472312032063869
0.481639924104805
0.492262972969829
0.508267502930942
0.525873899783134
0.542451934679658
0.56227959537373
0.585997691943316
0.605861471408318
0.632002575288602
0.643044825278232
0.662711754902896
0.687016350074302
0.698486738018351
0.722162562047115
0.742415015702049
0.76561296783958
0.792178416730866
0.797168992818091
0.819399064707055
0.838406551462273
0.848762776243271
0.859083844701471
0.872211311964659
0.886158195714508
0.901386174882061
0.924013227748139
0.929470500484801
0.94213347835046
0.945034592407123
0.939257770671613
0.959757322843868
0.967204635964246
0.966226836177113
0.971421815114051
0.973313099306383
0.968835665383286
0.96531516393863
0.972815164860794
0.988011630032784
0.981356326684959
0.97399540952855
0.97645694493964
0.985439105717681
0.987069807589888
0.988633027509461
0.997498058333526
0.992812297350755
1.00803355903492
1.0046448957206
1.01710742959856
1.02403035401988
1.02687835104895
1.03907036945179
1.05667480939008
1.06139479297356
1.06398028904941
1.07969581202488
1.09892377970122
1.10858751888514
1.12946175169478
1.14531289535085
1.15126491364574
1.17905573211008
1.17194538372469
1.19651879865399
1.2096946989991
1.20164096687512
1.21885064944588
1.24212389416689
1.22044039933368
1.22551250800615
1.2399687861526
1.23853239928048
1.23571364048448
1.21732040004845
1.21822008542995
1.20928650532213
1.22070407756806
1.2296708839402
1.22310090825292
1.20662070641631
1.22971867330976
1.24043438802652
1.30159973372476
1.27688332144629
1.28083496953872
1.29606400857068
1.30443778353516
1.32917988022863
1.36425819314395
1.36898619980338
1.38333025719262
1.45545294599794
1.45550814883822
1.45694171483565
1.45686343246114
1.4832666404629
1.50516090272911
1.52921791192592
1.53407003589451
1.57695902105649
1.57005995705572
1.52062044646891
1.61157129333287
1.69452811205159
1.72652544669909
1.7084376882936
1.80176218772657
1.77034128896467
1.75468010528663
1.77411592974288
1.91627746542553
1.75062726037308
1.8245368984083
1.96185967635492
1.84707207813165
1.94062600970496
1.96080573979196
1.923431635491
2.04271011997671
1.97145958751902
2.15649885624519
1.93266925950952
1.97640967647758
1.95655094440084
2.08453426092254
1.93346727481743
2.18612446609723
1.91794018810596
1.8839379734252
1.91405909001528
2.01156628135916
1.8387771307948
1.95375956133572
1.97033764409886
2.18638977033781
2.03344128819072
2.32291874792729
2.15280070249322
2.16396768873153
2.1820439033052
2.24890723625836
2.04924392105734
2.45228737847491
2.18369178886181
2.0925108430256
2.22063324080141
2.18616130559138
2.16259912563391
2.1547524517891
2.26883223482515
2.222253419478
2.20627952244296
2.15740831103108
2.31161538618691
2.53463753768469
2.25848035929513
2.67885569801008
2.13479612193227
2.59050789451666
2.35396346194316
2.19278214644754
2.32481276367333
2.55385747496195
2.0473296152782
2.59402258643459
2.24428324518931
2.58472517224145
2.21193573140791
3.76527540588951
2.1582366365816
2.78940505425908
2.13430684071713
2.57427979957973
2.2446014797028
5
2.08009584122611
2.39671079260274
2.40649668895297
2.17425004438527
2.44244054131589
2.16309428162717
1.98452465921854
2.35664350895822
1.89490217297431
2.08875809974217
1.97848444069263
1.85616824125633
1.81528182840097
1.78755315654071
1.84607775722442
1.90855277334473
1.72316044413064
1.80634218060455
1.73932936042555
1.69701445841916
1.62518561414763
1.72304010164828
1.67871285907321
1.72867832439301
1.62348082388048
1.63928483096808
1.57229634930969
1.58818418899497
1.58855322790754
1.61824391595627
1.50814901514633
1.60881887470081
1.50933825747853
1.52208398649556
1.44960982586377
1.41496955010548
1.36146857384042
1.39048342352853
1.34037714082091
1.31063729897913
1.2666028318056
1.21507970239383
1.17036492801289
1.14283663107676
1.06455499716226
1.05521651582677
0.967108155002663
0.953829799350818
0.905076374857949
0.879702096538435
0.830424498398215
0.783363859096217
0.781505370098332
0.751031667440376
0.722452160533759
0.697954513569493
0.688386539687006
0.669260680584747
0.647786161024695
0.636042384713745
0.634213190259855
0.625246248648437
0.60949165761212
0.615935014532205
0.611212279931371
0.599659980986958
0.609971544324488
0.610645087765592
0.598435622236936
0.603931631881194
0.604398418633363
0.607737580744246
0.610509886326083
0.607614766299553
0.611731530890151
0.621041157809406
0.603696079108569
0.602150930847267
0.602003404398695
0.603588615251534
0.585147320051451
0.592777882718569
0.570793492047166
0.579331882380817
0.566436268826337
0.578373445281884
0.562767826092826
0.561026743972743
0.556712716148114
0.556257343320332
0.562927171940388
0.556993588742757
0.552433425952966
0.55671951904981
0.567919473062651
0.564513437860344
0.555529476969459
0.575739422734725
0.573766108863702
0.581555133940022
0.580279371353419
0.589315290122605
0.578763874401111
0.600210401977748
0.593995283267888
0.606596888374082
0.603485866718643
0.609916198303143
0.603419158779604
0.613769806559546
0.598268623814533
0.603402852915738
0.604827403432458
0.609977297473226
0.6096529272012
0.610919023233126
0.614456711475857
0.621879153626819
0.625658374649807
0.633918486218483
0.640004834941011
0.667404999156429
0.66743384514546
0.693503609386282
0.699447217052812
0.711695551847682
0.752754697028509
0.76097841793896
0.756223639778499
0.778588890774504
0.790493975512715
0.787860188666389
0.796532597131061
0.806948030768012
0.798082979399835
0.788855112715021
0.779141878224441
0.773588603448861
0.74647580979697
0.763797000311411
0.740681783792072
0.72256839920241
0.725023799539335
0.733368540307121
0.716523882549629
0.699395898162083
0.710001085681497
0.725945304549734
0.715011311966041
0.727801611494682
0.719326865687261
0.714218112408071
0.711778315715218
0.705877653430198
0.697716285039676
0.699994211083826
0.694273374468245
0.678943323378074
0.67662148139284
0.693820730391653
0.683469071247772
0.666195565156079
0.665693001119341
0.670228174733583
0.639591464415483
0.648085062097195
0.650975567439546
0.629956253149391
0.620952276808068
0.629596047682164
0.627598899227139
0.613298292535158
0.610212274136345
0.616695632979213
0.608305212978653
0.606671492979286
0.593944980817613
0.597741945789442
0.599218973711402
0.609739439196731
0.586381523249961
0.586873163505015
0.567343150292196
0.593970453897316
0.577903791342269
0.588851207517114
0.583579335213751
0.593176848202335
0.576022197148467
0.568662111139568
0.55644160225351
0.55620703187342
0.559994956811739
0.567686704386401
0.573753078288554
0.556994649263854
0.547880208190815
0.549037996583719
0.533883592185333
0.527217474945967
0.534410656714634
0.569573617110513
0.547038819490505
0.543376936080381
0.526247766612178
0.536219122506632
0.545126677683992
0.55290571522662
0.536822935895782
0.54591759999901
0.537656792316802
0.569061511865965
0.537381751572947
0.574640107191987
0.560071716952755
0.567566670139394
0.570997160874524
0.585867773097148
0.568827565040126
0.576728053394661
0.566171734938255
0.611352546707189
0.565715944698157
0.613587975727693
0.590605437692813
0.627044102142158
0.606641804982306
0.646037993137145
0.634369713697274
0.663799122907999
0.640606729347447
0.665531593058849
0.660262080857947
0.663200896951565
0.69077733645365
0.736445555187042
0.722200296051709
0.762547129146644
0.755496118648703
0.76213389354677
0.816658322542447
0.813250990532328
0.894262781336313
0.896152789513803
0.83103407238768
0.932619729623169
0.889095605573124
0.961080865269289
0.93776543682852
0.967508229935011
0.87729776135794
1.01739773397459
0.943694542823529
0.936300445400573
0.868168997860152
0.974719661483869
0.957910571294465
0.934368665511571
0.902404121298008
0.944292893685024
0.915599639557827
0.983118664887993
0.895660855805116
0.958585554336201
0.915404616506461
0.932262760583933
0.877936680941109
0.904708404287957
0.860666735731771
0.830211182541128
0.805763040535495
0.917505417630815
0.827260939190346
0.931970483039557
0.869185467056982
0.902052032039373
0.858392412473135
0.889745675495947
0.789665264381119
0.843825944456726
0.82253471335244
0.895826190646744
0.80621144709269
0.858052429958146
0.788085701587161
0.879087444564742
0.764171521228748
0.924681401244165
0.799653015404086
0.843663315129078
0.776297800629353
0.879237301235707
0.87391851747471
0.861292279836645
0.765115099715326
0.841139531498591
0.830079441006309
0.854050810771144
0.889292463588471
0.930795946101093
0.838543124819557
0.884782554113761
0.768165027969173
0.901656278082665
0.837769456131739
0.779637331239866
0.779218647026898
0.864038343176973
0.937398538195496
0.950115991408215
0.842724358720341
0.921121807578645
0.858248729033733
0.968023870813757
0.902496843771467
0.977066047059402
0.931890159814256
1.02693310241887
0.921341374033575
1.14836651755577
0.970858365552611
0.981705899004886
0.873564771819793
1.0748313205821
0.892402263086267
1.06668429317637
1.01271346437963
0.99678702159956
1.17040926778905
1.18546822083039
1.19209433621414
1.5345769897911
1.31947765802322
1.25934253311403
1.19632754926948
1.28103017664717
1.12576651889841
1.20412570575412
0.927162239235642
1.2322963807228
1.10083027181153
1.98782603061089
1.08355629596274
1.20902619507647
1.31562823490744
1.23235123105847
1.1757619950709
1.55440971842953
1.35507048944925
1.56899956542886
0.94982926574027
1.34755122374076
0.920156845248003
0.859991018260545
0.891868394734347
1.24690529456817
0.995475608365889
1.22547355172191
0.896587561502464
1.06870217649327
1.02901467728317
1.04576466293874
1.06508262335029
1.48001262053941
0.875734456920416
1.0817290308435
0.90081295583577
1.07974999726145
1.15650126598604
1.68588607839979
1.03666441915556
5
0.675792676695473
2.10853987494408
1.01373751220814
0.906196878177222
0.765270993982384
5
5
1.44951745024402
1.66549634188076
5
0.874255383997062
2.30943626063141
0.569305819159601
5
1.14365041191128
5
1.32147882851446
5
1.14401277664305
0.919707311726475
0.70290319997174
