3596
4000.36533379555
650.420452594757
1
2
2
0.0433451161492422
0.0478858005291535
0.0475430237857674
0.0453469461243068
0.0332962733664728
0.051395528629282
0.0501221914267876
0.0457417965819632
0.034094568791302
0.0554832861602801
0.0419866819426957
0.0434083993252195
0.0417391235148394
0.048675823076772
0.0398881316957541
0.0464151348535908
0.0355479852841017
0.0501326951308163
0.046790615993956
0.0484970886387821
0.0428930951138276
0.0495979289888366
0.0434380115008374
0.0421790397268313
0.0439031318109576
0.0404338995610762
0.0426717466725457
0.0531980762557044
0.0382308077956275
0.0474660901201264
0.0424072218221923
0.0438889383692442
0.0368563470562535
0.0371255760982844
0.0487269757221252
0.0467425392130936
0.0378521605973559
0.054821694842627
0.0401076040765351
0.0480680513576585
0.028719146520467
0.0478629415003408
0.039142973115944
0.0535100616487166
0.0406803916469914
0.0408001183994098
0.0419339973706753
0.0444849661455619
0.0431091871692194
0.0532195920860443
0.0428594764453415
0.0475691185381852
0.0351099612864051
0.0540271071310726
0.0403522276056366
0.0385539170012354
0.0464581553469495
0.0477170409317404
0.0315959130236844
0.0513097642385261
0.0533165449821742
0.0429674955228627
0.0293056873057692
0.0338566244687078
0.0393037226332628
0.0421050601364641
0.0359946905851275
0.0460383421777658
0.0401386320540348
0.0354879710976592
0.0426622818096629
0.0324523455110713
0.0364329880732355
0.0321922815937164
0.0400247368864472
0.0403422338659897
0.0302055413743345
0.0418883696650249
0.0272197341438835
0.0372705949182038
0.0540091525757646
0.0363446594754245
0.038694673786791
0.0411324737589908
0.0432781119703231
0.031654452956616
0.0437472068663922
0.0349258121922104
0.0344923297884763
0.0376982790815968
0.0385286623663579
0.0374011899316734
0.0404473096564245
0.0313618312086669
0.0315430579948736
0.0339655710739038
0.0434619663038566
0.0284024689200036
0.0462297952749601
0.0177579377556432
0.0399426898377003
0.0536256320983989
0.0365580831758194
0.0481865308970558
0.022685299902176
0.0405072445954905
0.0205620703021705
0.0378868587393617
0.0352273550425961
0.0291322467057385
0.0337219886685267
0.0335689900072086
0.0378074408226347
0.0363204772845315
0.0487773642359401
0.0409666457592329
0.0323747651781253
0.0313364947250398
0.0344600858806977
0.0333653013189562
0.0391882205885098
0.0187914634779276
0.0404692459185079
0.0371972197470669
0.0336582491382642
0.0336955551827249
0.0412290240966908
0.0172371091691476
0.0348066787842042
0.0343859410166489
0.0313861708583453
0.0387064331755923
0.0222731034005244
0.0344631755729328
0.0287907468116979
0.0450496738178321
0.0263568508081276
0.0354771449327306
0.0332714885354601
0.0369632124894843
0.0424358219921201
0.0346564018970351
0.0228444569223755
0.0361408743433545
0.01654145605161
0.0276483174322138
0.0366572468452537
0.0306570432983945
0.0280740668439035
0.0331180867144765
0.0318661293703513
0.0348972736749302
0.036285823047751
0.0297509358891242
0.0356531938057155
0.00525163772569569
0.0236059487593217
0.0540967169612805
0.0221265842005703
0.0496235311265968
0.017291092368543
0.0401293574917403
0.0268905396030597
0.0313551573666701
0.0281690851339584
0.0418916588979204
0.0393084871748252
0.0264456999010736
0.0370792660838868
0.038871398711132
0.0258377393122582
0.0258956726749923
0.0384100677219238
0.0299290772407407
0.0399454266106302
0.0333641624952818
0.03227754261817
0.0325062583974483
0.0308638035436265
0.0343915001920037
0.0333545651844577
0.0371600163165433
0.0252155347179116
0.037894701940666
0.0328434177334979
0.0279593354136577
0.0213209546732268
0.0268683604444551
0.0273576152712437
0.0392075698639577
0.0346096480507096
0.0511703889306347
0.0342064826730882
0.0335831131086899
0.0162855616429664
0.0490152761882272
0.0182266556547418
0.0394906727871871
0.0273998741910423
0.0352229237849787
0.0273706039465794
0.0257679083177895
0.0372593556966397
0.0310207390973539
0.0306512653382226
0.0413506246852669
0.0185676492300369
0.0336168206643213
0.0308189241942309
0.0339875278166642
0.0247986596713851
0.046451395797113
0.0315610294235838
0.0330953109077056
0.0404753676736915
0.0317709939687944
0.0377127071376153
0.0332902839121858
0.0297264206026878
0.0326842115529846
0.026034036775407
0.0274082153532519
0.034015950886978
0.0373249953845967
0.0306736089651516
0.0405761169197669
0.0359330478514389
0.0349082863509946
0.0332402781929219
0.0340179036589399
0.0446897736263967
0.0226180107287992
0.0324442029387182
0.0321323383389934
0.0322134739837623
0.031599949393317
0.0405923543669486
0.0468911350399601
0.0319968060292767
0.0379193722583517
0.0302060121598582
0.0343027834478392
0.0259454962270168
0.036571098390307
0.0216857072986865
0.0474788228135827
0.0228867042597891
0.0418926966517884
0.0341080496454143
0.0372903399667581
0.0212274136065562
0.0406847843994166
0.0357232231032086
0.0358910905429423
0.0326132250459725
0.0365190385118069
0.0468392567084732
0.031542837302089
0.0372989495975168
0.0409951699722493
0.0336360531938422
0.0421821538058997
0.0314899738703803
0.0301041518311818
0.0437437660864946
0.0450561040819606
0.0393045497398601
0.0571423891495739
0.0253533870219287
0.0365264222718128
0.0370791795752633
0.0354981188844795
0.051424254085232
0.0240824118375407
0.0410764322926697
0.0333644992292461
0.0441288434429431
0.040593142319704
0.0404964065709201
0.036956863017612
0.0475427983178103
0.0433400989491672
0.0249076609376344
0.0560161167346185
0.0164162207397054
0.0534385780514194
0.0334650295567254
0.0479408241410244
0.0371461000438488
0.0434766206332531
0.0323698808427023
0.0381143025839623
0.0343162098823937
0.0358702485078008
0.0457763107702658
0.0325151496693366
0.0521150908476116
0.0394321631480745
0.0394459498922764
0.0335361124344367
0.0535010723213041
0.0349748010854664
0.0480063716953933
0.0436369875439811
0.0510471142568015
0.0427461106150096
0.0395879880216196
0.0506994684661232
0.0469778765569726
0.0465875468592895
0.0542320211456669
0.0421737555749871
0.0504560400431934
0.0434337598137078
0.0458163777439374
0.0390645397799904
0.0528741731566634
0.036912033051839
0.0582288098962927
0.0497266470156792
0.0474933913245689
0.050209527502307
0.042464778490432
0.0461771109027986
0.0537903282330373
0.0539920313505493
0.0549567291106582
0.0538564168812411
0.043499864832456
0.0444844999820181
0.0672781639085823
0.0462132120436511
0.057133796737597
0.0631448066410196
0.0500661382871478
0.0616461399602572
0.0543325312282915
0.0576907070865528
0.0562310656765324
0.0564349328555706
0.0602780648478243
0.0617255751076317
0.0735361731376376
0.0612113708343296
0.0595760765756067
0.0688385204138989
0.0678898527036539
0.0880306552489393
0.0615026631244996
0.0791406668881038
0.065922237641114
0.0531527049814023
0.0720947440417507
0.0584888025290635
0.100333735947268
0.0592980986290159
0.0832017476292409
0.0625654691460544
0.0784437740091382
0.0748803751079778
0.085801226160873
0.0762685949496165
0.0822138023481525
0.0770062732729736
0.0831518390279925
0.0827774612406522
0.0812999075084365
0.0881192388595906
0.101727924662801
0.0792767470728761
0.102046507992652
0.0849647055649537
0.109770153821591
0.0842440256794871
0.0809632793237253
0.11620218551084
0.0843230740360416
0.119662935207633
0.0901540662229248
0.106556692753546
0.111570749346864
0.112685659158416
0.116974864156627
0.122680226533354
0.11951682519897
0.126939424100981
0.117337982773035
0.130134901530056
0.123888429691474
0.124520812062099
0.136018682322356
0.145610743900834
0.13539021857745
0.134936062676208
0.142610667026181
0.133900274027463
0.168553964032339
0.157189822264357
0.142132568804235
0.150639153201173
0.158328422527317
0.150016384326943
0.164821958948917
0.150377393091718
0.17485611634019
0.149306487493859
0.182793183089038
0.171302032372889
0.170459857077805
0.187060628971495
0.174619450142839
0.167077675715818
0.183328243690487
0.187152520448552
0.210580573353248
0.189231615535491
0.187394700345856
0.190392821774835
0.223467113491964
0.190605315813256
0.217949688501733
0.1942622779577
0.209349425932833
0.205098094785933
0.222213582320118
0.204204876323544
0.22878760422806
0.226724364402336
0.230032810556066
0.240923521521593
0.244676372306131
0.232294383298081
0.250208435752381
0.251058367753641
0.24739706082933
0.265862422799924
0.25041175805586
0.258614062920942
0.269924996433631
0.245435902347476
0.283738579164446
0.248462918585973
0.30528804509369
0.269071610829436
0.280886269960836
0.279690472360405
0.288008356152047
0.284012437134173
0.311604147493968
0.312633933182511
0.323383153722051
0.296447331138291
0.315668015494287
0.304449944384468
0.334577978407281
0.318310127768675
0.332309620342513
0.327495652634854
0.344729346233382
0.32668691614324
0.34688327115361
0.34087350875335
0.368705217332473
0.334238456283338
0.392415902058445
0.336540938207509
0.375147465088292
0.372077346953585
0.386515626594997
0.366924968378647
0.402159692779884
0.386536055102387
0.3871968014322
0.402431060359997
0.42266098266914
0.41060790886908
0.444704329121816
0.412861997913689
0.404787423374451
0.402012254207983
0.418363445502241
0.408066249099489
0.465246588351292
0.418042799857045
0.456595422604735
0.453539105361798
0.472635586926069
0.430706997529462
0.467835780429297
0.470448688082748
0.467431547697478
0.466225677430363
0.500455709193258
0.480719308592003
0.495841621314368
0.470019278587825
0.511480765850211
0.522967476112099
0.513187160002869
0.50372090899534
0.555813296051097
0.484257086976175
0.545802270267565
0.520743823963324
0.543275779588032
0.524371329923686
0.569614495083895
0.495454346664854
0.54050524049317
0.546256934892526
0.580961243506288
0.551770762569304
0.623932219157403
0.545195507793035
0.621374426464239
0.627043751903222
0.623561108828402
0.569539336046655
0.591707112835165
0.585403366757785
0.628014918713586
0.626177489970438
0.622067217022242
0.613267392211765
0.658203703933819
0.5962500163306
0.704409973370167
0.607515232986066
0.65987447393395
0.627257683888968
0.70018612213097
0.632526805484665
0.717197426935403
0.651308684203491
0.711668240093734
0.653954577862873
0.713751365199724
0.685441417594425
0.723661901526822
0.718806055563736
0.763041097183892
0.708468811357455
0.742962724811723
0.769869921204626
0.794570868197921
0.725922145662052
0.802694840469881
0.719860625347329
0.813827579710417
0.717264088914196
0.814602562339113
0.737347839997878
0.743315993272456
0.691184926071046
0.85487385771
0.787752052565283
0.81167851965779
0.736115021005441
0.823233642266795
0.781387416799572
0.883307611567986
0.845234683910484
0.865377894188044
0.713153814510536
0.852945420792746
0.823934523285904
0.827643345582511
0.814114285356196
0.857107650726929
0.825027735197472
0.926614361684249
0.871755806407657
0.952255665461576
0.858846495694094
0.951765066494162
0.85421066718237
0.911727143155766
0.943559071894661
0.94050853824457
0.892113422530935
0.98524795398547
0.861828220861871
0.981523857470247
0.850909791428823
1.00788260711792
0.897333872906375
0.942150135750696
0.937609321638402
1.03410583094352
0.946830828745845
1.04144632548745
0.915853107772279
1.11613976586879
0.979344715644418
1.04787099120512
0.941680282846577
1.03956428270322
1.00159561394902
1.02041514281204
0.955295378234982
1.04079286118076
0.972966407135242
0.967024643400527
0.958361014312885
1.02060593245541
0.922737586342845
1.0533551306339
1.09270155086736
1.12193575095475
0.973734036124883
1.13404782721406
1.05059941655719
1.23174657134411
1.02351130155476
1.09648085128234
1.05955161239616
1.16229453415339
1.10993316005059
1.15180940968204
1.10571790486039
1.18120709698119
1.0188511020162
1.17052981713879
1.07829967503481
1.14930017588753
1.07505592930943
1.1642357930675
1.06352232882696
1.10479224972363
1.06231172657415
1.19782267206569
1.10354407631351
1.16760183175086
1.11462699982019
1.33243461444605
1.21280688378506
1.23781905656551
1.1190798583842
1.21031047144677
1.08476698115144
1.25747819403171
1.15943125560576
1.1751097567878
1.12985350043077
1.2970871147362
1.37765915396135
1.39330426394775
1.16171761980696
1.29027006121695
1.22167179087074
1.2911222082042
1.19768228699747
1.16771578518394
1.12262779342121
1.28004777240675
1.15998322809125
1.25344125328591
1.19801257744571
1.43265938962552
1.25798483115925
1.48038518003028
1.31177787819693
1.34949342838063
1.35913259148234
1.34371063464085
1.24926164153179
1.3372183459381
1.20129910298997
1.35846858918781
1.21124589565987
1.33987141717687
1.2149718358652
1.33283542734197
1.26054121298902
1.18978274796221
1.19578117220482
1.33592969194678
1.17880784448362
1.3349264265743
1.31601225324924
1.3463615238871
1.29437238746489
1.32665073383182
1.30019210998818
1.38341668235618
1.22292094573504
1.42058373998932
1.28229548204587
1.39648882407956
1.21397000202266
1.48604850681717
1.2573539771668
1.39955633934172
1.26457864448586
1.28564651574676
1.28971768863697
1.33790102108171
1.16128562929155
1.41544810102993
1.2091674564343
1.33304939556748
1.32366204129105
1.53568212239813
1.43305317680974
1.37972413460249
1.26461050635909
1.38550324946685
1.2742348580089
1.50132138151578
1.31835421583352
1.32276652117369
1.37769867464667
1.44671708974342
1.33017510110504
1.43688685825553
1.29829965522765
1.40847289683378
1.28919876228273
1.3631391880804
1.32531425948255
1.32308263514527
1.37152515415496
1.50515250402635
1.48280618277498
1.40685219621012
1.36332007180647
1.43915652664418
1.33488148679329
1.3977037923311
1.30664786944194
1.33012558060093
1.37761771841613
1.39623228634588
1.34476981411132
1.37959429635397
1.29040675694103
1.41103807112362
1.38668826661169
1.40407821604359
1.28680230904607
1.30697290375144
1.32330406486999
1.55394700619444
1.423201018542
1.45262106454198
1.3208962363225
1.4265501080531
1.428118042126
1.40805681913647
1.37373615239844
1.40697355099109
1.33238183063188
1.39605016991449
1.28301014887732
1.43951580309699
1.43983706651346
1.38546152076675
1.38282065022707
1.56593049548958
1.36189322568773
1.41349753998874
1.45056099522479
1.45232812652856
1.27908465775933
1.41957699466904
1.35261019207362
1.38302459710496
1.43006820262663
1.44476827784564
1.27546397264667
1.4564133983172
1.3001409661813
1.30440266401418
1.41132058397415
1.48681455869085
1.32865474149265
1.36705750933026
1.45000239421724
1.46480938760662
1.34055442810305
1.39901760507289
1.29493908029109
1.40228410137766
1.39351530888189
1.36300121013356
1.38653663932433
1.39786441514449
1.28734960285212
1.41305179200393
1.47076782538154
1.51179485195768
1.24249047008857
1.31847390792239
1.3313446878522
1.31051022088099
1.32686353918646
1.37584359355619
1.29628029502238
1.28060554848596
1.2558808357512
1.32265131494752
1.28630772954937
1.33484726744007
1.29744653278025
1.27217031237694
1.36990839372743
1.34554034246674
1.3229567812196
1.33250967494223
1.30314420420294
1.38022333199902
1.28548835945862
1.37604448016874
1.32665941862435
1.32559193564808
1.30277489926914
1.25449960173648
1.22395457273455
1.33220835066236
1.31416680108402
1.23695887968042
1.2439930042987
1.30356917532514
1.26282532273843
1.21580290051899
1.25659506003141
1.32557573426813
1.17198129699797
1.2217462766446
1.24939910047969
1.27017474671957
1.21519528572093
1.25394499677934
1.24267665569029
1.13953706986085
1.18823442950446
1.34557632414711
1.28006279617039
1.2606668033758
1.21338433147389
1.2136408590816
1.20634647703866
1.24239630481574
1.21477007321421
1.17560290222981
1.26195051202951
1.1623972293566
1.08816898328373
1.22172018993094
1.21934428686624
1.16465839699597
1.14624912836486
1.18636596193824
1.19545901878855
1.20304027620825
1.14745762050716
1.12947326992814
1.16266630622088
1.12374143236303
1.1640004957907
1.15298413350376
1.13707588451742
1.19327597662673
1.19556792181926
1.11075163737791
1.06490184417902
1.11847228058129
1.11744225883084
1.11674357816399
1.03324401293251
1.07632018787668
1.13282764638846
1.09829880470721
1.11000015353428
1.11159078161151
1.10985171549234
1.08332689628801
1.08363446158862
1.04533037918431
1.05469597615854
1.05622565206102
1.04010567846601
1.08392632485931
1.06243383789016
1.03085863736626
0.997964960693632
1.01611833182615
1.00821454405106
1.00265124606088
1.00096751091382
1.00170710312418
1.02713740307208
1.0076537792352
1.02705211737725
1.01983813124016
0.952867178752256
0.986002496437136
1.01790488602913
0.961279424096236
0.978215803777201
0.975990631898185
0.945903576594728
0.929085844661421
0.969606412117558
0.969919104372997
0.924174899903181
0.95259388724928
0.979679916074285
0.939027685564626
0.926990916505557
0.929031300669456
0.939738670433308
0.90788393753575
0.922646905339253
0.926977229275449
0.904240976866837
0.909528394979372
0.88548056860044
0.891566871380422
0.90138036401973
0.872883817997899
0.865327529118111
0.850358621997437
0.867848705240459
0.856195604751561
0.856862370262604
0.860553493209668
0.853265728959368
0.855883892260471
0.861787401046737
0.86038554032662
0.825847939280388
0.813536802737365
0.83002978214598
0.830088527962779
0.844243624447101
0.820557367661364
0.80172003433888
0.802705524610533
0.824332267439804
0.808249335551286
0.790994539594425
0.789971265907429
0.792309113197489
0.779678807536111
0.790854475499007
0.764265866611226
0.761125612946523
0.75627959085605
0.765542743995322
0.765631835153098
0.767077679858
0.769153084412548
0.744375262010229
0.718986590191385
0.747026530520527
0.738740120157583
0.730908891180084
0.724549482775951
0.726320708282642
0.741652628761651
0.714554406533381
0.703966347480721
0.724256211760152
0.714868266267533
0.726638830039893
0.697116133163186
0.686372660406759
0.689875411425476
0.699491853267312
0.699837925963202
0.694326445856877
0.688319498174843
0.681091806132248
0.679232693314938
0.685708377318033
0.669937592271434
0.687210602277686
0.66419124605116
0.687273957174788
0.665634660925468
0.656761392707275
0.655454563157964
0.639010307604289
0.647506521169141
0.640027525789263
0.656985504848307
0.654701582961058
0.641247212241053
0.648425652317205
0.633623329570971
0.627055078585314
0.627023087196103
0.630467825599484
0.621283361348471
0.623348233070239
0.617948369815972
0.619072797094233
0.604113572070347
0.595145335801491
0.603381742560905
0.610060281152568
0.593697612886895
0.602568206449853
0.594336446738916
0.579391896111281
0.587209436033353
0.576022330083976
0.574437964371606
0.570839832556041
0.565105726382361
0.58466156836871
0.570960407930287
0.573299527613656
0.546549003277532
0.561059089720094
0.555434468769888
0.547319613774187
0.549678573872466
0.544408214207349
0.545967526460206
0.543133681243516
0.537314777422257
0.546206458276947
0.529345885856257
0.540834683044398
0.52974138091923
0.526215742664874
0.522517940059475
0.52312949792976
0.512805309350341
0.506281483951791
0.512674701598298
0.502484809513817
0.509086634438649
0.512513466571308
0.503673644224295
0.51383270928333
0.49395690414129
0.499669248932411
0.497879349104044
0.498025250473447
0.489137294318596
0.487553227113325
0.488041621173142
0.481490507098833
0.474366395858422
0.483185685909398
0.479875278629206
0.473811839531192
0.473741945728721
0.467508105340868
0.465016662957265
0.466187686873632
0.464864222970979
0.461860726633582
0.463850659279505
0.46489820899866
0.466888851574192
0.471123470376554
0.448744021172547
0.458064351993032
0.449267168402457
0.448539013020909
0.449952895074511
0.452643266009984
0.439922179841974
0.44422021726241
0.45424219064985
0.448255211139274
0.438435870055136
0.440960047211444
0.440798941509824
0.430563366438837
0.442869110518343
0.444946020421812
0.436219441866058
0.436438086030552
0.430327860120365
0.439050102511652
0.444178344243751
0.445007452410774
0.438899489864801
0.443162224164063
0.434843416032586
0.439029285528884
0.445403860487121
0.443867976308435
0.44502340151653
0.452983804248182
0.449863954895987
0.456604982424163
0.450348209588234
0.448225129883742
0.449920711692272
0.453783954275952
0.462356004659513
0.45873085015893
0.45824739615508
0.462821530176202
0.460780090520637
0.466035185272893
0.465559548318714
0.464635951141029
0.468455782904131
0.479625762128903
0.465243388306071
0.478036757390331
0.47652640223551
0.472344192095217
0.478655024516088
0.499118065377437
0.490326621378855
0.497289493912852
0.492828349189915
0.500438685982063
0.493718274782832
0.515354738824841
0.494285332252845
0.496557078621325
0.501973764079887
0.516094103312765
0.510666998879246
0.513388924141593
0.513415795688559
0.532991809162679
0.519005660666972
0.525673432397658
0.519373294168341
0.532330750422931
0.527537426209088
0.532847060947194
0.546822642963922
0.554488838312029
0.525624439010263
0.557199856248273
0.564093992099263
0.566407096962727
0.576201890881344
0.580664338630407
0.571759164614129
0.576790146408511
0.555246185754692
0.577577065698036
0.583606261469169
0.588272568182691
0.57259041036105
0.592629827397578
0.589415561708862
0.607958194500222
0.583641671088169
0.590317465376129
0.580894784696152
0.580549466314521
0.585061907144553
0.594537878400233
0.582286307098555
0.611384257694629
0.603158870849882
0.600457052386676
0.593751034256619
0.59124984548776
0.588954055430565
0.595293482135812
0.581445370963862
0.592502309093176
0.582643257256591
0.585533081692913
0.57628511671676
0.580339284692592
0.601005315985361
0.590120403877893
0.584670320552612
0.587195208945359
0.57817150545186
0.595635509859423
0.587795974694113
0.580370762858395
0.588802205189506
0.59875899182759
0.574460130593308
0.586279678978625
0.57178014080732
0.601727990614964
0.581341953155556
0.602879757722119
0.593000294175193
0.589563164822822
0.584102116029272
0.585896941711984
0.586569801315784
0.599477579345037
0.593418423233964
0.59711813258085
0.573277489836431
0.584464827337864
0.585362252151548
0.593131589695408
0.574223445523922
0.586175349848571
0.591881498240186
0.603111592543663
0.576881320747055
0.580030545142571
0.566958166934279
0.57766752116163
0.569357948790404
0.576302049460381
0.569269222745359
0.57482045669972
0.5562651533904
0.576690701756792
0.563344333363837
0.558980048243226
0.548196279135123
0.55319527061319
0.530352951567178
0.542314984995798
0.546158642549011
0.549692171164882
0.535218061806279
0.526972294279674
0.526611028034254
0.525592049559533
0.52138748560291
0.522689501667455
0.518677590318161
0.506244901284386
0.504527768239393
0.494994997472594
0.490725110282741
0.49574250274899
0.480867937500857
0.484903802887647
0.485894817577403
0.487112459546637
0.48094510350603
0.477465788425456
0.47205360993409
0.464264384482179
0.46078125086472
0.471593187324221
0.450921630673348
0.449938713533599
0.44945717753112
0.451598480565105
0.446398677135569
0.449581542615681
0.433692338046959
0.443305201249236
0.440675325824381
0.423010279642751
0.428137829385386
0.435757364672737
0.420671119156021
0.435606855838581
0.424175202051241
0.420079554669032
0.4185001735471
0.42445700326166
0.418793597250636
0.416016042067749
0.410766349830987
0.416403043005357
0.403866333729823
0.41471653501975
0.395886284611017
0.408981065594646
0.398785689260952
0.398722726214711
0.39357808594272
0.400865330383736
0.391877158677338
0.397887106438653
0.392864272605537
0.391552716468832
0.382393419352992
0.38629186921553
0.386415647746757
0.388972642778029
0.383069220116545
0.37664964131851
0.378946981832073
0.377521518429279
0.370291915192033
0.383944993779712
0.365633929988927
0.376270535180767
0.372248368282071
0.382099516849049
0.371164886784686
0.371401966881159
0.367342781366248
0.365431244351598
0.367650609199919
0.371699721919596
0.364976462204591
0.370000353292364
0.357519473861585
0.36130832790945
0.355304542416631
0.353534599319733
0.359554215221263
0.359524340384224
0.348306353909768
0.353754107010767
0.3552240252947
0.351768259283304
0.348906277725187
0.359363634426241
0.351220445979348
0.349943895917727
0.347471079898914
0.345671921281042
0.343683111656807
0.344790644432853
0.340072931354014
0.351492105825088
0.33725350880832
0.350997721227917
0.341540826897102
0.342544259547736
0.337193426416284
0.34120804386607
0.33620013986631
0.338287747143303
0.336587236737629
0.338146883875125
0.334728478870849
0.342127657456431
0.331220210917211
0.335315490613517
0.327862910926223
0.338464381158649
0.330120308181617
0.338792058598469
0.326578663008552
0.332290400926282
0.325854131546047
0.337539790288953
0.321093053914238
0.330639511295632
0.318983126403916
0.328966160727775
0.323789081332776
0.330911295512537
0.322839230847101
0.329738985712178
0.319140010778291
0.327353025834725
0.317284696847067
0.32267758558743
0.319432089639658
0.32656504158771
0.324571360153239
0.326936436478422
0.319692263290298
0.323566515524927
0.317221379746523
0.320927721181877
0.308609937269271
0.323199487421804
0.316140046873687
0.317999568481396
0.321698113040913
0.320122577252565
0.312562436400651
0.316100761843891
0.311965395323855
0.325727378749164
0.315068118005233
0.317295412720858
0.309220911996233
0.313282186182473
0.307553183292047
0.322558045970927
0.300344868923359
0.314697670037051
0.315261115943577
0.317400993358138
0.306706795253405
0.307431545364153
0.30481808779006
0.305526306500396
0.304294188443218
0.304713918691175
0.302993268327641
0.30943430958552
0.315218111266252
0.309833577714655
0.299290555328607
0.301971794473177
0.30522568136232
0.299303972713399
0.298628531119296
0.301577795033015
0.300370373033331
0.307539908338422
0.295800626655079
0.30243591389636
0.29414456959726
0.298595921818562
0.29158600797391
0.302513844185061
0.293101738014999
0.299510918439901
0.296883714107415
0.301344260044124
0.290884790901251
0.296168650315723
0.29822475635637
0.291390247628961
0.285660480333741
0.291180765259892
0.288280545616873
0.291865857373648
0.289854912964501
0.291466951628711
0.284237480783171
0.283151337651284
0.284588907593315
0.281622374473726
0.289488178889986
0.290516489253102
0.284815474233518
0.284077979037962
0.282348868449896
0.282736854203109
0.280284422969304
0.281374603734563
0.276082531926403
0.278963214737375
0.284905114296637
0.280175736572959
0.278715743321356
0.280874147056846
0.26608153579382
0.277150570114519
0.266401340322663
0.275577536923599
0.267063543976196
0.272485714213925
0.267754248550778
0.268466876052061
0.2702300005044
0.269440234910948
0.266429907522684
0.272292266497808
0.26559052555879
0.266732359259844
0.259793248106801
0.265238950332106
0.259711735400792
0.261096811190432
0.251865869498941
0.262302555632966
0.260579163430478
0.256682500073273
0.257598552206264
0.256106255603116
0.249783109351533
0.256814057939654
0.250362503684303
0.258246352363295
0.256092505855091
0.255471024619042
0.251381284155316
0.260512246128567
0.251515653074748
0.252434308546763
0.239693742002571
0.245676536325309
0.241715792675098
0.249173654908814
0.245746483250104
0.246937430618352
0.242654492330573
0.244164060255826
0.24304664133463
0.243198288922308
0.238995322229058
0.2419996599682
0.239950013200889
0.250511317248159
0.23695385293731
0.237619775706198
0.23142181856718
0.242193878894661
0.238083775411084
0.2412010278338
0.236983256760277
0.233317860914646
0.235631908955382
0.234367654884142
0.236764653019765
0.237719555630157
0.232523972952478
0.238170128654853
0.226545667969258
0.235514527536731
0.227045517615775
0.230608892241171
0.229928476520871
0.230638533525633
0.227866063395913
0.226926262205361
0.225994692900528
0.229089785941726
0.224230548567508
0.221854795779965
0.224589334437256
0.225326466062267
0.220902016596627
0.227324621135464
0.223887740493059
0.218036954475442
0.219903615002239
0.222340297401756
0.222589907873964
0.221270575238
0.220109247007503
0.224085450224277
0.217459632072451
0.221918532074341
0.217600705236949
0.221611151408055
0.21845448383078
0.219253038988075
0.216127377312017
0.218902384755924
0.218616345936274
0.224010230685661
0.218248197453572
0.215865319563091
0.217514380467607
0.219514751821794
0.212288219162364
0.217282315080143
0.212691232165392
0.215387822330723
0.215094206742517
0.215594145627567
0.212612387507604
0.217605572092439
0.211573158976043
0.214130492018813
0.211202703628116
0.207906525301351
0.211820092361851
0.211311255360327
0.208505987582351
0.213729839407247
0.208448596697924
0.21252045610413
0.205495831113153
0.208227681320753
0.203324407186211
0.206678079283629
0.207738651447724
0.209561811148854
0.208698563052094
0.211099965616742
0.205448589971638
0.208340368451889
0.204253874939083
0.202469281654938
0.201099548103288
0.205657999632078
0.204037602291773
0.206588020784476
0.203442279233844
0.204658984045567
0.202934718284375
0.199807458066211
0.203817592958267
0.206714483230206
0.200097915230837
0.207179800306126
0.199659061434993
0.203295228376864
0.205426284135263
0.199348585293144
0.197959382772445
0.201795921011511
0.196495984596346
0.198622172309296
0.197811406712154
0.19739141362543
0.201620578862444
0.199951171284698
0.198807479676559
0.196727505845424
0.198043088747884
0.197642870619192
0.192912345582416
0.1984695746644
0.1974837901545
0.194650167112885
0.189925876559048
0.197404032907003
0.198260921358886
0.197495381414931
0.19395841252349
0.199858800047585
0.194936108149478
0.197166499141551
0.19322316902227
0.19561753834752
0.19058291424114
0.192296420502394
0.191767184705216
0.195050826032866
0.191323193659402
0.193324744667432
0.185518573564252
0.191401162857092
0.188824758445697
0.186847258542656
0.189518566435284
0.19052121376536
0.186997887755976
0.19328732607624
0.183411476376725
0.186845615026961
0.182485798409949
0.189235262480435
0.184049413503561
0.186759608955123
0.186108174403548
0.186795378728297
0.180967648366908
0.183286125634631
0.182145036538817
0.187024863309812
0.184774329266051
0.186087564204755
0.179274850802226
0.181379556304624
0.179126148824701
0.178258130226228
0.18185444836942
0.178554564339151
0.176018327502202
0.179644478039656
0.175982170263068
0.179095863219522
0.176068143092893
0.173729439956342
0.173830528429866
0.17244227421918
0.169503812503053
0.169534576085445
0.169397159598564
0.173680990697171
0.170396095673464
0.176033659122299
0.173494453132817
0.169771663002943
0.168173308420535
0.168283775668136
0.167397964065959
0.172307870242979
0.172040752840952
0.167920603997229
0.168521259040087
0.166032845362971
0.165980721402072
0.166192319084705
0.166143426353225
0.167486731469283
0.165507470348386
0.168459661897758
0.161371661859002
0.166382378370779
0.162898944848864
0.161494956839248
0.161886361935643
0.16308990180731
0.160419672644553
0.161674363396663
0.161070815746967
0.161370318350674
0.157937793783417
0.162939401292682
0.160718851024229
0.159954459085912
0.158359981356536
0.157669848295213
0.156494761094896
0.159445476361731
0.156380970805762
0.155438909668249
0.152687087815777
0.153391883755268
0.148596874740161
0.151573366286962
0.153033139634116
0.156015083467941
0.150369165106495
0.154269209800379
0.151510059027124
0.152858915262526
0.148814843805304
0.14944756396272
0.14920978342109
0.151261556061954
0.146588806628571
0.148585011496037
0.146728661087648
0.1498705644173
0.147192176503142
0.149680528783212
0.145061834931809
0.148394329987103
0.148108559285962
0.147659988323112
0.14430794663389
0.146296535492781
0.147617090377017
0.145345605860233
0.139731652242967
0.147005308159318
0.142980408002458
0.141809690113291
0.143341105265082
0.145841035316496
0.141347457589772
0.143329076457972
0.141814813113946
0.139086312377688
0.140683123113351
0.148673416471638
0.14259335252414
0.139900773418074
0.138586195884726
0.141590394523876
0.136943406253342
0.141001900079092
0.135455195802012
0.138363753238772
0.138931052398777
0.139231907719546
0.129949307346829
0.135708328869486
0.133883986568579
0.140042331694422
0.137583450946675
0.136276036013191
0.132602050014846
0.136189664402502
0.133327860325632
0.132227789325051
0.123265379040761
0.136837328859834
0.131253658718889
0.133468634156532
0.123777245885033
0.127143514894837
0.124237300616736
0.128956366623602
0.127033802653206
0.142182087639385
0.124980354331003
0.129565708518588
0.122305921993189
0.126639628753801
0.132197384427315
0.129619700299253
0.122731677834932
0.13040300042506
0.12311992806968
0.133081318135228
0.126531031784674
0.134859278931731
0.124409585013325
0.13259660214372
0.126163459364467
0.131861034520228
0.121354182812408
0.127411798522952
0.120107639902964
0.133075364012865
0.119519491976038
0.130323045861207
0.12024864793647
0.129275136644192
0.119242622288095
0.126211355698446
0.118878123143884
0.13007971746699
0.119787299561011
0.128845255311892
0.116220324863458
0.120018157700779
0.122275727724652
0.122986908234811
0.122916958285212
0.124549353390168
0.124844374151895
0.120040902980279
0.133283476864013
0.11819974885808
0.128162097063461
0.116608560064176
0.13987417952877
0.10926459821228
0.131519088675884
0.11067769761258
0.132343270305938
0.113194544426423
0.129601927407057
0.116783727766499
0.128931951106302
0.123984538344605
0.123683980913128
0.120443564081764
0.11991010620437
0.124432628537403
0.122594353532626
0.123202324633965
0.120918768752972
0.119603224599861
0.123710279832316
0.118712088806485
0.123060133733127
0.119870071402382
0.125645385095821
0.120490011327634
0.118901921416989
0.120017099309642
0.119308161767772
0.119673004199666
0.119831950191207
0.118906327045236
0.11843395033784
0.118335922537029
0.122214578605875
0.119929333897991
0.1193189290098
0.120085459612775
0.121557593696177
0.120096045490173
0.120286292796971
0.120709200074615
0.121821233109085
0.118497917654899
0.121801821458758
0.121899449952317
0.121171186950283
0.12058509332868
0.121830847546258
0.121480401085065
0.120824079559675
0.118852226085454
0.119963507205298
0.119264842340159
0.12031600725203
0.121542648898995
0.12285851717988
0.117110869968475
0.117578775307656
0.117824420109251
0.119074272632727
0.118764061813996
0.118507538064338
0.117918147317201
0.120938239600684
0.120140839975823
0.121188367849016
0.120372147365131
0.118392134112546
0.118229239078624
0.119851885211557
0.117582148453277
0.119473164608243
0.12004706303973
0.120137765117262
0.118874511069912
0.117190389626043
0.119805018117278
0.120120048911379
0.118350641343105
0.117461231855501
0.11696750801959
0.117230455935395
0.119013889326059
0.11946668870254
0.119760799264755
0.118798444160392
0.116668632321799
0.117839744889371
0.118316843094364
0.122358127003039
0.12240539736732
0.118352934151046
0.116691093190116
0.117764230381909
0.120408931364937
0.118722231507459
0.117929377774599
0.11950469675893
0.120065538669407
0.119960207724792
0.118327797552472
0.117724086734336
0.119093247187232
0.119604302057044
0.121878108095397
0.120426348444063
0.118259917188934
0.121568556832447
0.120892630415614
0.118991737798415
0.120370139920606
0.119573678524976
0.121309136116539
0.117030777961285
0.116322840095087
0.119688002395405
0.121939982768077
0.121126079738057
0.122518482910746
0.121117618194836
0.121163182290154
0.118801215127457
0.121395546114049
0.12369804331803
0.12237425333023
0.118145705187983
0.120211987197617
0.120484347291743
0.119343305859968
0.119241701791918
0.118531993610979
0.120086477492585
0.121016519029053
0.124507893501102
0.122143593444219
0.122106102016871
0.124512544674949
0.121644261271308
0.123158830209003
0.122119230671156
0.120580674001452
0.123577664607355
0.124125559144127
0.123599001359551
0.119320163174884
0.119762081288575
0.121487634059796
0.1209031097001
0.120888971181385
0.123871284730885
0.122250881662347
0.123616318907727
0.125150134529136
0.124333156404207
0.121494580175155
0.121023676199556
0.123127399291106
0.123891693542446
0.127666655954546
0.124932586872837
0.122721541073541
0.123921761626633
0.123724773660509
0.123732156848102
0.122847533488024
0.127425905191378
0.123913589172079
0.122540388198813
0.125692529213537
0.123943048978111
0.125491736332589
0.126130288141724
0.126954013395105
0.125386254409798
0.125488609619306
0.128261200983293
0.124374366424298
0.12611558906864
0.127357349039845
0.124429796555479
0.126990823865449
0.12612293044147
0.121848010577256
0.126004625616441
0.12536143472649
0.123431132328962
0.122769108118259
0.124583960439125
0.125011135317592
0.127319662846595
0.127294776452172
0.126172959955266
0.125174454174932
0.124138982628826
0.121954102617998
0.120953374021677
0.124065668848431
0.125016931467537
0.121957816049929
0.121513775666623
0.123979648465896
0.123284474167639
0.122409495023373
0.118827529699528
0.121494973416631
0.122689194108417
0.122433899153387
0.124620112166038
0.120906680619236
0.122345561735071
0.123570401676034
0.122636029469744
0.120064494731001
0.121928403794061
0.124264972606606
0.118821938219805
0.119758581147052
0.120549746300495
0.121677618487923
0.118700436591656
0.118701009646061
0.117512588434889
0.118742862746903
0.119438730672715
0.11618947244712
0.118382263280959
0.119122620871525
0.117308289375017
0.118006586166147
0.116327671680849
0.117687378997278
0.119604885046944
0.11561532196966
0.1194266269736
0.118591984355578
0.11650147667463
0.118013333678161
0.113135274253629
0.117580217928062
0.119980443490698
0.116511892126356
0.118066539483874
0.119112789612845
0.117472825042343
0.11863479488805
0.117115568158372
0.11464768857335
0.117341522563187
0.11560556287332
0.115897048956323
0.113855204973054
0.116347488820076
0.116917924203685
0.115110290968257
0.11467360741183
0.114836451545873
0.115155625168521
0.113065172949726
0.112157156583555
0.114532270845177
0.11638501364098
0.116022055235827
0.114036678543335
0.112645947270823
0.112034553900489
0.111881145112723
0.113763989519389
0.11430638714759
0.116187183609638
0.115064771647702
0.112423390428688
0.112944402376136
0.110374734089131
0.110644165233433
0.112869149249809
0.113191335898982
0.113749287237428
0.113256511200058
0.114114281624841
0.113552301221521
0.114492649443295
0.111882977485431
0.112311487804476
0.114225875048462
0.112551631108151
0.113485357508557
0.109222143500135
0.112157052095714
0.109754745712084
0.111278500270362
0.108370126381891
0.111647074426837
0.113691838913578
0.111316926699251
0.108483410995597
0.109900047602222
0.107777889947458
0.110913536779953
0.108668420878999
0.110336319726936
0.108893682682201
0.106014271626024
0.108631320978479
0.106985644854628
0.106153136914425
0.107186512671632
0.105817817609652
0.10796864920391
0.106506258334443
0.104780548766453
0.105005351086623
0.106185913531739
0.105465705291935
0.10552503189579
0.106449109287365
0.105644982940327
0.105252011396908
0.10558483156149
0.101755110860312
0.105528400166953
0.10501596028322
0.104148218072682
0.102072797440972
0.09957667171268
0.101596929888847
0.102419502896096
0.105583572701387
0.101070054063455
0.100055308428143
0.101433905315543
0.0997761588706807
0.101496392076612
0.099425217834395
0.100682968237841
0.0987544215479693
0.0963858185219203
0.0990865457262088
0.100047697184474
0.099013010994781
0.0973352782341865
0.0967065943636194
0.09630195542911
0.0971427926186091
0.096666669092288
0.0948777330670848
0.095806086749811
0.0969976198763049
0.0946139254316851
0.0970660542028712
0.0946566159421499
0.0903096476298807
0.0952770622479708
0.089979963156567
0.0921068172496466
0.0919261367922651
0.0919255095936107
0.0948980833223461
0.0939958243529549
0.0928606954886614
0.0943313719196763
0.0909876783383689
0.0941050481834522
0.0928597235710472
0.0905881406138875
0.0922698189003816
0.093228193738581
0.0912183657939616
0.0911948002957406
0.0893581348512612
0.090827524771477
0.0897879693293531
0.0910521323516904
0.0878597263704547
0.092713902394491
0.0890064443860343
0.0917851498332859
0.0878484715214639
0.0900393250799138
0.0849784108324741
0.0898582185486966
0.0897322375838364
0.0913222268847124
0.0898391809218345
0.0851787447561554
0.0891764218517236
0.0903922801186182
0.0860732383737095
0.0843199877852203
0.0877578089225181
0.0856632192408194
0.0863434476036665
0.087573613964672
0.0856420891235743
0.0844712495907402
0.0877165340231055
0.0847775086775934
0.0839217558471761
0.0853059394484051
0.0842264501076194
0.085427595049176
0.0857514137095272
0.0838113029606099
0.0856423678907512
0.0850852503025919
0.0842024323718139
0.084906246942379
0.0849588509557221
0.082155342274693
0.0855733664532806
0.0808050801781258
0.0825941269113443
0.0827321974648176
0.0860990800240463
0.0831037275385229
0.0834433925692384
0.0844364418571541
0.0818927324952432
0.080260093103086
0.0814784843080477
0.0806549466546909
0.0813012404666728
0.0799787221881437
0.0817061981651704
0.0815864158806891
0.0810823016364151
0.0855766729936842
0.0799262613094852
0.0843644406969854
0.0819823752621151
0.0802164928604214
0.0850551440809944
0.0838953904517933
0.0809151912156655
0.0801332454443063
0.0785029285038766
0.0825601887920573
0.0804751227575403
0.080483763331865
0.0795425155982883
0.0811622677823439
0.078388047751935
0.0818385101692119
0.0806091646685584
0.0837351848709651
0.0762891536647871
0.0791381867408034
0.0788624738189487
0.0791096882408116
0.0809131844486408
0.0811545484919347
0.079495104617041
0.0792871099030919
0.0774736453216334
0.0787506421854638
0.0809450498242944
0.0823554596884312
0.0775478403312486
0.0829725570032261
0.0770491039517476
0.0797267102394548
0.075878647230643
0.08255975933618
0.078151413411691
0.0804303953509626
0.0764992970890555
0.0797525078912392
0.0772403417882388
0.08035291696944
0.0803288086421291
0.0798310681074404
0.0773296130349194
0.0770733968184396
0.0775276684105383
0.0771795466420715
0.0781194466213763
0.0756261474676106
0.0752601817728487
0.0796781309871955
0.0758918748966239
0.0769198211799398
0.0802862242209156
0.079329407413322
0.0779279341589048
0.0806756733840132
0.0794239570230896
0.0810902916765215
0.0759198032442479
0.0794286742253417
0.0771871957788873
0.0778230170765085
0.0756378247317141
0.0801143532809864
0.0772865175814539
0.0764997221968459
0.0774833316922507
0.0764171642089716
0.0754436516710991
0.0786115393316705
0.0762764019583734
0.0765320773051448
0.0751659798155033
0.0758778969726746
0.0746357384832893
0.0808639795847473
0.0763748692780146
0.0765699383586406
0.0780561736867158
0.074969931846526
0.0757058873684985
0.0788040951609761
0.0837944381429442
0.0765597673735004
0.0771220816530049
0.0769545606157812
0.0771054291249105
0.0791915383638604
0.0795584260607381
0.0768378863450849
0.0816715639194381
0.0778648184351313
0.0790513176168469
0.0765192804869896
0.077477124841391
0.0783064046788996
0.075640560735877
0.0773927133832025
0.0786968798669978
0.0785313447432029
0.0782343930699596
0.0771215721140471
0.0857158219891413
0.076209569971567
0.0819188725214872
0.0800592225185411
0.0782885082406952
0.0783186680886108
0.0806681491699785
0.0823121572017641
0.0794424931472128
0.081736795281442
0.0803912685261427
0.0802545024623667
0.0769804154973244
0.0804021849687623
0.0824380045437949
0.0824792538905174
0.0804267945819608
0.0835598284369209
0.0802860709038011
0.0806339734169053
0.0803338403114501
0.0828217419553235
0.0842255670907786
0.0838157341718153
0.0809335198171888
0.0803932145283123
0.0826673604349283
0.0856498935917442
0.085099457717482
0.0852724694098844
0.0845921213129177
0.0869510993207253
0.0836867965843055
0.0892195434442513
0.0779175603189879
0.0924083118763944
0.0793317447240725
0.0882443957308024
0.0829309391975303
0.0907679915269405
0.0844673488372264
0.086908681034545
0.0858852878449956
0.0864005635381249
0.0866028493126859
0.0854649518194325
0.0888663634220346
0.0831508547972618
0.0960940916889765
0.0897353554203859
0.0916305976182556
0.0869759068534886
0.093115157288339
0.0901092825796882
0.0943715853653785
0.0879203749963039
0.0950548088248364
0.0939406509964721
0.0899474295748968
0.0980310354059445
0.0863129961535631
0.0956179629534172
0.0964132804220842
0.0927695992812917
0.0968816882792835
0.0913692026141251
0.095581360937132
0.0932193414963315
0.0982521396157033
0.100512582371292
0.0932764473535728
0.0980737244429891
0.0957150891598556
0.0963144875027572
0.102388008848957
0.0957105605189999
0.102119919725042
0.0984660070133508
0.0995046684580991
0.0982973541455738
0.120383229454403
0.0947897135281597
0.111665531109267
0.102438360860178
0.112619925862057
0.107869844845041
0.111263876197584
0.106556698062246
0.111439466463974
0.112927049983786
0.112911230590429
0.107705020890617
0.124763519337231
0.116487101445092
0.115240527264067
0.118156823503683
0.115026552508928
0.123761778578991
0.125009353682066
0.128842195283059
0.126993754337341
0.125132081742496
0.128242581316228
0.132443803749446
0.129920932428027
0.134645674361927
0.132664399563593
0.135776764390871
0.133453000882086
0.136931508614775
0.139898477678108
0.136046638948211
0.141907553883642
0.1400785478648
0.146348031020836
0.14626309031958
0.154428826485534
0.149698996195174
0.147611401446208
0.161836767670427
0.152544640598355
0.156090728295176
0.152768738721139
0.156994924015456
0.160827207482278
0.158693366331645
0.160787069400041
0.158640640087369
0.171666865296655
0.169527041244141
0.175954257928862
0.174369938467414
0.175669781713328
0.176459731492255
0.186777843273896
0.23800458111941
0.183826122732408
0.203815898228303
0.197617688885691
0.217925909511052
0.222052409573812
0.22150255455132
0.229978588927262
0.23321755644703
0.240688089014395
0.24887634472467
0.251540078093126
0.258664133901492
0.26810300712199
0.275350505735085
0.278689121057459
0.299206680948872
0.306404713512091
0.310769738334231
0.319690970409333
0.322365830762686
0.332769204224403
0.337415834789456
0.34188915465552
0.355046499950545
0.356325780231785
0.38052214591431
0.392407676018398
0.386720064164
0.390406170108854
0.40037972638059
0.425964149698929
0.411488648183505
0.458220712030127
0.444489199443922
0.444331471944435
0.459334838596208
0.461691018522741
0.473072851120773
0.479578965527228
0.519248053118041
0.500483984422373
0.504999688844734
0.512294674436299
0.527226222165601
0.523959313593149
0.538890975043858
0.542756367556389
0.536301738197777
0.555171852063015
0.570263842712725
0.620139731235153
0.558618624005046
0.560555468474966
0.563207771461759
0.567562788353832
0.595621376595289
0.557823768690295
0.597155274983234
0.58314039305644
0.583395870401368
0.580900292240357
0.5842979736862
0.581774944619144
0.579140141719101
0.585569127568094
0.577590693259279
0.599152027779235
0.575180312694956
0.584307762557704
0.62634738365832
0.578931963773496
0.597272538286713
0.583379647897109
0.606759244518718
0.585643953117967
0.60400230012292
0.594128730381638
0.600693656554308
0.575417915798395
0.57836832641398
0.560353376672149
0.590889765421094
0.559555083527634
0.545902866242044
0.537892946800342
0.526501076226995
0.524444909914611
0.516106303820398
0.526610391343135
0.542729799972902
0.508496636536243
0.508491073661752
0.493650474915903
0.494882095033694
0.487329279661994
0.492368806455229
0.484675958955469
0.487487375746005
0.469535963484959
0.475936643086859
0.472895726111678
0.470525278210036
0.460570010941975
0.471636339323513
0.462679720334063
0.464562802026094
0.461326807620775
0.463114838677519
0.461401065114181
0.463575503514491
0.458964587221097
0.463761440122915
0.457529971185889
0.455698609254933
0.454277964369326
0.459107538165745
0.460810137817718
0.459424581634596
0.450165920903428
0.455110909917199
0.454019846937476
0.459618083997159
0.453906823107795
0.454704118873845
0.452487260998213
0.460395333716395
0.456827615464033
0.451660237440702
0.462273011275127
0.453774151909514
0.448471279104255
0.446889351404783
0.466985818326447
0.451544761004909
0.437985394434276
0.4465658368501
0.44078230073573
0.442213178054322
0.437839148423885
0.463737654633249
0.446113655385075
0.439414841801066
0.436132046196187
0.432398852025542
0.436497001974726
0.429901818836372
0.427593524611972
0.436385034680616
0.41272352497013
0.456836889188268
0.44219502208133
0.462561633088874
0.445225432201819
0.421213546375482
0.408602186985352
0.421348576954548
0.440476546039397
0.424041559046404
0.42290303870971
0.416179553878201
0.422635810077644
0.423778629264406
0.414295519243371
0.415606041442335
0.40726200828871
0.417215576405902
0.423734707072032
0.413076896142672
0.406041706424721
0.416889388912029
0.402290477991486
0.421754502863742
0.401236784283406
0.402151098972938
0.387349941060786
0.393342324684978
0.387786617850018
0.387695899133486
0.399640392832594
0.379989645773588
0.382431471054405
0.372559918490326
0.364839075911768
0.368556201481112
0.36849307750906
0.373290820239772
0.358138391964829
0.371639687013555
0.346223502379543
0.355472558446165
0.357396693571563
0.372563512378989
0.357017453951899
0.350457194524382
0.337797105907371
0.352860256357053
0.350078575248328
0.337769086169826
0.342882037535235
0.331780282230183
0.328540902363637
0.33271190339164
0.32254170518901
0.321001943668969
0.316849728960102
0.321581808205743
0.318783381817097
0.326122186348577
0.317492069125181
0.304208565024224
0.300838899098947
0.304783943871931
0.302143939853312
0.303834000973064
0.29556563338173
0.312458679210044
0.299073820362131
0.296309070084659
0.319170088029893
0.298286310909743
0.298610518311282
0.305131591482497
0.300789883346571
0.301512775048329
0.314454481119492
0.326056493763226
0.315266376950309
0.312751756206909
0.323816538141202
0.316755313561696
0.322712224536922
0.325233528213299
0.332015554125784
0.328991472029842
0.344600885859666
0.350358293989106
0.352124264380815
0.361315772520142
0.366342213451744
0.369319661201287
0.384344604442067
0.371093523798393
0.405284156191665
0.400651479445798
0.420554786959961
0.414445063949699
0.412299483045697
0.430735577426253
0.429676667826143
0.437654068282766
0.444407483233918
0.445771985503291
0.47442266287992
0.456371848917705
0.466393320199581
0.473548423645048
0.48118741375367
0.471614448011922
0.492996783838372
0.490579269831369
0.504091341215245
0.505873469548613
0.497273438151589
0.501952614156313
0.496119576342988
0.509626287288854
0.511637402754001
0.517145925969648
0.51457429750161
0.514385824143962
0.531345899030611
0.521189422111676
0.520584349264858
0.527604224436914
0.535096510414862
0.537159556223341
0.530829163655457
0.534065708875679
0.539938499948817
0.544187886850308
0.551808499422171
0.55286148392536
0.582837433767035
0.565841658277929
0.560622177077993
0.562645343819626
0.566170116417354
0.579420970794588
0.580709115533183
0.584000022406127
0.582347522034168
0.588784753458058
0.602171157705907
0.593146696943028
0.600226475196339
0.600897348744761
0.623815775997615
0.616330021090145
0.617605096969666
0.617415591075879
0.625735797714606
0.660943150602388
0.633192695181916
0.638229405161915
0.623627711048181
0.633306347675852
0.639015300248751
0.648831820865716
0.648131789073226
0.643120857839222
0.644260435650448
0.65466492519813
0.639707790687304
0.643073631180273
0.660017051514578
0.64990877850373
0.648628475592149
0.650415209736111
0.651235840808766
0.653343505787317
0.643636748793343
0.638549157545427
0.66202912880773
0.6667636433279
0.647783987880765
0.648819933207482
0.649928288140999
0.658461768183839
0.649811309093287
0.653299042126882
0.657560610472873
0.650652141222803
0.655210790828586
0.654707900907386
0.654742495740454
0.670553181724384
0.657544145222124
0.667989972924769
0.662946024056545
0.672619829707446
0.669835138060321
0.668456736909246
0.680915325893693
0.684431230898865
0.674003481942351
0.684986759489612
0.687167619771119
0.691451587929925
0.689844511690091
0.688674121098222
0.698665111866189
0.684724696464052
0.684944729995689
0.682820894883235
0.678142376447594
0.684404358887345
0.673663387182221
0.675600516824965
0.665782720816357
0.654591857295036
0.645363490000913
0.658561584595114
0.648044806675613
0.64170015121889
0.635716184431714
0.636720921199553
0.636717926233783
0.621440963018091
0.629668128338335
0.621764865640168
0.614309302854646
0.614116708508764
0.610345405851
0.612747208292966
0.602351676249814
0.602395978703626
0.615068789825318
0.605710879463535
0.604867966581767
0.60562696735067
0.6027370088598
0.608218752736912
0.602265915968791
0.606990977779956
0.603906612320251
0.601200411079297
0.60841960826969
0.600845972855961
0.600898618999114
0.602694609882667
0.600186772876007
0.598252048772371
0.601901782832809
0.591893446401428
0.595091906567577
0.597470981869556
0.597145111141423
0.593503657979342
0.598948293903505
0.599482315027027
0.594161300236845
0.593236654504248
0.592657362857239
0.592443019529984
0.596758134811093
0.59562502564685
0.597448596380467
0.593716676441528
0.597165260671669
0.592117923892438
0.592988380534451
0.603443561291638
0.596732707659249
0.596397776038193
0.598808060618281
0.599962912989108
0.59036596582535
0.595316768384227
0.600094153094116
0.598852944059198
0.596046559526994
0.595360886395923
0.597751222209528
0.597710235585473
0.595473664231253
0.59400604346367
0.580766108943604
0.581016041703835
0.581962588198984
0.579170766970931
0.575529730751263
0.566083437031484
0.561378704152222
0.561964506476135
0.558252861890047
0.547796817445625
0.545187318224491
0.543156328762314
0.537961857206746
0.536587855743449
0.534180711862216
0.526690681184999
0.526769327348774
0.526009992021554
0.521764511010234
0.520300709669764
0.523928845806422
0.522706371961572
0.522515851838122
0.521387832525425
0.52186946445223
0.519702965085027
0.52132388099137
0.520239392980459
0.524877613113273
0.527545242439064
0.520538023948794
0.522657218093113
0.520391784936736
0.517336335147224
0.52819366397269
0.534376900471928
0.531927129542509
0.539828025866255
0.537670659560875
0.537994790498452
0.545486395317781
0.539590169533419
0.541278089775403
0.550265387821275
0.542774072577152
0.546120632270097
0.558452893021372
0.54846961474378
0.545929896446498
0.548269091430176
0.551187691229166
0.550813885697444
0.554086560894444
0.548642582265446
0.547101479502253
0.543616159294735
0.541288283724721
0.544312304771741
0.545425686298597
0.547939611156044
0.542523985276702
0.543473045988014
0.541761039936876
0.534594128175605
0.533535486358186
0.533387319652365
0.534925622421531
0.529653865408984
0.524792175483178
0.525515761067045
0.523909974855203
0.527412100598474
0.524399050955965
0.520911613857064
0.52306158072197
0.520844238455338
0.516829724744736
0.51642337130189
0.514675832175609
0.514694343418923
0.515375089636152
0.509366722090034
0.512340215463062
0.509170225237709
0.503553884706577
0.504526603435109
0.50466349028503
0.499711044978029
0.497467303657873
0.494564881130593
0.496828444035235
0.492253351423034
0.489466952566111
0.48282586697927
0.483474349637125
0.480325019326062
0.474147132748127
0.470005700134517
0.467881050680429
0.46716375497095
0.461870133573718
0.457420219257975
0.453982760144126
0.452823408593501
0.45006099080886
0.44745207195556
0.447418979971166
0.449539156911102
0.445764510506285
0.444286644327049
0.444653616224672
0.439758288310495
0.438132500647965
0.435844809088865
0.431325862955578
0.428821646054572
0.423568331694025
0.420174477855698
0.416188361185123
0.40986999180793
0.406355351843543
0.402470660930725
0.395551719278538
0.394303907292511
0.391561516246518
0.391135023937903
0.391714076689084
0.393148322881787
0.395936022321752
0.401260597760365
0.410686481240038
0.417216365825996
0.4260126020691
0.438949112288714
0.449862510967937
0.462446530836199
0.477796657342051
0.494233193321547
0.512158544923891
0.527233635214858
0.548251730804554
0.564321590515272
0.580274382020774
0.601067763934687
0.614674060019721
0.63540890347601
0.646965081408391
0.667278192676812
0.683459051413777
0.702044903563046
0.708594095727078
0.72038105849431
0.739987452564215
0.748619411120176
0.75966043719348
0.771547864357393
0.787347305391464
0.796629763759787
0.800351212574717
0.811923242839749
0.822939918420593
0.821997805943986
0.828006729895967
0.830556159244295
0.834022899094737
0.83893547572328
0.846226232048889
0.847746887658518
0.844601828052717
0.837644016405914
0.842822877605683
0.843908326314562
0.844356418423519
0.847441140953308
0.848767573717141
0.851051154199623
0.854739789246921
0.868832084030232
0.865754371347052
0.872788755768135
0.876140320162793
0.876805166026697
0.887321885948757
0.899404447156103
0.894728932321295
0.911270101804055
0.915439118890007
0.928844038535674
0.937846282912806
0.94622258230508
0.943910857568993
0.965743475923579
0.986229017439855
0.990889883511738
1.01650050139885
1.01985918478051
1.03644560699932
1.04121194031053
1.05035857405745
1.04497889979272
1.05737630687009
1.0714448497507
1.06422664299857
1.06700742431012
1.06730926891896
1.06861138316631
1.05840383129042
1.06359935335372
1.05321085145351
1.04440570937945
1.04390579966979
1.05462674942552
1.05416405897963
1.07067409460369
1.06317056148381
1.08224699473311
1.08848272522971
1.12241646932484
1.12084201356502
1.14190358669316
1.15847481763467
1.17184732834
1.17142252405388
1.20773231456577
1.20749531682716
1.23217518623205
1.25293138930815
1.2688199752333
1.27174445471262
1.25887699350375
1.32161315845749
1.32555016740561
1.35728219422455
1.36330042037693
1.40218296731264
1.45772342969149
1.41772044387318
1.43397673907314
1.5305155241842
1.50817670028045
1.55369854041289
1.60428912495345
1.59433532210736
1.5835004104056
1.62491266691226
1.67265971766395
1.5772357012444
1.67260471919306
1.64163424379615
1.79918169803931
1.70100789577254
1.80981584285719
1.81223788157269
1.72336056592346
1.74977562088756
1.77093325090357
1.67495887397704
1.89195269908378
1.85392754081701
1.69076072562755
1.73772190062354
1.77448856135715
1.70563987194465
1.76458229599711
1.67860317328265
1.69327647399345
1.77180924674795
1.8161130703486
1.71553262416539
1.74651834842427
1.81307727427472
1.75338632354744
1.8690014967213
1.88832450941425
1.74837761116599
1.92873797885327
1.89258705770861
2.0705035797342
1.95193836096684
2.00749723455493
1.91591704478421
2.06074428487443
1.95621877688281
1.9520841894488
1.85782777982521
2.14790780280313
1.88855328521943
2.08101048478709
2.14669639721223
2.09317515974104
2.07878103871637
2.09605304846203
2.08110544037509
2.16879070708489
2.00861192993434
2.22612330191663
2.03300885593388
2.33334649608357
2.42554273967336
2.15692837768828
1.98859089043774
2.01918155420652
2.12434167510153
2.15204624722205
2.14815220004255
2.23154757071579
2.15632990996795
2.32033706500892
2.12468182588283
2.00423582464388
2.00388594995143
1.96404388464182
1.99638980946912
2.2005804178544
1.91540223269795
1.78122146194586
1.9448349222751
1.91308673351285
1.7395693150151
1.79254879434118
1.84195915701426
1.64714229023575
1.67153012669842
1.72804878121892
1.69889913775743
1.64143858385805
1.55223280758191
1.57910666165653
1.50024403342035
1.64161538279492
1.51456401651531
1.5580361003037
1.50418121582861
1.5289272559361
1.4853881589708
1.56430011871027
1.54536156051519
1.52498398490473
1.42066842959301
1.46265975456666
1.41515500148607
1.40079880076149
1.35237847977184
1.3962748966026
1.35658424035553
1.31786023315506
1.26063663643443
1.24902076591645
1.23143341936832
1.23062313889965
1.14971392443672
1.12452377774434
1.12435047749067
1.07454606115176
0.990940236142309
0.989929658031484
0.93493201525555
0.90065554304734
0.859980543243218
0.848373464112196
0.812148396737224
0.794011555835166
0.748905309880651
0.743847244921181
0.710421320615627
0.690398124687442
0.670398881095445
0.673996280664604
0.647232901009206
0.649821229845512
0.63794773676825
0.636551933910382
0.62682544197742
0.625890498575326
0.626115523439765
0.624161620758819
0.606282097068412
0.60537935030949
0.618404683676001
0.61818250553558
0.621273260105212
0.612478582062274
0.609527201401784
0.611271224717951
0.605297033849986
0.61138846595974
0.606502065535205
0.601029719861575
0.583962375869721
0.588693799544214
0.589871113432329
0.578822076519581
0.5765672408447
0.568726190594439
0.568689613429129
0.557576839011042
0.553680664882107
0.55137485993373
0.562279748297146
0.560523820059159
0.563641504404235
0.57109898312952
0.567585082567672
0.567846259280837
0.564464962757643
0.576259015981888
0.567925117603371
0.576728315037628
0.576283653039724
0.578245369566643
0.576866442768048
0.595555027878877
0.592196288689493
0.589231622361453
0.587081367438443
0.58542897004308
0.596194515997659
0.594326854412941
0.587372100927096
0.596788368430835
0.604158230032887
0.594300603347676
0.596067739035468
0.615410754142139
0.60740636701031
0.611675024838399
0.60786473457879
0.618063853213975
0.616535586948187
0.645397013561232
0.63883235329428
0.65366906047983
0.656047307208133
0.694373298760843
0.706360799601006
0.705266880831783
0.720053757639905
0.752418425735103
0.743367318064467
0.779790233117513
0.765165207884465
0.758583524786726
0.737189430829761
0.74028489555441
0.749787546085046
0.735637498427476
0.704563987880059
0.726109649374775
0.707706693808801
0.695177509068046
0.686049707576097
0.702603991333489
0.675478251381414
0.685685096435381
0.688516607603705
0.71542340947162
0.689679484018148
0.682811901142987
0.711574939624456
0.693616101807948
0.69189507876333
0.70299428447879
0.674626170940091
0.694712686321425
0.66991732514814
0.661174520174274
0.674766723894059
0.669396718498898
0.6553579747499
0.66628395801013
0.654867392048673
0.6458804126256
0.632664997538668
0.628680645238154
0.628391195400832
0.628703487528406
0.608591734354941
0.622733158042738
0.619281155042209
0.631805224962187
0.62099446892453
0.608756154749737
0.59139306313383
0.604804149932146
0.583551203936265
0.610865608735253
0.590293556693694
0.605064057868584
0.593090008974013
0.588743495685425
0.582825837987862
0.583085294911203
0.564076817498174
0.604381038731944
0.5659395219881
0.572529537309306
0.572376986872226
0.563431296280762
0.550101477225256
0.572801183597379
0.539664271918275
0.569533685953462
0.560734098101564
0.576483131937718
0.527205221256844
0.564125405554995
0.544704281882834
0.543406592166108
0.525110591026969
0.55261642707582
0.530097164053504
0.527900178238894
0.53724654611911
0.560975121833461
0.533135412220138
0.539023947713769
0.547896705735298
0.552918845768049
0.539080303977298
0.561010896958137
0.552758613415672
0.567885484803907
0.547917778179872
0.547040541088313
0.535610275331828
0.567427868333171
0.571823250509741
0.583271330384009
0.591522259337291
0.600425036361188
0.573069492175453
0.571176389543929
0.569339358062941
0.613207855072068
0.597169846149236
0.605739304461509
0.613618102633183
0.629742198255959
0.60402047394041
0.640451813021422
0.619767408743887
0.654116142886076
0.659897368192491
0.642558974380213
0.664638708220157
0.712899354417236
0.742663792509219
0.743041159509945
0.760751603331952
0.780028350903303
0.786001106109635
0.873639173025106
0.808959443941966
0.8833145458942
0.82140603109608
0.899956866274038
0.901557879098762
0.87476844056678
0.835700275235169
0.885930641532024
0.88079357662227
0.947186690309792
0.813338645626041
0.911031923859156
0.877546032492595
0.860784075661866
0.857694864911117
0.915479246933035
0.85639702322151
0.949056354924638
0.911553746299429
0.893792682911394
0.807787435293685
0.862029116930294
0.857366359254462
0.838541385699452
0.807029830854501
0.927498106499349
0.836371442185589
0.832179861946155
0.820547824551867
0.845514610606965
0.814290387530528
0.854425381827725
0.842393220950624
0.880975527025927
0.777158660480712
0.853750091455825
0.768053212792799
0.7913901712886
0.770801222009093
0.772458828452393
0.79061049395611
0.854384236605988
0.824329821539476
0.846041311821215
0.755990411545373
0.862378520563264
0.895088316780579
0.871710528933756
0.788283150040459
0.773995143320559
0.822078815949472
0.901636060963599
0.83121320446366
0.816114368836047
0.797806045236844
0.802667348193934
0.787962718566895
0.83460319304628
0.74581786842755
0.873224724656771
0.900105502422522
0.97049079456117
0.774928005271003
0.790583552166089
0.815306993988689
0.898724679656148
0.842308070445952
0.843696471876855
0.868642333309572
0.840377097671724
0.918483421224973
0.889774049980423
0.859620334504746
0.967393441189086
0.848355680667762
0.963980460664164
0.970627070334037
0.904911191031465
1.00425061884817
1.01179642850567
1.02961617511307
1.06467237922707
0.909746106718421
1.3487933057947
1.02200035570807
0.994433807372814
1.01692786394813
0.990068135138004
1.06422211489578
1.08585595296072
1.09226116117092
1.354002414657
1.2480837713671
1.06483115084189
0.980792474134852
1.17306708229587
0.974621481183781
1.2104829260827
0.916512598264643
0.989492836932417
1.08412480111726
3.19943108595457
1.88761646107512
1.23430707991875
0.87309157819405
2.22206833936315
1.23950394647598
0.931161742043114
0.941169582624859
1.15057713032408
1.42540932514692
1.35990612073116
1.05734961237943
1.02448901352549
1.08118029168371
0.899032170369634
0.902352733611844
1.58586008734607
0.828557184394654
0.999078185959746
1.16421031636161
1.41557181592174
0.892485774477651
1.231728229623
0.980701978695043
0.653677545970972
0.745300375008587
5
0.566244514186698
1.51146264780265
1.76960724499738
2.81083964676639
1.39383119155876
5
0.976539509325398
1.11420181086057
0.454663917155948
2.09811476547841
0.902536047895673
0.637493462234833
0.664509128886005
5
1.52522398911078
0.958615313672066
0.780515900338918
5
0.806227321025536
1.17156139416084
0.886903871690968
