3596
4000.36533379555
650.420452594757
1
2
2
0.0480082292545405
0.0616405066290431
0.0489124425195513
0.0503854292631697
0.0385882397258116
0.051547422884642
0.053890325462443
0.0601685073535856
0.0408242413951685
0.0550257292668213
0.0418537031161233
0.0494506700574305
0.0582206292216569
0.0584343816105546
0.0481706257893578
0.0567707180899696
0.0450262893982459
0.0615156128788939
0.0623487952919241
0.0630060194003379
0.0457069378284425
0.0546667991288184
0.0511289617413771
0.0491860610328855
0.0516287469690348
0.0477061654037369
0.0489806466693287
0.0563229931956222
0.0479120293745492
0.0521350909952048
0.057765363203276
0.0555073640393967
0.0491773603230188
0.0527536383276403
0.0512480033037181
0.0547921632534506
0.0505766312821845
0.0533767334058861
0.0519956467590495
0.05627654663375
0.0460964168503075
0.0547311460968351
0.0436371191405235
0.0610957587040043
0.0522260879670366
0.0529094173094067
0.0551203853359606
0.056337643420337
0.0474509994728554
0.0608775786396992
0.0581571865406253
0.0600665104037084
0.0478469596452905
0.0572079902030185
0.0445310273873021
0.047757617579685
0.0508562462261434
0.0485633103854581
0.0416673213364465
0.0500807128849453
0.0506293992042075
0.0545581304060634
0.0360034207995172
0.0385188661291487
0.0500133558503741
0.0514376033150622
0.0446804038117304
0.0520931675501896
0.0560677322254935
0.0454629862818918
0.0544007086981374
0.0473620559793788
0.0434738805145398
0.0367710729430991
0.0509877195544619
0.0433467933375264
0.039137863514061
0.0560079279835709
0.0427008859440705
0.046630082334896
0.0570611078811168
0.0524622822678961
0.0482945016249455
0.0538384226955114
0.0539422106299612
0.0406118958139173
0.0451716072350277
0.0470768532043565
0.0410261232630948
0.0419696690209
0.044999034624335
0.0469366802274872
0.0498202769379289
0.045760829967326
0.0495862481681076
0.0449134192464743
0.0505329571196751
0.0417040048812823
0.0524061973647756
0.0277454438652536
0.0568050302115637
0.0626093249096873
0.0357797228241612
0.0583068329937664
0.0314528183821647
0.0515983216479828
0.0370957963440069
0.0548119053704072
0.0441909768110601
0.023871499609838
0.046780069349023
0.053746431134281
0.0537838462883471
0.0495155560591003
0.0469079366976339
0.052757275340637
0.0445742208414914
0.0377539943450381
0.0395465307073
0.0365338687222811
0.0425550206860668
0.0362088492268575
0.0450840713601449
0.0396914644263659
0.0362577420185895
0.0529352717263019
0.054998060840454
0.029593623559539
0.0463523769853837
0.0406725394667634
0.031369848073201
0.0452767014016697
0.0304422878502475
0.0458739919837163
0.0430607981160072
0.057303227780063
0.0314694535066511
0.0513309129922093
0.0619721909123037
0.0419223984005511
0.0425971530297708
0.0492398478184947
0.0425971702144546
0.0375591784902715
0.0300533146191603
0.0436085634245023
0.0426329842236382
0.0341582197326274
0.0416684172326713
0.0400640387982224
0.0423950817322694
0.0444121899291095
0.0395925946777018
0.0362986199565874
0.0443994364193062
0.0214850414885286
0.0295009978872177
0.0677731236954663
0.024361249129425
0.057765450015692
0.0166704305239417
0.0443905594502584
0.0314137358663712
0.0423745059883689
0.0320327461925887
0.047826111110911
0.0400900256278615
0.0344505186558709
0.0393670236109633
0.0424822269762358
0.0339436154804267
0.0365737054812139
0.0448745139478312
0.039313072056375
0.0517181671081965
0.0492418808593106
0.0369054902385206
0.0378050485190929
0.0384673285656823
0.050862973018987
0.0422229479950053
0.0491544104612559
0.0285483473920428
0.0377368529464666
0.0438321727581137
0.0405101699860713
0.0313042833042432
0.047600807928355
0.0271930666247062
0.0419517481022822
0.0362285843596417
0.0378345326766223
0.0454728447855194
0.0485656092303498
0.0250432943508658
0.0614838442714616
0.0304878333591351
0.0448704527901808
0.0432777329571071
0.0337390677947523
0.0425322356378494
0.0329276549776996
0.0438426041018121
0.0377073585032941
0.0370647158486204
0.0353903489595781
0.0390257505378814
0.0448557669784385
0.0320489621042905
0.0475369668252295
0.0310889160818192
0.052852777397136
0.026646028058641
0.0411196401171432
0.0426686644984517
0.0387338878358606
0.0487241069771319
0.0492400261716356
0.039612867663041
0.0397549558489568
0.0334064177867314
0.0374890475750545
0.0343444550452251
0.0461250798464717
0.0407787278283515
0.0452562414147261
0.0317657140430685
0.0400375825487255
0.0395426414249807
0.0475243553018083
0.0529403378097865
0.0402506812656689
0.0366164552923657
0.0389007090565373
0.0360014310154595
0.0436147577017465
0.0424229953803908
0.0499129677536391
0.0434350919277614
0.0381099846633551
0.0373304103072829
0.0424872946435954
0.0341936898414024
0.0456468381390795
0.0315542456281886
0.0634411705252172
0.0252093194725612
0.0521305229781147
0.0331675700066131
0.0559938836187169
0.0456139980481017
0.0465394377917866
0.0401412951219098
0.0455935936534445
0.0450627310397401
0.0452742258512139
0.0563740616742562
0.0445799650046559
0.036513166643352
0.0489999773554872
0.0397332936693384
0.0442925201466732
0.043804194997581
0.0404650775499986
0.0588438612084041
0.049154565122778
0.0363945807489368
0.0478254381329717
0.0357380268022399
0.0436024105886242
0.0398921490625876
0.0442215386119821
0.0634066925769494
0.0316450919586088
0.0319856900498575
0.0516437493201574
0.0492635788202186
0.0457713612036449
0.0515266633699291
0.0461413103713439
0.052096937636197
0.0558228495038796
0.0333455457945997
0.0639090774738939
0.0313706140176818
0.0615852178935841
0.0465377160930852
0.0508066256510008
0.0437021356924536
0.0531953812515689
0.0462588794158546
0.0434944876409846
0.0494320095130412
0.059534198886858
0.0494004287904629
0.0352382714134698
0.0552566060798395
0.0506973973554544
0.0529077429856468
0.045148638475904
0.0572299760168487
0.0443503180541479
0.0520152747528599
0.0560711230097421
0.0522580984591089
0.0516919920409641
0.054100896268449
0.0559039375030669
0.0507062483267047
0.045713282967404
0.0740464929721703
0.0420574251184537
0.0503636983567385
0.0515815908722422
0.0587761076869146
0.0526816150027483
0.064095208441074
0.0424203886615882
0.0574020114762761
0.0541252937922752
0.0600697487745482
0.0575657485111298
0.0569462417500073
0.0567604421433297
0.0642835245208055
0.0589196386974166
0.0642820499530506
0.0610430151831447
0.0526874381075345
0.0544486812444382
0.074624342846842
0.0452816390744243
0.0715552065146763
0.0620066376010296
0.0608442719365344
0.073063660918332
0.0653671276643702
0.0603481214118694
0.0555304389988382
0.0670380103977193
0.0652939764984932
0.0743824866543071
0.0773549462131597
0.0720050110213673
0.065672470075278
0.0797053995803223
0.0768584658995096
0.0947511294430024
0.0682724541550633
0.0783166382454397
0.0685695813903918
0.0645600660164621
0.0916984944611441
0.0699855924319022
0.0981479169964857
0.0681106076051944
0.085019718185544
0.0755344334097942
0.0951359783598607
0.0784950082735913
0.0956167969406655
0.0847838262204498
0.0900481505777833
0.0810064956707402
0.0949606963396904
0.0960011520335007
0.093622224893127
0.100580539925661
0.0895044714550827
0.096027790878781
0.112218771774404
0.0998324221178724
0.120781717496239
0.0990593006743173
0.102765874930765
0.135458428854926
0.114409678427181
0.134185224930669
0.0999914155778087
0.112913861339835
0.115644544784276
0.124772423847333
0.129898836334688
0.122907236668977
0.13363330659771
0.138124701600176
0.132488757753993
0.151624094198324
0.135792617814865
0.141011980025198
0.140209915009143
0.151952347691279
0.154341846529506
0.147536988656243
0.157251270897463
0.15095221285129
0.190538763876829
0.153690101100788
0.155117840009181
0.165502811832106
0.165502209955565
0.164105964396575
0.179661777657776
0.172972491184845
0.1818708482217
0.16765856763389
0.190295685018659
0.1839552980677
0.187296298907909
0.202270185013748
0.1850561434422
0.179401098479166
0.203258094750035
0.183346106433953
0.216768048578271
0.189660755818156
0.223242104679136
0.201621379761247
0.241357746989877
0.220701353202211
0.241650100443295
0.202320816038341
0.235689091386589
0.228729540620466
0.248861493220754
0.231771632520287
0.248721189954304
0.248213126291117
0.25843424294322
0.259097401657655
0.257950544961149
0.257984154546821
0.255305677395031
0.259248599421329
0.268646599958925
0.284827527845881
0.260659295251291
0.280480285904679
0.291390868713265
0.287923155342405
0.299129084798806
0.280650994162743
0.341619270158368
0.296488698897505
0.306385590252548
0.301274970722536
0.313871315674408
0.317827758036206
0.319759561195315
0.346323251903627
0.339712949341762
0.326172580555412
0.353687146234616
0.32894229101845
0.359328470290966
0.340785074965739
0.364908742029538
0.354768037525313
0.362777889817794
0.352896621329367
0.394770681084651
0.374954638558389
0.412992914833529
0.390062696868397
0.426309092754848
0.357556413493714
0.387509123637019
0.393833575673096
0.429768434789686
0.406264837538843
0.435186880105392
0.398830576965125
0.41339074314503
0.418587951958274
0.445361684059569
0.438493760734991
0.458418404214495
0.445689021057501
0.463231650083191
0.457082990954863
0.461051778520595
0.445408549298194
0.485715835103548
0.454807146818371
0.46419363348084
0.47157525013429
0.514235227620795
0.498561795361667
0.521433146006249
0.48499787140983
0.509910488560696
0.494791586112205
0.536108450340646
0.512859360884062
0.533392071301782
0.55666432404942
0.549963945874145
0.514997103872583
0.562534813536603
0.56056302839922
0.587326508002568
0.538301202503327
0.577450685317041
0.548561492965722
0.667311994945826
0.563641803344261
0.605000809935476
0.589513634639079
0.573997272396726
0.591578363162511
0.628786189128196
0.589947861161529
0.64103502614081
0.570249751575188
0.641307804160941
0.642280943105825
0.691064264134026
0.633256561222571
0.631928234060533
0.638349634205435
0.671342511596646
0.652814255277298
0.712875651725807
0.675914050878338
0.73257430999972
0.685859143400698
0.708922792416999
0.685188351771332
0.688649909985077
0.690999713955574
0.707103801937766
0.72365135984277
0.729720629325797
0.725512151853835
0.771970439036192
0.705549635724334
0.74643404515784
0.726001674715045
0.799874264353073
0.700793085261207
0.801702100828122
0.739384709892997
0.788500345747781
0.75379372333503
0.842863983028304
0.763150795402139
0.805776475017685
0.744416186654599
0.874158705668556
0.759940772668875
0.840368006533154
0.800950553169146
0.896951431484882
0.822677231489734
0.850425166073551
0.800028949928991
0.841858648360283
0.810025536549787
0.88484051007668
0.830608928028737
0.922003282035195
0.848321260758667
0.877493615370839
0.882095514725912
0.927168718199068
0.848356205707851
0.966538803905529
0.83144292813443
0.944664335291254
0.834349621429575
0.980972308075027
0.920157019905089
0.959865274569767
0.885848020240926
1.01807327152692
0.902033471013362
0.967110117410476
0.891637593982653
0.981037450821327
0.998082680832716
1.04420022364888
0.930333582693253
0.998445904544186
0.885199291012271
1.02350236680572
0.926355021760722
1.00597026946044
1.0172129594258
1.15380796761312
1.0201777824036
1.09691519966853
1.053666028124
1.12404310995438
1.08586911059816
1.05261730765087
0.988060465504376
1.16709579856497
1.00191420052212
1.06317019805163
1.02997355731754
1.08499066768149
1.13141440458738
1.13401440144454
1.0299876843728
1.15480810513948
1.08381965406724
1.29247815520616
1.05619401625227
1.10742943022343
1.09838062964124
1.15549769459471
1.1364976550961
1.1581458349594
1.17857780770731
1.2609029668523
1.05627112200102
1.30496757739055
1.15377500801997
1.21813916564702
1.15985243795206
1.24888491227121
1.15247121047879
1.38548301353087
1.15051622999227
1.28330061944293
1.24755467396948
1.387611036437
1.11262714737391
1.24738767395916
1.13286633806655
1.26878181822314
1.34843157315625
1.29304558003225
1.19264142988949
1.26259423560723
1.11896776656423
1.33000204534775
1.17614992692235
1.28818176044073
1.17600434400509
1.2403492208935
1.26044577254043
1.2125793470926
1.37143314125619
1.33763887025295
1.20562627808686
1.35503859919854
1.2029787589294
1.26202745692743
1.1348435319881
1.26825994940537
1.24434958699204
1.38381028332284
1.35220688774979
1.37479321674419
1.41013328706764
1.41983788915885
1.21704029711428
1.2980720525637
1.30407044626746
1.61091454808722
1.25868973395048
1.34762264423006
1.26754458994598
1.33928325414019
1.35708566564565
1.31910907226004
1.33269683235506
1.33671626922514
1.37997173698099
1.40166217546953
1.29222388426609
1.33361259767978
1.25206722746126
1.27954855265291
1.3807794763218
1.47198338700693
1.41629638450986
1.46596414606901
1.48370426146058
1.46223721747363
1.33533956455374
1.46444075411197
1.32718889739764
1.32951911130537
1.35370563743557
1.72644796529604
1.39696272302712
1.46179001321554
1.39531737026258
1.40118218733603
1.32975954249059
1.42256748449613
1.35442614610403
1.530244268769
1.41828086178525
1.50595888131427
1.4526629757537
1.52348096410946
1.60110198234578
1.3744330369756
1.25380247595337
1.51036587568958
1.39761023725767
1.40057595752576
1.48571318724462
1.59189060585267
1.30883899681319
1.4494241440836
1.39371677663557
1.36444203760079
1.42831545332443
1.54204444702569
1.41962463617395
1.43349619883449
1.35494122681862
1.47937990644747
1.4129509759005
1.36242951787437
1.43308873330006
1.46424361159721
1.23842407287777
1.33054738845055
1.51491329711673
1.44799936284297
1.32032764237729
1.40339350511364
1.53460660544515
1.64286885237242
1.38205942398348
1.43909406761465
1.42535021960568
1.5094750783383
1.45471843364977
1.51817308793242
1.38939294687536
1.45384870046339
1.44456166044714
1.54891455386464
1.54455250613063
1.42014682521329
1.50995295490028
1.55496885579786
1.36941507736345
1.40049939104517
1.47573051139084
1.61001055305133
1.48569103732933
1.51937037715378
1.54482151198923
1.45297191665321
1.38583668020589
1.39960696498108
1.45951219179407
1.40091888231827
1.34101636751663
1.3596024097937
1.45675941094472
1.52119109524831
1.40607368850976
1.47955082304978
1.45405073664983
1.46878320742895
1.5266846564026
1.46754208769629
1.45297152709159
1.50814174105209
1.51948016111463
1.47987223152077
1.47768197653304
1.48234285010106
1.39790931362236
1.52695650764124
1.42778607872478
1.38725061312724
1.4229749639106
1.46658605044913
1.47410974211205
1.63097098087767
1.46793366405995
1.38797038294605
1.42496249288667
1.61443445824659
1.49972700531405
1.41512135898318
1.51565923535062
1.55115576462883
1.49771814112323
1.44574240906782
1.44828854779743
1.43313813325264
1.46304071064661
1.39489819329139
1.36304514367354
1.51184014125569
1.37601811867066
1.38933428436005
1.46469981691722
1.33441450453055
1.35342139088319
1.42628056652655
1.42543939508557
1.41456780085642
1.3174025006279
1.39510341653736
1.41887139203915
1.37078503089387
1.41740045508476
1.39304214453764
1.28122719651017
1.35231860467609
1.36905252382497
1.42958079291731
1.4846495507633
1.39431631981574
1.37501024393424
1.39129056258439
1.32691825581539
1.4552061518925
1.4878848541453
1.2854500036878
1.31248176816269
1.41073935733873
1.30401677874999
1.32357089990153
1.35021591460223
1.34820116204457
1.32083136520482
1.30921286387363
1.24305533362369
1.33194323234851
1.3347608578181
1.32382078060205
1.27860284022824
1.25665013667234
1.3251272809893
1.3270912338912
1.34936935199288
1.38894892500405
1.33282084478052
1.33670413094395
1.30592900443371
1.29638124190205
1.27311302144476
1.21382155719835
1.22803530596496
1.30954587597897
1.27570086648566
1.24828886706051
1.32336057586183
1.2012662297073
1.20591485331643
1.32213395615384
1.21722993154276
1.24397220347806
1.2662803810744
1.2643125586196
1.22361908948799
1.19779728083098
1.15989136901362
1.18414809914032
1.19185203246428
1.21951925911347
1.21420624536041
1.20425095155439
1.20477893299566
1.17994547867312
1.20968539869722
1.19724616216518
1.19413374985904
1.15574990595367
1.19103046546631
1.16397221996787
1.12545469244925
1.13340590192675
1.12767147326665
1.14833180146738
1.14221696791166
1.14737802904784
1.11920581770291
1.14117295477287
1.12339898484011
1.1045412383816
1.11062297215314
1.09439176885173
1.07194234371803
1.09536442981658
1.10688434810488
1.06722070787139
1.08901267128043
1.13386524455214
1.08572464461021
1.05659800323449
1.08227908251364
1.06676980684873
1.07180408315992
1.06442652812908
1.05339186820359
1.05125259218425
1.07927166723116
1.08360812577769
0.990264564506677
0.980243836112355
1.02082439391639
0.993493058394094
1.01438854697705
1.01367254248582
1.03720658890155
0.959799343913016
0.960635430395831
0.980061390570757
0.964844310167673
0.988197770860295
0.940902602516418
0.946350607728092
0.956708584649705
0.955402362384759
0.943453654979451
0.933189654035353
0.977907038856764
0.94007223408908
0.935783179258372
0.950889639016688
0.907426506441213
0.883582534756955
0.914882852602905
0.930655174949782
0.899536501160409
0.906946405695495
0.925711912703919
0.913940584773449
0.924076910775324
0.908751473357053
0.879645266543765
0.888610516324
0.88934729995551
0.859952354816731
0.861495150883149
0.861803159600404
0.851790943883952
0.819553271523259
0.824607163815564
0.84580047440643
0.854207272556376
0.831812592066326
0.860411646505382
0.837570947076874
0.817701595486468
0.833840854991785
0.838667136537375
0.813501657321939
0.815136734827207
0.819319781205975
0.816414713159303
0.796210639063636
0.805014784799877
0.792092071711534
0.780668543000701
0.778574703270947
0.771182559740931
0.769787714396039
0.774765804797408
0.777802329283045
0.761116051296042
0.757038159427834
0.788251704757929
0.752316356601264
0.749821646112662
0.768107210640871
0.741240686550569
0.730059357464305
0.75557426523941
0.735121995503629
0.735221154860791
0.725616984530071
0.724374087261113
0.712632946993137
0.724581145442766
0.71720349660944
0.710167971389964
0.697180712783417
0.711151304634556
0.703556768522388
0.698653070155702
0.697682399790855
0.679874924124113
0.693694257485685
0.689553737921306
0.67048647172295
0.687913742209362
0.664775463886341
0.670303740864889
0.676556181113071
0.663950091042242
0.648304794639005
0.678551453595923
0.656650927353039
0.64665788154114
0.655127419140552
0.638579120249553
0.640719283339609
0.644242379281701
0.630400271688181
0.644979886553782
0.626115218685317
0.623796108924527
0.629477413737286
0.621789500010799
0.624445337913863
0.620299475022475
0.609883213516243
0.610528723789742
0.602721665149946
0.613373084933305
0.591052409465279
0.590425306274276
0.57726236592154
0.594457354498897
0.573086457037457
0.59465223466756
0.595393210481457
0.594760150297287
0.586818999060867
0.580410122225484
0.577168648828267
0.58253945787741
0.560315977576935
0.556208313745626
0.553512855790597
0.554239499486332
0.552339400247128
0.549909239654663
0.562170453991568
0.546908708866971
0.551919969896657
0.559104386424025
0.543064744445957
0.539839441867293
0.533499313878475
0.537231531092214
0.522562514831391
0.518870779600329
0.524929456347448
0.520279256257168
0.528359360112325
0.525849820282358
0.510663901767485
0.513147082108685
0.513593033456127
0.510464780308366
0.510092590217802
0.498790984127213
0.506704627053783
0.506045218067991
0.489159137077837
0.496422636010215
0.489477495593867
0.493783167034599
0.494088921636719
0.487118857947734
0.478066771378487
0.495097140724979
0.491077495650404
0.481129781147919
0.48082339554475
0.475431045861788
0.485316665935801
0.483415467861803
0.467471521209181
0.470525523953233
0.47729539518172
0.480303593354926
0.471958332050249
0.479445308691508
0.482130981336184
0.469522104283318
0.468017219591143
0.46996712348516
0.456684667289328
0.461103962760705
0.459648581994708
0.473151735153853
0.467613495460973
0.466336250603878
0.460887449100929
0.470556237144646
0.471650033330854
0.470540687436708
0.467157581713112
0.485683096106651
0.473829136562739
0.467803546717942
0.479641884075841
0.49387596458183
0.485645426919462
0.497000155591367
0.480596729891677
0.483545823910105
0.481433327658164
0.50045749471182
0.502530328033019
0.511125344996811
0.49513298868784
0.499248988598003
0.500503674225344
0.51156521118523
0.510483421189677
0.50334076730967
0.521532446885905
0.529024997444364
0.524834121885623
0.516828584220092
0.509528354625854
0.527423848541615
0.52365074640794
0.530545819374439
0.520836000895281
0.537335330415752
0.533270155153142
0.549187012436533
0.532633369074465
0.549195708651015
0.543400122631092
0.543789376180224
0.54921849960267
0.54918818722255
0.543827294033253
0.565741841149018
0.548283777698082
0.565483293158015
0.561093803722996
0.576216044097187
0.56099974387332
0.591946256068792
0.574800222959698
0.579962643129688
0.58720372990798
0.609392373039727
0.600374384251553
0.604359268681885
0.598929726846316
0.611073644485971
0.611177960261007
0.622584551623642
0.606446822268328
0.625853057732803
0.602068255556304
0.6219917632095
0.601774090073059
0.641129124158524
0.62743243237481
0.627006627896438
0.624906389121363
0.636930498359371
0.616798873054984
0.640748015698416
0.616468682503511
0.630858949818995
0.620343115426338
0.621713203923902
0.619130370609835
0.62899927130691
0.608219527945582
0.635917076289241
0.614808993260017
0.617270323139814
0.620795240490155
0.616377268314586
0.606326656555416
0.609478223170771
0.609075076684871
0.629894586851198
0.604147443115294
0.621564537936763
0.60591953477395
0.620511445342963
0.608123461076315
0.625842296303371
0.627378630988243
0.631366626071273
0.618659948683203
0.624221998440654
0.604195054065345
0.631247600154347
0.62435406285924
0.624753917112525
0.625879359989693
0.613753712350103
0.624684306283727
0.61889362202422
0.609266426552111
0.623269620646418
0.609413912317954
0.637478789652609
0.605479297625086
0.62414010376617
0.616474561588228
0.609401974822235
0.605214097681539
0.620480195304867
0.62691579023175
0.615471554369825
0.607922352759658
0.619032216339784
0.60069757613046
0.613073599690808
0.615661423524733
0.607718390437819
0.590941919235469
0.604555574345639
0.599710773471296
0.610375667872537
0.58815738384025
0.594059347372806
0.582396577643205
0.592266928170218
0.581833776380728
0.586045283533233
0.560286686250207
0.571711512713958
0.561150208300685
0.577991942577223
0.567847817893853
0.566848288803765
0.539865365983019
0.551515641709572
0.545347572644607
0.543202581010508
0.531641313167899
0.544747212087774
0.534416526812622
0.519334214957417
0.506995365705924
0.514520991052652
0.515348988908438
0.522226419205157
0.499502087180888
0.502067794670306
0.48551858136225
0.498888320812833
0.486213377172641
0.496585962753036
0.485796594206166
0.476403978471887
0.46930445245996
0.472204625252644
0.465448717451158
0.472197814311106
0.463071820511296
0.466463827871176
0.46048482893449
0.469286599268112
0.463523421277412
0.46437416328558
0.447572301131676
0.447031830603678
0.455431791746574
0.446488665187151
0.437263432419306
0.437851833497904
0.431256942761302
0.438689821671222
0.433770329863665
0.430327903834991
0.435575471605023
0.428276103937776
0.422390044230865
0.425085479985344
0.43239348481468
0.421883161878072
0.423115381681199
0.432698321246957
0.412647580159467
0.418656201530357
0.411185551269492
0.420635672753876
0.409416442507864
0.403225003798857
0.409644567312914
0.412894524362125
0.412092417085396
0.399042724285694
0.391431876284467
0.398864792599943
0.392373162887883
0.403551151989957
0.390106459711035
0.401674510233698
0.405053000591402
0.391226684924838
0.391594105694116
0.403209983522555
0.393546043170381
0.394639452930032
0.393185871613375
0.38916099487701
0.385133205818142
0.384666550012591
0.377923764440119
0.389809402198759
0.374070579100615
0.37819241583316
0.380183730411369
0.379226660482719
0.371711637135023
0.378118037022004
0.372015594473327
0.370535474760992
0.370727863028292
0.370287784971875
0.369527882079195
0.378569611245176
0.368177233208835
0.370068717612577
0.363737522774465
0.368520272679275
0.363918466189789
0.367280655248014
0.36742475009631
0.369418331363746
0.361615008130551
0.364380993126152
0.356660338577507
0.35904198939085
0.347729672359915
0.356588092300296
0.353575151285963
0.362842448324666
0.351295405532055
0.3591096434559
0.35837918001353
0.353650821590645
0.347027638706631
0.352044065941489
0.34747828332001
0.350463167403256
0.354011986676757
0.3575459108251
0.340759863337171
0.346910493068492
0.346322689802225
0.35007713211161
0.341222711625052
0.344505098307883
0.342037344872763
0.345781148977587
0.341070970036685
0.34894044502781
0.342299467359802
0.345865997687754
0.348219758083766
0.339765833209812
0.338937690871487
0.340977148754375
0.335376763939596
0.340635321684893
0.333474425208003
0.34752269862862
0.330893248178148
0.337373473824247
0.333602377465366
0.341559284951091
0.330988637703124
0.340627759210485
0.331335394060985
0.333578762845708
0.338497270293979
0.339752259746931
0.330676750572414
0.336454987956735
0.327727950687323
0.336217866681717
0.326597499511051
0.331389413176647
0.327585450821815
0.332703458253549
0.322022154744851
0.336620796836098
0.323987956171164
0.330325903119481
0.326731656603658
0.326936476065393
0.324302790974793
0.326741464023791
0.317994895128597
0.330478433695243
0.312987079438161
0.325362811699764
0.318897419756186
0.329780351637576
0.321461426029058
0.320062260653288
0.316729080951144
0.323189615557619
0.317566111811782
0.318088942912505
0.318431198040689
0.323022116185816
0.311915976786052
0.318645078968444
0.314181065376399
0.318449683539771
0.311677714903858
0.32109067166978
0.314669035005669
0.308774458811035
0.313853688986934
0.316138688216628
0.307056709734817
0.312993182910906
0.310261769495203
0.311600150960685
0.30210050457925
0.306913931135948
0.299294746407583
0.306588251941609
0.303013315294898
0.305850696244088
0.300569726554911
0.302957569876609
0.303474892987897
0.294895906973246
0.299081470539748
0.309997925469226
0.300151918008952
0.29976742252282
0.296023867914395
0.302042710364225
0.302917063641736
0.298582972687063
0.291660572980847
0.293188472701975
0.287694379239498
0.297277030799071
0.293425924892067
0.296725340568874
0.289406185470896
0.289210676452273
0.287955886015249
0.295216359430315
0.285049164239771
0.288413180291236
0.285031697898463
0.279633727870383
0.280712465231885
0.285119232626757
0.278263781305278
0.286960200549403
0.27724878508515
0.278480456961787
0.275355321540133
0.280651072113772
0.274822507798977
0.276323379149118
0.269091410197871
0.279751438814357
0.269209853582993
0.268823563294117
0.270532394975921
0.272151266664226
0.263640650828189
0.270630058143037
0.267372277678376
0.267396785670848
0.264498306909306
0.264949419009839
0.265431787345467
0.270327931939747
0.258105401245571
0.264739459410477
0.261900065139936
0.263628140423498
0.255061070247925
0.261961430163014
0.261348363310934
0.260095675622499
0.258697177280071
0.257666109760983
0.256570499648438
0.261975819039799
0.259688862216823
0.258820696456266
0.254192032263913
0.257228733004665
0.255501916934438
0.259150473697435
0.247991183093937
0.250717875877152
0.249347216185104
0.256863713231083
0.245921329956371
0.249975326385088
0.245567960125834
0.24338958719381
0.242710838356763
0.244640123700107
0.245840772427331
0.246302741443767
0.2417051400897
0.245978792109356
0.243603275978875
0.243378834630142
0.24372372763486
0.243714607177699
0.240192393613728
0.239426869510384
0.239517154885895
0.240438054077355
0.237595183982275
0.239412591200709
0.23311463899646
0.236171772674651
0.236165415113013
0.243316867905434
0.234665702541265
0.235395894487333
0.234131306106961
0.236031095069478
0.235896803346335
0.233772697551813
0.232247135959301
0.2330619770096
0.231931268572198
0.237175264522808
0.230475958179543
0.233901204045805
0.229946253972943
0.233178302386353
0.224368356140707
0.230290421931192
0.225485826804504
0.228226755124449
0.22938896861148
0.224852500228956
0.228130844979211
0.227622674812501
0.223212223451057
0.227318804047029
0.223449677915116
0.229144734217639
0.225044703724148
0.229513949562841
0.223301724135705
0.225177287479194
0.221218212264471
0.227243684509382
0.221112103969966
0.222819433585169
0.22133235289065
0.22372210933913
0.222565599276066
0.225092117224221
0.221649611827652
0.222398741545135
0.217824035097042
0.222523015401784
0.219700004865912
0.220165805088284
0.216360578357249
0.218289786360305
0.217996332531163
0.218179401477818
0.218948080236712
0.218361250561822
0.214583497952153
0.215080918259775
0.217057538077465
0.216912969593454
0.213642854408773
0.216109300397664
0.212241113541063
0.21579795207833
0.215763785320682
0.212690649222907
0.214552309900643
0.218743220343647
0.209688399163553
0.215847149022438
0.213339690491951
0.213226464623819
0.212789420000289
0.216901284167504
0.211249308673317
0.212091619859323
0.208417923330514
0.212576480032188
0.208136059119833
0.211249617490759
0.209685939148714
0.209536184787098
0.210561253543888
0.211287160511441
0.207525408539623
0.207260677577861
0.211740195415378
0.209098127142946
0.203008134885336
0.203423212752002
0.204076515712722
0.205881296255955
0.20668851468596
0.209438531182059
0.202325591824002
0.208251045142187
0.20542274038479
0.206506335619229
0.202873472674452
0.202887232913586
0.198257472967222
0.204055134432411
0.200787265895364
0.20436544356165
0.200989300191966
0.206439486328498
0.19922186204583
0.200741084712009
0.199438574896996
0.200105193676494
0.199194634915966
0.200399712665703
0.196028479253771
0.200636473365223
0.196902427339977
0.202645332698142
0.190097678080053
0.196175158162247
0.195218246044867
0.199798872975125
0.194707805682782
0.196042928223889
0.193447901548817
0.196714684884612
0.193271094689224
0.193146448866318
0.191604862378526
0.196114884545826
0.191933958164879
0.187748019715355
0.188589205175522
0.195238740022691
0.190669118252185
0.193202626329718
0.18654807305357
0.188625639629655
0.183665053853955
0.189148954727891
0.184195079672343
0.184580772490809
0.187627059566638
0.185436051471492
0.179443703033806
0.183102596246949
0.183216329335511
0.186971364784122
0.186683165318711
0.184725422696701
0.180044093579133
0.17967544142704
0.178620945709473
0.180110262310678
0.179618784384973
0.180990325914033
0.176705313192027
0.180684900464141
0.180781313736061
0.178976793672834
0.175341715227117
0.181088579330207
0.176198597823277
0.175645383221224
0.178168592265902
0.181594771972605
0.171364174369211
0.176483957978056
0.174492242053085
0.174037734706544
0.172198340172956
0.173389835440131
0.171899138803572
0.173459159157917
0.169242120453695
0.171833748730197
0.171993198252061
0.171573759073235
0.168507048520356
0.17309936942547
0.169040218932076
0.169564835579869
0.165991218934521
0.168109754400079
0.169442402167347
0.168153628439637
0.166628307932864
0.166070449012182
0.162085968903502
0.16410146448632
0.163303187468741
0.164174787589478
0.159659077838249
0.16381468347829
0.161851343683445
0.161005532905819
0.161282214845384
0.164325456902285
0.16047096885596
0.165191540489718
0.159158204599187
0.160017068106318
0.157941387129279
0.162171910366281
0.157761675394127
0.158904204820869
0.159019455347365
0.158617496871848
0.15447515002239
0.159338051972811
0.155051418540181
0.156859019593632
0.157118192588081
0.158997296973714
0.156527182966311
0.156642631214859
0.15278882493962
0.157295848969303
0.156206184548331
0.158349070302992
0.154141319081983
0.157480265034824
0.150209892300081
0.153790625869175
0.153113111130365
0.155426115702689
0.150217096567751
0.151091048388096
0.149485401161422
0.152778236627572
0.15147465022362
0.15594802721066
0.148780522525378
0.152111271263017
0.150812018365732
0.151203230204992
0.142235249399671
0.150245340852663
0.144623936318246
0.148660168945158
0.149029428080823
0.145415501110464
0.14204016964065
0.146501475784728
0.139999518492782
0.150287354348367
0.136527771232613
0.143743130037975
0.145053638591714
0.14949016817778
0.140467358948783
0.142079193224551
0.134083388875297
0.136805887147563
0.138323243628222
0.144486505771731
0.132391264643057
0.147572818605943
0.137548008230929
0.137454622046149
0.143456308574698
0.143682594224882
0.13587443433226
0.141433663663869
0.133027981772465
0.144338707406046
0.137318474712766
0.14202298560601
0.133885834345068
0.143670424141894
0.137542780278972
0.149876957385539
0.138790457847851
0.141040991694491
0.132192519102946
0.14256749462922
0.12998486806737
0.142512650462544
0.13174001272656
0.142231224076916
0.130887957271613
0.137772314309935
0.132051204397379
0.141112352741524
0.129365955479579
0.143390050424712
0.131954873984521
0.137371563975973
0.13964142692537
0.135124606573495
0.133525683250294
0.135200936100767
0.139408505862097
0.129581748929961
0.139445286903551
0.127900106616294
0.141532289227229
0.125259201746481
0.143776964716629
0.122189861929488
0.145987541548102
0.119973992793047
0.141290946039317
0.124700186338248
0.141568945251938
0.129217443268059
0.139588164126419
0.13281344406509
0.134823897659739
0.131804119228468
0.133158255069982
0.133366754590345
0.128346123771387
0.133121044026666
0.131889032720238
0.130908886370586
0.137286031136271
0.132835682309661
0.134258510156762
0.131939465224999
0.136908055893176
0.132509524976269
0.132839206902864
0.131814041026316
0.13100570103582
0.13235391985145
0.133894048761192
0.131976805841692
0.130799014741751
0.13065071322968
0.134134089168494
0.135497390826046
0.132888105315157
0.131116057531018
0.134116883505661
0.132153097216106
0.133708754278867
0.13589938367588
0.135853211043288
0.130999131639976
0.132557904760616
0.133398756514885
0.133488953994302
0.132781729751323
0.133303248645096
0.135068068991955
0.133873542649878
0.1320830810039
0.13569760354819
0.134107119648421
0.133570391880737
0.130297883086237
0.13147611429679
0.132389766537283
0.13472965492724
0.130951785973324
0.133584343711094
0.131376181553306
0.133589987724632
0.132519260573872
0.131197735567596
0.132057827929127
0.13387809171824
0.133064974830372
0.131921752307653
0.13028916153063
0.13267939656434
0.13122415281443
0.130008059632227
0.132588126792934
0.133424683755073
0.128923804252326
0.128935949203455
0.131622746336852
0.131311688429531
0.130727791356766
0.130069750278675
0.130550874612913
0.132218698495704
0.131583523420015
0.133086724421345
0.13376743845961
0.131354192009071
0.128283238314989
0.131580306377224
0.133954150554156
0.133422795877764
0.132550051648155
0.131025584129436
0.130106730887095
0.129974924355339
0.132024221466945
0.134022122245587
0.130442559707058
0.129659261619446
0.132182026438053
0.133597907211821
0.132893534528523
0.131143146055073
0.13441078112478
0.135915982893461
0.134836507711569
0.130687730276979
0.130475907948719
0.132875659802255
0.13317637029631
0.13280236860768
0.134382008366153
0.132738391060289
0.131685356508204
0.134031348799819
0.131435166565513
0.132952531589794
0.134416036198083
0.133388977774284
0.133519340208206
0.132978430790878
0.131253932764849
0.132319439409328
0.13460809352431
0.133939250034808
0.134383432297706
0.133404003490688
0.133230094279237
0.135057356178191
0.13580815061308
0.134102277241598
0.13332084750228
0.13145856476592
0.134914133297244
0.137181845021887
0.136204782485641
0.137007978274688
0.133806164437254
0.134514972093339
0.138184440904684
0.136096226291017
0.134047080849821
0.135874404011096
0.134898856897446
0.135073422004958
0.1359078238951
0.13344535211049
0.132836330657517
0.136260090361869
0.134709413702123
0.135578646056659
0.135055695323858
0.135164442623842
0.134619135753361
0.135289407768702
0.135489172854337
0.134344119605538
0.136400524584301
0.136373744012572
0.137180393813105
0.136323658897648
0.137677943585132
0.136923832425529
0.135390153803879
0.136350182888885
0.135607414100116
0.138286898606212
0.136716829007026
0.13541154234206
0.135997212031999
0.135981638758629
0.137690968179748
0.136050646087088
0.139196930096426
0.13679156922083
0.136941627603208
0.136937735651583
0.137667041620654
0.141933804225142
0.140031906150147
0.139763531287418
0.138441530019628
0.13814725494087
0.138370192558884
0.136311754699419
0.138347851161305
0.138761568212305
0.135869612494997
0.137179207764421
0.138416046109644
0.136413542249598
0.136591991220851
0.138613664105474
0.135951037237429
0.136482140398333
0.135447145783202
0.135751537163784
0.137812136105643
0.136452550729598
0.136982862942017
0.134357960002314
0.13637178520834
0.133878184362765
0.132206655264309
0.131818332271242
0.135193218200822
0.135019706142271
0.135784841169398
0.134226027883745
0.13054226410605
0.133567333033609
0.134816094266379
0.134644561351361
0.132149649352109
0.132943707213997
0.135595618218974
0.133124498746617
0.132926332806337
0.132964267908369
0.13420177717769
0.131744723117
0.13292203852216
0.132283256898249
0.133457928681105
0.130229892514592
0.130738157009668
0.128300539901628
0.132427221924888
0.12852073814507
0.131121936652043
0.132087051596957
0.130316061864121
0.131207964100607
0.128730449415238
0.130833017406786
0.132011484018648
0.130885267554092
0.13151017541492
0.128386136849475
0.130741656520759
0.128997705976133
0.130734089120147
0.131225026500661
0.129614176459454
0.128753379773026
0.130870556229678
0.130139107487783
0.130208814597557
0.129778126111935
0.124653897272123
0.127039178425083
0.127787025295975
0.129405499677982
0.128688321135953
0.126211162711403
0.128958497397757
0.128662977523057
0.128062084885842
0.127056733226955
0.124947380959199
0.129043353992891
0.126547853346984
0.129575967946123
0.127390169552825
0.125586700633646
0.127451717500272
0.126666728436939
0.127865059945797
0.126153691732965
0.125932135051356
0.127623709124954
0.127296415086712
0.127893215584155
0.126706643808145
0.126955777902716
0.125420857103127
0.127587653382553
0.125301008909771
0.125058006760331
0.128284756407343
0.123934994740178
0.127011508506816
0.125535149551209
0.124335683633652
0.126748346600715
0.126158634900237
0.124529588607044
0.122807504286057
0.126432384600055
0.124742720663784
0.125031969289635
0.121952537818193
0.124437615971368
0.126044076402224
0.12348405765023
0.12419780657733
0.124286184392603
0.124131830098125
0.123143556670384
0.124082319802784
0.125993609722048
0.12467536119741
0.1215280577044
0.123159204133489
0.120997682350649
0.121078080800498
0.119182552716644
0.118993607125392
0.123166470275837
0.12124215864563
0.118320235308212
0.117947317079806
0.118248839349073
0.120995223258211
0.117869861840669
0.117516615635301
0.117284937052836
0.117068416073939
0.115207162950225
0.116384603180384
0.118056299208701
0.117404591939278
0.116723642409536
0.117186385626604
0.115055116245718
0.11607116706938
0.114460468803307
0.116291037424506
0.113519212178647
0.112210830416007
0.11386241510179
0.11179392621841
0.114961886514485
0.1138065663667
0.111997219682706
0.109902904249744
0.109657772671774
0.111225945929813
0.114635288422142
0.113898227498012
0.110570036947598
0.109946771162461
0.108873967530146
0.11003122853462
0.110625159632908
0.108215709448346
0.107625796947839
0.109976025797735
0.107988156436153
0.109508147563792
0.106736684417055
0.107415953871127
0.111817473758067
0.104555155005952
0.107594228274243
0.104929868804846
0.104269046104315
0.107463454827939
0.106247351809764
0.107613249781554
0.107257870421834
0.104367602775499
0.105075291564742
0.104738458875111
0.106925303774539
0.105090517817475
0.106387444314585
0.104898469281745
0.103980083250354
0.102760549404452
0.106951063280869
0.106359882546777
0.106065068121019
0.104272341270448
0.104735112039355
0.102278450245982
0.10517727900636
0.10311684818755
0.104060350841761
0.101418885788719
0.106112277087611
0.103438356589822
0.103285951403281
0.102474467834205
0.100382516876646
0.100892169770099
0.104897078039935
0.100735914911809
0.09816154160883
0.102495366729827
0.100258041779107
0.0986905811805005
0.100085327149662
0.0997188700715491
0.0976311461859412
0.101378849794072
0.0988611290208914
0.0994970467850949
0.0976245166270281
0.0971854951727444
0.0992541679236178
0.0998182429496943
0.0991364172579877
0.0981733482837286
0.0966117253263881
0.0975255487517721
0.0964163678243396
0.100361210383677
0.0969477837491576
0.0996048856954341
0.0938606387624643
0.0976425865885511
0.094969139474391
0.0993581878842444
0.0960219516027463
0.0965018671058941
0.0957912254536231
0.0938501298793983
0.0956339825098044
0.0961814690351051
0.0962139090054484
0.0951406697997888
0.0930767794153862
0.0951402702716199
0.0940163531533871
0.0931485464639133
0.0978293317442207
0.0939846279521399
0.0981839756911801
0.095931273586584
0.0932156553728756
0.0974962579655602
0.0965158618834583
0.0962682485117138
0.0941614780014385
0.0915639673494381
0.0961948671123181
0.0947962810934985
0.0962803248945109
0.0940589998352375
0.0997288129542164
0.0898956848520685
0.0963380570922755
0.0968172644031351
0.0974310793711297
0.090113560064366
0.0936050771130144
0.094765660140191
0.0916943951993155
0.0911739337268635
0.0942438750960216
0.0939533641187067
0.0927018881050239
0.0911691412671205
0.0950528583745398
0.0952222759850769
0.0970167461819408
0.0934826197927486
0.094377113579396
0.0916385184292763
0.0936286719780303
0.0892325403090237
0.0951556478839188
0.0887291529459046
0.0960114350037301
0.089776300332875
0.0914731679485662
0.0902073348790219
0.0917606983347919
0.0923279325856061
0.0923962973869495
0.0902043719141838
0.0907004490393621
0.0935076753186264
0.0888754280068817
0.0899485056716101
0.0907211060564198
0.0915075866189287
0.0920535926728467
0.0893125578795174
0.0895858169430489
0.0936254353638072
0.0898225110613602
0.0900049383839915
0.0910867430524928
0.0890451416445502
0.0960808588286159
0.0912621336821461
0.0914790631456685
0.0870966977520211
0.0901727217430379
0.089146349919879
0.092529006098456
0.0922310636092227
0.0890827351918757
0.0909604501316025
0.0913557715562137
0.0865854562937627
0.0928321999573741
0.0910707738758685
0.0893809228936946
0.0878651073305393
0.0904099413462593
0.0889277415724094
0.0903510197212611
0.0857987640034547
0.0896159111484704
0.0919401844467102
0.0878297624389188
0.0882621947305199
0.0875081922992389
0.0948640445699168
0.0849860970080652
0.0902153107863963
0.0893237174943663
0.092590934294077
0.0925650695016091
0.09119105197225
0.0909883452032152
0.091227133023994
0.0886613816788343
0.0913163905073961
0.0905672539574124
0.0885086842120121
0.091406243068503
0.0889393082317734
0.0905339994396592
0.0917023289271605
0.0918636209692253
0.0904508210290155
0.0893414595988119
0.0947452034663987
0.090361514405328
0.0934878995799778
0.0925179012957058
0.0903431869233084
0.0912150874284185
0.0913333751428989
0.0924523053548289
0.0906202170028532
0.095529147285219
0.0911550948039316
0.0930713586878059
0.0911743444449335
0.094297481433348
0.0904299024356217
0.0927010738478481
0.0907521062008312
0.0936975425657905
0.0927405754791015
0.0931915719549965
0.0903714215332172
0.0933872210314419
0.0907774418344659
0.0944062843984485
0.0925169945791291
0.0939396398422956
0.0921888830088754
0.0933416420541166
0.0966990534041316
0.0939004543800647
0.0942621746186364
0.0959640538526288
0.0934705981903683
0.0980587567760882
0.0883627747869148
0.106774715147492
0.0913902188912196
0.100221483686037
0.0946743374902443
0.098636919095965
0.0958816279647727
0.0965515389222384
0.0956281317956967
0.0956963362664514
0.0968505472064414
0.0958481471477993
0.0987244072921162
0.0954948371952461
0.101536721000993
0.0975630089689076
0.102748015610006
0.0970441252226898
0.1013426203441
0.100034980745904
0.105985026689081
0.0968376064514911
0.103799175548082
0.104664748180781
0.104012911249162
0.104319929897879
0.0999024747557236
0.101079976681052
0.107477505541043
0.104314154965368
0.107008021754363
0.103406937673872
0.109395394668807
0.103793761008245
0.109698935088871
0.10904267836367
0.103797774351248
0.108628908858089
0.106871900157352
0.104133862581202
0.113860348265039
0.111022974238256
0.110915869380244
0.110389983673887
0.111657084546721
0.107916714015188
0.126027441044064
0.105822342324598
0.123010880952882
0.115926426771134
0.122164453526573
0.116341869838606
0.122293570092345
0.119489591126703
0.124118200542885
0.121909317080427
0.125645637626119
0.12187383386229
0.136211142711369
0.129097665449671
0.129320703069698
0.128742996479553
0.132078574746734
0.133649285854732
0.139717600431876
0.142493861116347
0.145342406699952
0.139336766516249
0.142645214978386
0.148399995924177
0.141341701017305
0.144782115636759
0.145987226679388
0.147703064916109
0.14708785103209
0.148716594850885
0.15643347527457
0.152432245325674
0.158455727351216
0.155750592380622
0.155540697658584
0.15868626112213
0.167419906452336
0.165751783707466
0.163652472761648
0.175204194979204
0.16722125836148
0.171705483032843
0.169691944761713
0.174108245070678
0.179014782273892
0.178574119565668
0.179310941824748
0.174524188131642
0.193348272061315
0.184475234385017
0.195391769838169
0.195349352475609
0.196650531433662
0.198403293078898
0.202347096936593
0.276482445483627
0.21228778041069
0.225355944697515
0.221774269501925
0.240162760128933
0.24657661901079
0.246944870580895
0.258188082638849
0.264704674796296
0.270106936128197
0.283531298755562
0.287360210865413
0.292667364959562
0.301079135566442
0.312636043803994
0.313804136664663
0.334642734442403
0.328251460995934
0.360096589514559
0.357495444538346
0.367819185309478
0.376877972075188
0.388033077425083
0.381707962656499
0.402427087588612
0.401801847678646
0.418935754290069
0.447314804742721
0.441322650863152
0.444100534454487
0.457296091132093
0.482166141176874
0.475929287689519
0.496169892488006
0.502021189401262
0.503003319832463
0.510446191932278
0.526675365762919
0.533073155690764
0.529552324781072
0.56581882089047
0.567923557890431
0.5752732276545
0.59033376912316
0.595489120976305
0.603784795614015
0.609597644541047
0.611191393876076
0.610321212863251
0.627434968351062
0.626719261158256
0.714618167883404
0.655547324219284
0.64095357944688
0.641896090604625
0.636225394168523
0.676349133900312
0.643473704786209
0.668955232306137
0.668054609835002
0.654881795138387
0.655459162953799
0.665923734146113
0.66318851714855
0.655923878373574
0.653304190752324
0.66198157435789
0.689594837573292
0.668189829409122
0.699291143354603
0.728058942482586
0.681235316536019
0.678775430733707
0.65827857203475
0.685985851115824
0.672535831527927
0.694187787688708
0.665941694579653
0.668529001491071
0.66243653976366
0.663251082359615
0.636219249549297
0.6509353089886
0.624682480615153
0.622841833697323
0.630277301783442
0.617043698794889
0.590623721309442
0.580791674991598
0.581242676629502
0.617278096694775
0.565759049191306
0.57281036390432
0.556525525378472
0.553790060799818
0.534600061881563
0.541561876396605
0.537392003614969
0.534446901474656
0.516355341133669
0.530412890600326
0.518235973020281
0.517333835863909
0.521102872773339
0.514139636025786
0.506724014622683
0.514659078278085
0.505811752811692
0.512159591892453
0.507779935810633
0.508446703570906
0.510030558924024
0.506353673281686
0.494092233826189
0.510427137859964
0.496511664117295
0.505072476094823
0.498634376047416
0.504471785865761
0.495840196658347
0.504843126818851
0.503910111326502
0.498035948643304
0.496069368168183
0.501592443790508
0.499553680329363
0.514345381537191
0.499381084131125
0.500007613399844
0.50632179131257
0.502102844228708
0.498506581349099
0.495764496256565
0.524087488722404
0.512517096146369
0.492043304236767
0.498993713109753
0.492815609293221
0.495699596441179
0.489495197211669
0.503626691063241
0.500928648164946
0.497258455958774
0.487311707946271
0.492485981826092
0.488569020441595
0.496569557022515
0.482170171206194
0.487241816176497
0.468947611274325
0.496540454364288
0.493439972997307
0.495841878763864
0.53299152329565
0.494831265148392
0.475263899771904
0.482497554470411
0.502442307494442
0.4834790095975
0.496872934398214
0.480932129889358
0.499067814007414
0.49603047842897
0.487032910339358
0.491423704766067
0.468343826268808
0.471570666002314
0.48539858222008
0.477134260523375
0.475565973825623
0.489816477357493
0.465594094395054
0.492468525830442
0.515553603197058
0.476111995225826
0.454985144266145
0.462739020272415
0.454889166797418
0.444136325204696
0.472660177834051
0.442068089073735
0.45044910043629
0.436630948991586
0.432783886973698
0.431393515015056
0.432434223699003
0.437756515427141
0.423439811998049
0.437562340218538
0.405312015537354
0.422455535047955
0.421519883181328
0.41797366057383
0.42461471399009
0.410354436080066
0.389974782474901
0.404206224386847
0.416637531900139
0.396056727782952
0.398736825802003
0.386522325084199
0.388707402930468
0.397036041014458
0.372433776370983
0.374956726696029
0.368007613513519
0.361623807089484
0.372144467271249
0.390523278491239
0.374655844077552
0.358304678361377
0.34511940559034
0.348140813379265
0.344008749730751
0.344709515256909
0.330989933330535
0.34270992378558
0.336956759584914
0.332506018563348
0.360215643558084
0.342530454151252
0.338427203021262
0.337088045118405
0.335400220929322
0.34290518237086
0.346592740740713
0.357722378587612
0.349141592959701
0.347009781792362
0.358920281965055
0.355517396939704
0.362021382179843
0.358909466874331
0.369774368961738
0.367499526883222
0.376235549733129
0.383942418590739
0.384359074423269
0.392594586445132
0.396417485917775
0.404727553067446
0.428715561604272
0.40649936929723
0.430605256538357
0.430349481721309
0.453732265987778
0.458834773701503
0.459420367748728
0.47003492214345
0.471069655412197
0.47993913130989
0.479662870230922
0.491639694785253
0.510590835310782
0.498960116004126
0.514770855120208
0.514876425630116
0.522116396777378
0.51700948876455
0.540239393666555
0.531327498606182
0.53748710501412
0.563098134902233
0.541998628041939
0.557790512930179
0.54852057063976
0.554457882539439
0.559717426473491
0.561544382406418
0.56044006410298
0.565526790145981
0.583645238736446
0.568139229641388
0.566102574466964
0.576049638217414
0.57715671191754
0.586826318714835
0.578767009060489
0.588126055990241
0.591831977043335
0.589288303847748
0.590181687783544
0.581783430834922
0.637673036632993
0.618735898477389
0.608420392316315
0.620893668232543
0.618818980041975
0.624016118765902
0.623710424814893
0.631829691935465
0.624827199741813
0.624598568911375
0.642609921400173
0.649562986862935
0.644728846465188
0.635887602000361
0.669417114014723
0.662230530632793
0.672483839514201
0.659665555654645
0.654234533242001
0.703778627973071
0.666954795700488
0.686590586161595
0.687372666021525
0.696045187307773
0.683846164947519
0.683976802735825
0.699689468436279
0.706193545728823
0.696257622180019
0.701347434438477
0.705900015625271
0.697725297640593
0.696002071627877
0.693602304801393
0.70850845879241
0.707043725594006
0.697261943114619
0.700066645513731
0.708726079472185
0.696860211298541
0.698932794116802
0.713518417583011
0.70277739899356
0.698693074842453
0.68958290017165
0.710681742342099
0.716757840524405
0.697420293284398
0.699653187664679
0.701080541455753
0.708896007137764
0.704714483017172
0.700845298009827
0.730686496928686
0.719491923933858
0.717272856492234
0.717962159630333
0.723341355754563
0.716933960534875
0.720397653779601
0.719935437096651
0.7342514222179
0.73225724544286
0.736903844821318
0.729839833694341
0.728991260398665
0.731926865905593
0.735041165059581
0.748840523372008
0.730577152189369
0.732103064555935
0.740474016084334
0.73151928172396
0.733075402147972
0.729862289030248
0.723410871207492
0.711753514333744
0.714465934910757
0.714157016405112
0.729126246630063
0.697364744451661
0.696911933223571
0.70305635564489
0.680958903290281
0.67953479536131
0.681505066436167
0.676991514233476
0.666932825372942
0.66611652115235
0.66503354659649
0.664822173066205
0.659814443620494
0.664795263902628
0.661271660456992
0.650506398504316
0.646343858620375
0.648858345645368
0.653106167588853
0.65134019528345
0.651330487146154
0.652320783499998
0.649749706947645
0.645976523576764
0.65378500163818
0.654258293599915
0.659844189345807
0.654151683635831
0.645869812456613
0.655030898873695
0.648803152780315
0.655725820358498
0.649845667853049
0.644603579705075
0.643721578198161
0.644113259113797
0.645679361766812
0.639537645619169
0.642760317569913
0.647676373434599
0.643850323400806
0.639701034797839
0.644711353950124
0.646613548408178
0.63997348358683
0.645485200346893
0.640242157076619
0.648017418772003
0.646820683232763
0.642615288057063
0.648423211579866
0.644712128953599
0.651684608705336
0.643745527835966
0.645038097246956
0.64665971335779
0.646044409515014
0.647960354851494
0.642397637209243
0.639666416500484
0.643082432582157
0.649700931240005
0.644733765883027
0.638602532444797
0.642079306173875
0.641019162797276
0.626835208938402
0.624711194166119
0.626140293746214
0.618524482327466
0.617107247275776
0.614917710743882
0.611521376706435
0.597668403088804
0.594954894074337
0.595258727724226
0.58883438284151
0.582224455551137
0.582412870811759
0.581252162766539
0.580427103908697
0.578090177202596
0.5710969653738
0.567566316910563
0.566148328936311
0.566334424891842
0.562003781350071
0.559693074847805
0.566584962408362
0.565930316100089
0.562678784596017
0.563232819431501
0.563199571737926
0.559979266004892
0.5622180270007
0.564182400195293
0.566903860002414
0.57455400269945
0.570227192011241
0.568063090196705
0.578269254641261
0.579838926026703
0.577192388708066
0.577426744218801
0.583372093947534
0.592234637601347
0.590579714726571
0.591161635341422
0.586552290760988
0.591175011194193
0.592075267354858
0.59368732032491
0.595704128967733
0.593250098116503
0.598732304626477
0.59671304700392
0.599306647893849
0.603436503256528
0.590392593479963
0.590202147114195
0.591925317025779
0.592691732902098
0.585638199450423
0.591237002662771
0.596618014436475
0.592311649182918
0.589002613772163
0.589630712737931
0.586666184803419
0.583074691554414
0.584994302692711
0.582855372846445
0.580893811161824
0.581050956484154
0.573559510473308
0.56914937767963
0.570991662929056
0.57545611410336
0.569344551495354
0.565120957124313
0.568849046307904
0.565958467071393
0.559172305769754
0.561275313579138
0.563522272562606
0.559285643205593
0.55527872707531
0.559423351285771
0.55123304075075
0.550884142802099
0.553739538586291
0.546702807758662
0.544962556041245
0.545001026490996
0.542285169887027
0.540329667161045
0.539579183652733
0.529154236329501
0.529334445991118
0.529044659773324
0.52413770219805
0.518367939494897
0.515412804362727
0.508930056928011
0.503710820986053
0.502706270992417
0.497613961284689
0.498400990352903
0.490418776242572
0.492398192301315
0.488442232540448
0.487029354822532
0.490836261365511
0.48976831858749
0.481704012843699
0.4809774956432
0.480725361886616
0.476350291127034
0.473268437744373
0.473963654108466
0.467146880476591
0.458754606145241
0.456393066113543
0.455702803042882
0.448744008954521
0.44188265067037
0.437746416756052
0.432025443925687
0.430382224711775
0.427658161614289
0.425895990645405
0.426180167372985
0.427548138952753
0.432083273492603
0.433886942933497
0.443823337718092
0.451081748207596
0.459564222647205
0.470628121527634
0.482450264429141
0.499836884710771
0.516571379478386
0.534517918181798
0.55342060414901
0.573595499083524
0.584975276619586
0.602585195480408
0.622618468010745
0.640351694933157
0.657277105152474
0.679292821316731
0.693320353194092
0.710309576595598
0.727621668810235
0.743215964917187
0.753422010413956
0.772630951506842
0.78846564669832
0.799803178783363
0.815229674042954
0.824635877826514
0.837101228795636
0.848382494824554
0.850159064537929
0.861741562347724
0.867648989430664
0.877701086397981
0.883544157164625
0.877394573593028
0.897113882878145
0.891352845949016
0.889756347423489
0.903261651816536
0.9047223770491
0.898523818760986
0.896741643419617
0.903861266461553
0.90087457976483
0.905613631900969
0.896920498166583
0.903954649614795
0.910259389746229
0.921778947981073
0.917593188794556
0.923651113931642
0.924614523543443
0.930597306743551
0.943674604102411
0.943458498947586
0.95661314841934
0.964048636293598
0.974322557620335
0.987646178268857
0.982578919117401
1.01042064906377
1.01698180313269
1.03040270210333
1.04180513569506
1.04825032192971
1.06893249658183
1.08664455108016
1.09941676624551
1.10007523290706
1.08439639506534
1.11131417791976
1.12308161910681
1.13648362386911
1.12769118184501
1.10754028522244
1.12079494532867
1.1399215479321
1.11901063497941
1.13804312625977
1.10416831999803
1.10660993926284
1.11135554198857
1.11847098786764
1.11738443003703
1.12851534564987
1.12015302462693
1.12724849783252
1.14832353496849
1.17296820957544
1.16789452697054
1.189773448859
1.20022281794402
1.22228606481158
1.22956289338893
1.2728481133724
1.2248738469465
1.27080763566086
1.27439548643481
1.3319347841933
1.32994752456595
1.33444295917571
1.38069014069313
1.4177743237346
1.3485357249436
1.43427967889688
1.42619420239965
1.46386127563787
1.46813885004119
1.51760974739234
1.54668982091688
1.5783901749647
1.54537445687723
1.63070385166714
1.57449867151181
1.60765629882513
1.62270339092881
1.73821601198597
1.73137692075669
1.70464373439914
1.73173937980166
1.72943997829676
1.76249363614151
1.81062021682078
1.81858779388734
1.8168584096111
1.73028417120433
1.84745779333073
1.81067241291971
1.78836314766781
1.78913345300488
1.74770218057451
1.7690693023229
1.81666463043376
1.77597840539254
1.78699164071586
1.73125740289768
1.86371972485609
1.70309112236078
1.82582244489932
1.7735260687795
1.76836200109991
1.81015598769456
1.99430377399293
1.8255727322599
2.03652383773163
1.80747199591522
1.95561533188583
1.80696595187865
1.9082297926958
1.901018240011
1.88391128863292
1.89599269546935
2.08338197450599
2.00273278072081
2.07218040467697
1.9018757445921
1.97074980886221
1.91423374305339
2.08429612783515
1.9678039184623
1.94917565537644
1.96535041666615
2.03388062257151
2.0135218215276
2.18068697026682
1.89533645448758
2.09859303250085
2.26158138720431
2.16693263779356
2.36715096545195
2.22407089838871
1.97673356139024
2.2293172715934
2.18117806685519
2.1846231337022
1.99247030330764
2.11349065538186
2.2011132844794
2.04277138814255
2.11698899298989
2.07882639538803
1.80312087840428
1.98750951007359
1.95265552295148
1.88863083015961
1.81608279438052
2.15514581307616
1.76753385639807
1.87462444110912
1.6420648454158
1.81524796206541
1.70203281754104
1.68362320336277
1.60998621882014
1.57154411590146
1.64081310068461
1.64507051962522
1.52474898307627
1.63466511734458
1.61387047395181
1.58126480152299
1.49998221592357
1.63692688007209
1.50566396454372
1.57463917086174
1.50088212738644
1.48256705325118
1.46788352571697
1.52705030449681
1.44748371463672
1.48400889397552
1.47436177907848
1.43978074643248
1.37424649127097
1.37912237534972
1.34600938380855
1.3519798420616
1.32660191931535
1.2989410339468
1.25441567115689
1.26259132889231
1.2068351326375
1.18546206001111
1.14308822931768
1.11036766087302
1.05433933026531
1.04695479451909
0.990836318520053
0.966374931233633
0.959280809907244
0.921963771243403
0.880371795885074
0.85020820371417
0.82116185118514
0.817149057501395
0.800849044683375
0.76766179143008
0.745931928539159
0.734837516463034
0.724520781159047
0.716587091719766
0.700067870416202
0.698615302271098
0.685489381318446
0.679417284342958
0.668889392980667
0.680169612205627
0.666924543681334
0.668069714002041
0.667243411469683
0.681281449789077
0.673633335856088
0.674707204543129
0.661586988971141
0.665747932367031
0.653402156990955
0.667336967736924
0.655177990061015
0.650024720971546
0.649606363574964
0.631459844368684
0.649864353920936
0.637898539925241
0.618944420143975
0.62673566022464
0.605053585550664
0.613737473965839
0.618911510098763
0.60249419257911
0.606813348206651
0.606119402564332
0.606185267048575
0.615030680969807
0.615386353870716
0.611032596320263
0.613776684689758
0.624496383934579
0.614765191567931
0.630479338940854
0.626032555144772
0.643603263153567
0.63084638843856
0.647810213465307
0.63863312694826
0.651579493864816
0.644088149378413
0.643309780228626
0.642224877671793
0.629330440236034
0.633909185865478
0.633502918145614
0.63709208824427
0.63741008895197
0.644455157880546
0.658159901675736
0.646055687541938
0.653866417501896
0.668753142923216
0.681673469213603
0.661071018787636
0.680409559882401
0.685017343098399
0.715859162866384
0.718577763668309
0.722412305060037
0.757010385252553
0.757498059645168
0.798027315265604
0.782237994874254
0.797952560932142
0.825274199725428
0.827329316626543
0.826676538747719
0.809911280151499
0.819243542568259
0.799781749409272
0.800968843823427
0.780515371398788
0.761837903138652
0.755399637835267
0.756100427256915
0.761783490309084
0.770321583380668
0.738361901735014
0.742633139252786
0.743935855368659
0.759881840579715
0.740800537831408
0.755567554232238
0.735158286039507
0.759335271954178
0.744359927452892
0.759216453558926
0.737994001580062
0.745467887869103
0.726800544957365
0.735926256115338
0.713613192314682
0.714157488628012
0.712179693092665
0.717151262547479
0.701061858147985
0.724069611505812
0.688571156522621
0.701507552621543
0.681967326895569
0.697967840686586
0.678047075870087
0.69263643777571
0.680606140571772
0.678702702892984
0.695129517827903
0.662303663719492
0.640857362560323
0.676633495933539
0.643106248506573
0.656847571701172
0.661114676010327
0.651053499008761
0.656489606993717
0.661712837221122
0.637658605060118
0.65104203322543
0.636962989507025
0.657020014897611
0.643530254976284
0.644700621370158
0.610546782449541
0.614892124078464
0.622815338101309
0.633692057069612
0.625639547763992
0.618009464421774
0.601093443800986
0.622059949855465
0.606171137189008
0.629258281436213
0.622631782783269
0.626973112204252
0.596803124419838
0.613431900948727
0.60856038841776
0.620177706586311
0.614647907888936
0.616157392483387
0.600708542310794
0.620320163543025
0.610068353997787
0.581928064492949
0.60820717405439
0.625960466374755
0.619890375770267
0.625887322409974
0.610094184633561
0.636156231480932
0.637163383658582
0.650829247822331
0.620523702786468
0.646710422769545
0.615116624403441
0.629784508259113
0.639513219653843
0.664850794745143
0.647496121919263
0.666961046819451
0.662601260182474
0.672697587436129
0.666609345454492
0.675340077236788
0.703683296474701
0.712443002913834
0.68892243556391
0.708492462037195
0.751041778302045
0.777765794162791
0.733696786000004
0.784061207138721
0.796304968304767
0.832437740888105
0.865646667734828
0.884033529594897
0.808852874838738
0.894729664290756
0.832154402488381
1.01938219491199
0.949761925011693
0.981407299213669
0.868495953138122
0.980584346646165
0.927259029018274
0.987535893989986
0.896169981692868
1.00270101751736
0.911520575498323
1.0290423785755
0.920611028703076
0.946630854959975
0.907687279489368
1.02285428973431
0.889345597973279
1.07106574023745
0.968632968203087
1.02707394594362
0.885684857974664
1.02662038660925
0.955594295172347
0.995114783699675
0.938061865544141
0.95648151228402
0.963069974522101
1.01964555029053
0.899871729161352
0.9526257408384
0.826093560595267
0.892839151067492
0.805994993041258
0.87393097165071
0.891833978643477
0.972308062030849
0.857837562402986
0.877285784019743
0.888718844953797
0.867939055640043
0.844725907739345
0.983283789313932
0.817536194054961
0.921597790154386
0.890517228000003
0.914674038072608
0.881411784190422
0.965866509334233
0.871060671498967
0.853666485449831
0.830546033200117
0.912525501668451
0.901503991711265
1.06553624683593
0.981432499109774
0.908014710115849
0.843028682836247
0.958747387401616
0.981892572363527
0.960208438268893
0.863734850966244
0.857706052304836
0.959690279646346
1.03824558911088
0.906641866010818
1.11130610371562
1.00210823727361
1.05564477712328
0.961250818798794
1.05711074990621
0.88221130698176
1.06436290576888
0.991185495178818
1.02132727400297
1.05344192128066
1.17526963177559
1.05993579726521
1.18504125414236
0.939384338616781
1.08185151708764
1.05157905296993
1.57882378037755
1.31256439217516
1.27329303185547
1.03662397346419
1.28878691929163
1.09779243067777
1.01217610038755
0.864881567336376
1.12297804631701
1.17638431726633
0.988710100848517
0.997480661457888
1.23113678876261
1.0507288453284
1.37448047833589
1.1010544557794
1.53896783961004
0.957394122513296
1.3094981652189
1.09416756089684
1.12817164388478
0.932200265806371
0.973303910621387
1.00540728970513
1.50193025694445
1.01036995900578
1.12895215064336
1.00901827471728
1.53458897913513
0.902061495785508
5
0.964388102390439
1.06940379096297
0.928034969003683
1.51293406448374
1.13352545117967
1.31875108476639
0.848136326629488
1.3620318471399
0.913251075924332
5
1.4345110897218
5
2.07652765265993
1.39754304008682
1.49026259268755
1.61389772496957
1.88446228241659
5
0.821607545595868
5
5
5
0.706518259129637
5
2.11619288291526
1.24023033689001
1.22066090584434
1.21710460396893
5
5
0.977742191456089
0.830849897952517
0.660851263899988
5
0.983758567491269
5
0.935238205101715
