3596
4000.36533379555
650.420452594757
1
2
2
0.0339107999414868
0.0428489885406871
0.0311594363233453
0.0290737385057587
0.0196392342768409
0.0285664703285521
0.0386416317933484
0.0410003894370537
0.0242153642166937
0.0432669223183151
0.0337708862497634
0.0322628399042651
0.0321790354673574
0.0380791443969938
0.031852924273532
0.0413972471747271
0.0271738242910621
0.0391157519967512
0.0352914848501756
0.0371587230691653
0.0338433757848325
0.0362535592947596
0.034243714818917
0.0313080177437976
0.032820880210625
0.0340232193485132
0.0371644546103357
0.0405284262609365
0.0315428698250982
0.0317255992076351
0.0265418260323052
0.0392152399398932
0.0299402476822869
0.0329656516744675
0.033964221834417
0.0332862296800794
0.0208127954531905
0.0351145983597183
0.0285226078408589
0.0350267100865163
0.0268094088659499
0.0358805062750443
0.017312634946075
0.035378004409061
0.0305460791023072
0.0351539607285862
0.0376985107194695
0.0383037403938261
0.0331930435484346
0.0342026932114976
0.0225015173957771
0.0352412899739578
0.0249326273025847
0.0485251321582227
0.0339101826474985
0.0277749140982258
0.0292497222238846
0.0323660315063107
0.0225527674827662
0.0387686152403144
0.0366122840715818
0.0347946755505625
0.0247265488818579
0.024960382723559
0.0353916177715285
0.0289084474568695
0.0318472172064598
0.0399628095241639
0.0358543282709002
0.0321193972034675
0.0317739236436516
0.0268538387163476
0.021973295320573
0.0285611460569406
0.0258532109322219
0.0326188333820513
0.025697649630053
0.036969205692481
0.0202144973945877
0.0300373212776243
0.0414328270977685
0.0278504925343549
0.0331585267710909
0.0359420272919816
0.0299892094481872
0.0292007165061173
0.0292600315055089
0.0227569222283901
0.0331251409692241
0.0369348422271645
0.0313638764792514
0.0261692417612284
0.0324411952308582
0.0213371418063057
0.0233159604001255
0.0265311723682496
0.0379389304407681
0.0253208826005498
0.0403582218158611
0.0195923223418283
0.0458753065820683
0.0432587189383081
0.0228701838908287
0.0458043664781944
0.0127382813939676
0.0382349236701555
0.0144974141209312
0.0244342967224253
0.0371969835698786
0.0213358328180818
0.0329957553646349
0.0282114072959188
0.0299512193076894
0.0299013658168447
0.0234908910269037
0.0219460077165556
0.0354712745581026
0.029742488619358
0.0279075632029006
0.0249044437141919
0.031969045753986
0.0159591325312086
0.0333119146925313
0.0334904723997047
0.0254550009004292
0.026483177147838
0.0316500859260692
0.0181322404571542
0.0290444668665068
0.0301996451135846
0.0237325693812615
0.0230451197477119
0.0126954454366486
0.0350812337313213
0.0251760720798229
0.041309903428877
0.0197030148060128
0.0364774370957906
0.0376523966852683
0.0295654431227053
0.0346711438682582
0.0244564869769483
0.0212358289494496
0.0379916153045885
0.0294493435701432
0.0318361140519874
0.0319801780251027
0.018985828013732
0.0147285802380527
0.0282106126797321
0.0267184734234741
0.0296267409854151
0.0287808062226596
0.0257644439954318
0.0335950138749656
-0.0141454793014326
0.0255398281089947
0.0384082731940865
0.012943726472989
0.0478462916453112
0.00550640667474451
0.030512617405847
0.0193993903030056
0.0181248708701301
0.0181575959428133
0.0284780058929429
0.0364045896522938
0.0213552522025056
0.0279570126720465
0.0259660598824376
0.023477784626147
0.0183935724021377
0.0273869705174322
0.0148383496440974
0.0382264912347998
0.0254327553810606
0.0290970791686686
0.0300953889706013
0.030198023402349
0.0321356992020242
0.0216062913230794
0.0333061192936564
0.0119256954604185
0.0282674754504308
0.0276892667614265
0.0255964307459834
0.0275182671176248
0.0249543820672372
0.0225426757793577
0.018538366849312
0.0212595408543996
0.0362780850214945
0.0293380939488725
0.0362596107897293
0.0127953316250528
0.0457044001349572
0.00480393604033678
0.0357770870263384
0.0198483143204511
0.0231425517193214
0.022571949572039
0.0237597788161079
0.0274303736833016
0.0192172689649193
0.0178057185707395
0.0247468870474751
0.025832947372934
0.0355380949621978
0.0220071656304813
0.0323379478845846
0.0165313423533096
0.0353475943267943
0.027324800283555
0.0249301649518247
0.0337337033019175
0.0290761827932721
0.0253982450671953
0.0347182215599399
0.0230910155476488
0.0250413622551084
0.0256538624391948
0.0260142076484104
0.0202173244851373
0.0241151075302665
0.0269137566650382
0.0335594635084089
0.0276419174034462
0.0217624220375904
0.0263830705484123
0.0305067358169388
0.0331000271059618
0.0264790022186798
0.0249444305180473
0.0192514737221651
0.0233063460127337
0.0313965536905241
0.0312792978322462
0.0270089711098492
0.0199241969799227
0.027469385804006
0.0237796367274874
0.0303864311353067
0.0277553432584162
0.0262374718805462
0.0163392510448017
0.0365350430622559
0.015472170117075
0.0306294436614323
0.0205430269862538
0.0269569231442463
0.0298885517329047
0.0311057660930977
0.0221709778134121
0.026663306965278
0.0245546216045968
0.0264955399770201
0.0448985300836387
0.0287438969362111
0.0264240033573216
0.0307570361644635
0.0183521130991653
0.0358694912976413
0.0252982391993879
0.0257571766656874
0.0400592055201561
0.0373337796593596
0.0306128280891417
0.0317457484983388
0.0334508717652865
0.0353015744442978
0.0196248689494394
0.0261947504312761
0.036430815592328
0.00136863216383096
0.025624089975545
0.0281559349823673
0.03624332715441
0.0384858347927913
0.0377295649058586
0.0282747068944709
0.0328085234542391
0.0356599120160238
0.0162304780792369
0.0358751705838904
0.00173616192321262
0.0394875838616944
0.0391201582151201
0.0398345646862578
0.0266324572238341
0.0304691596973701
0.027662361302999
0.0271780653325625
0.0291624294217396
0.0277624808476417
0.0433741713073608
0.0296173255919923
0.0320346307795647
0.0363388892475702
0.0369636334747358
0.0195792327705441
0.0439176958012965
0.024203313250358
0.0348236202594411
0.0405188161178907
0.0371580243369869
0.0345067797335337
0.0290806475155735
0.036577812871131
0.0331204814794778
0.028243921977855
0.047363305900222
0.0253922143134504
0.0406243446372194
0.0272238234639592
0.0288314326628315
0.0311926993932717
0.0426730154882896
0.0330268241418816
0.0417526172055371
0.0306888511178208
0.0411681982892276
0.031600845096688
0.0390436767195579
0.0377021902447416
0.0400042963870841
0.0386268240769804
0.0347201685413239
0.0328359567683141
0.0378858183757771
0.0328944174079315
0.0516285971550817
0.0326918091052129
0.0470874117719621
0.0411987568585205
0.0465961685897833
0.054752719959633
0.045815294684949
0.0454776848031708
0.041410086385457
0.048667425289823
0.0457306985296193
0.0445812920968379
0.0528509116391961
0.0525794304723639
0.0405678734423576
0.04695426599138
0.0576775622228589
0.0764161859089855
0.0446356435445212
0.0573786071145882
0.0456315343039031
0.0410771753942179
0.0580747094528871
0.0477668280391448
0.0811724979185538
0.055382717180686
0.0682130747998616
0.0504037836232095
0.0647883843554058
0.0577459058141507
0.0627818623094577
0.0641045464647275
0.0676332418819923
0.0621057670173064
0.071628417732971
0.0700546774011091
0.0612662960070133
0.0768123045283064
0.0680887222095355
0.0730990863998699
0.0750470149310668
0.0711733872997215
0.0924355573875392
0.0880323585228961
0.0779351769599399
0.105632021512874
0.0774052841230876
0.102209376521703
0.0709471930007782
0.08821366913246
0.0950923513680701
0.0971917570675449
0.10008509892777
0.0979503309897113
0.106297645028476
0.106326218075141
0.0990558609926467
0.11189414566127
0.106385235971072
0.110442551721776
0.105025532092535
0.121475846426899
0.125150860250013
0.122977211500603
0.129757853841055
0.126376653701755
0.145127048454875
0.125672249383533
0.119581793564338
0.135249120264256
0.12920556444611
0.130589028975403
0.142770964739125
0.133340160156953
0.155274331461058
0.132707967668907
0.163868891187601
0.145211301374104
0.153364706066322
0.159939930652624
0.146380244242918
0.157144282486378
0.155568631026441
0.156748316087632
0.17503081739932
0.166866830406467
0.170235455553216
0.164651572278966
0.205100509939792
0.173139614558694
0.200238586049198
0.170321051036954
0.187698296506458
0.176488092527214
0.201004308205879
0.199779952270109
0.202835099482751
0.208671235582673
0.222663081125195
0.216836463438928
0.215754872504009
0.208371806754834
0.208080252189452
0.204310012681721
0.230077579596652
0.231590575910224
0.214384003694187
0.220173709070693
0.248422049027132
0.221005944697532
0.260769570247191
0.238244306961162
0.277360453338258
0.240553295270239
0.252277290139951
0.258218513508914
0.269675784412537
0.26270894567342
0.277098519879817
0.271789105483142
0.273635837863263
0.276124144497806
0.294951132727095
0.269484092329467
0.312666290929779
0.268735983783575
0.306876434007774
0.304809811180641
0.303403991449164
0.297687951959627
0.319675463573382
0.313136646512561
0.346514444795826
0.324767369913898
0.357686575042772
0.318562408452323
0.343824598372641
0.322477522512857
0.359477801027626
0.333567364889362
0.356298449359067
0.351925303213579
0.388104287268678
0.372212006466252
0.363130754493335
0.361461762457156
0.383441420890529
0.366938057513476
0.398385129766231
0.385929703774442
0.410242997487256
0.374316611565694
0.408454724181193
0.369298449505394
0.411353418693529
0.407082657066398
0.420651280984692
0.391706317450373
0.451256358346954
0.428216744507736
0.444651327341327
0.415533614421872
0.449049794337825
0.437862384465075
0.439371356647275
0.437564117258691
0.461453388866504
0.457421902020797
0.48877200344602
0.46791682973946
0.509515143104582
0.458990193623706
0.511930645496921
0.456629132415956
0.52344702035969
0.484442618645916
0.533367775838884
0.495448504230754
0.53863783289709
0.496400164551428
0.539370255683627
0.531028282087342
0.587610072947629
0.531998937807211
0.570513075203677
0.526507073848021
0.582017515489038
0.566246487783305
0.585162625069809
0.552849591161972
0.608860147666295
0.55201516875164
0.62599148504145
0.563661519778132
0.608330969336696
0.602408204190805
0.603851985576324
0.561422506610097
0.647054118542662
0.588715286302794
0.651913930121897
0.633712921885932
0.614190211210329
0.602847775780623
0.671423052255383
0.661674567000264
0.728403221203336
0.635105517116125
0.679189534390283
0.681581961905967
0.682799300341263
0.654672712187608
0.721375238844432
0.683954162329434
0.688081468435393
0.681345378738184
0.711962333862661
0.68770644305067
0.739626618480425
0.674324236052086
0.733699513365781
0.749724908291324
0.785118638657623
0.701790347441364
0.746259002856815
0.683168484853311
0.750506860116023
0.704317389536073
0.798081513714206
0.715804625445226
0.788252197593756
0.744874117698089
0.841752922839102
0.769758906156041
0.81429563463766
0.783000526343454
0.854093314607175
0.776047873103211
0.857190945663507
0.809561134687208
0.867749797119329
0.810270225123362
0.912329980832146
0.881598644832935
0.8530098594605
0.7955404927541
0.880774844539863
0.889746482410382
0.936955520960032
0.782828217933139
0.871701148029252
0.826947933605871
0.916098930632368
0.828308372851757
0.941188520152525
0.866798265458041
0.988962741965867
0.925516970869763
0.93053141122611
0.88571789053742
0.939056930966489
0.857727414124012
0.99080733164495
0.990810442747752
0.989942110339912
0.91866742231344
0.948118137773978
1.02912837027206
0.946129732779455
0.888100866479784
1.05731695034175
0.948106366079366
0.959715461648892
0.929133421428106
1.04179356841958
0.977456079876281
0.971366763877232
0.989704793280159
0.978808260867968
1.0221504997297
1.05708955808614
1.05780731450322
1.08118735344094
0.99539997397949
1.07809189567199
1.00451295552002
1.12859295840214
0.973519977370242
1.07222209179444
1.04185558523505
1.18537057901233
0.966869244162748
1.03888900489168
1.03894559148949
1.07084147951507
1.01138227732649
1.14356311157903
1.09039473660244
1.13835194169171
1.00127787654465
1.10924943744291
1.12043761122544
1.12469082249714
1.01545615123919
1.23948030140592
1.1226422521762
1.24857577536815
1.06177920312531
1.15555473115917
1.04642022034582
1.09398058225774
1.02650644963939
1.17926680488445
1.09671100517155
1.15456156494435
1.16834399206748
1.25795186529892
1.19102248042563
1.33763149053716
1.12931016277726
1.17875177241676
1.10803377849423
1.13415029811309
1.12336384057773
1.2586929686228
1.1632715952768
1.23072271727383
1.10760337591143
1.26490114692512
1.20931068137012
1.28619956864489
1.20247380745238
1.29854375640977
1.06453217273272
1.19696024747231
1.15835655929784
1.23579900589892
1.13721584522554
1.2573426667446
1.17504846287685
1.35940690297895
1.18848752867663
1.32075440984668
1.12254322044709
1.17552179071932
1.21476783625515
1.29482338147333
1.25609595015732
1.39923782200652
1.19860815522401
1.32267490635195
1.21054268924387
1.34957655678194
1.25330747875367
1.33364351726812
1.17236914687787
1.16286228916507
1.24822248116166
1.43756977525945
1.30135997333532
1.30788348518759
1.17538122943758
1.32923244054125
1.27524503617499
1.34272270137525
1.13543166366404
1.26318043486002
1.28663081872024
1.28465048173634
1.15795649858165
1.45738089185664
1.36516459983128
1.27086292235226
1.27407775060779
1.29767131546856
1.24856597757962
1.25755445763647
1.278510974361
1.27569847875598
1.23849915761039
1.37597210581286
1.25307214749148
1.3884727181303
1.35799053706516
1.36122389403328
1.25688732335587
1.34250745331326
1.24540264069254
1.3738292965868
1.20064447510131
1.29298358302513
1.29089486245815
1.3037748544758
1.26035305251417
1.38931988742291
1.3591420719717
1.34928699955448
1.32445258588791
1.42052415028978
1.27886501453658
1.46165681664982
1.33236033911959
1.27608370324171
1.2288885648293
1.3234905359448
1.26355106918086
1.31002138935957
1.33647110675773
1.36669674335997
1.20968113476843
1.31475804268559
1.26312412238484
1.29572755978464
1.40255935999083
1.29962512996914
1.26471238513677
1.3167288829865
1.2125215236958
1.35754392469291
1.37739259586981
1.42372275829467
1.31525120214572
1.38211686595397
1.28855387491242
1.29472364734163
1.27621625679894
1.38748186002398
1.25292763157678
1.27465769279196
1.33876867700944
1.37158092292396
1.35616999312908
1.35630586652044
1.21824303616988
1.34037013829392
1.28566096641091
1.25656150326168
1.32979515354246
1.37346120862194
1.28950921273993
1.328895076033
1.25653120540416
1.34459692951218
1.24836857124115
1.26518936244358
1.29176988359028
1.31013535821402
1.35550098062254
1.36652478541941
1.24936415923345
1.27282946407345
1.24708332657732
1.33685034245365
1.41745098792037
1.28456195501121
1.24725236715073
1.40826266120851
1.25322011837443
1.29963231312337
1.35913158715482
1.30444763730553
1.24338906446302
1.31766977273691
1.27606534957555
1.28875291864784
1.29824530235515
1.3812545971632
1.21395089147984
1.33347774921954
1.27416250513959
1.25021657031152
1.25543651311817
1.28617971024416
1.28303380557965
1.2350544484597
1.27580452255977
1.29490159267607
1.18309252859798
1.2128757642269
1.23467171100447
1.22016159525657
1.23430083768967
1.27953464261664
1.26537559417855
1.26589880114885
1.13347649683822
1.21406853307483
1.21504513709254
1.23217079333913
1.23486592359894
1.17930861371811
1.2243785921228
1.25329002126742
1.2193140437639
1.16820947683887
1.14553999101353
1.25254495608977
1.20281330937643
1.25652934729204
1.25656545168557
1.24283075285169
1.27272313449166
1.18500260351496
1.12724963697686
1.15496036783303
1.13189310551259
1.20364447350015
1.23471119557385
1.20065747942738
1.18852673817623
1.23441536651684
1.20656565768268
1.16962481473649
1.13684981332736
1.1605167666608
1.16529627016487
1.18959720292318
1.18019965952231
1.1247869731899
1.15372554166866
1.14876692336021
1.11551469485745
1.14126237592003
1.09985719643922
1.13470858693962
1.15075402400149
1.12048688428962
1.08695386261725
1.14060890256201
1.18512769220692
1.13488519407088
1.08976734133737
1.09138633555507
1.07211956006429
1.06893215100478
1.05928380542904
1.09781478048161
1.03398768749868
1.01008916942587
1.09440221845546
1.04428513974421
1.06345044974484
1.06657804803772
1.05664149194442
1.07300367945407
1.02402578467792
1.04587947496759
1.045545012968
1.01341090486093
1.03486612448154
1.04406602414262
1.01192198572542
0.996749576880162
1.00048111268225
1.01059606921042
1.01406886517363
0.944637753953973
0.941737112400547
1.00882129145558
1.00182036002465
0.986788448761942
0.985363222443384
0.995003448282208
0.979792633430594
0.996202636171507
0.986970673612861
0.926934395116086
0.91642399633665
0.930963365926571
0.941210578819487
0.945259990321346
0.940241489201155
0.918950285981841
0.953093618625375
0.937752140535371
0.905857993992909
0.900702944761925
0.902067683236677
0.908170496331776
0.902151576145985
0.892500984828925
0.922720906020311
0.895394540363529
0.872506777434677
0.89314027024398
0.877092730695421
0.840224736023283
0.849762007477822
0.844134489263167
0.856698142163622
0.859739450331104
0.8387641854084
0.843489040954204
0.833621159094907
0.849633231220539
0.852907706219972
0.81859950432653
0.823332976693459
0.828151771323445
0.816299928763497
0.792607312406531
0.784268182306667
0.79940347676249
0.809867671163109
0.802387636859147
0.809054127969918
0.777310093891623
0.795643139735567
0.768876341944471
0.753017540977568
0.743336800784311
0.749022015526612
0.77033505235991
0.780310605804322
0.751038665125572
0.754580911826329
0.744533594260363
0.75004975791555
0.741055425118295
0.734294278524797
0.749404580643407
0.752965367057158
0.73140324410396
0.724957842808996
0.708009970417052
0.699479438308283
0.69855260041844
0.729399664483113
0.701311860922101
0.681354800834133
0.689521543196179
0.695897502328253
0.70080458562221
0.690751457611978
0.683900586089569
0.686221479623311
0.678487301069447
0.682863236304392
0.668567192628541
0.671320556831324
0.655706432260057
0.659741574731482
0.666654700386359
0.684131756765415
0.650430147224375
0.658769638674837
0.65080305333518
0.638620309145122
0.639014385657029
0.63778586883653
0.638357512927584
0.644595866070449
0.628320727055315
0.626811302290367
0.612121230876761
0.62685987411239
0.624293554743006
0.597236499063913
0.606412877851281
0.613330789912004
0.588849474767213
0.58964399952956
0.596103272950264
0.597507919412381
0.594296225590746
0.593960433630631
0.585118131580933
0.58459903439294
0.579607607024672
0.570523174309
0.551421368682228
0.571703105738838
0.569666895560556
0.569983761098862
0.567720300408782
0.569117182153019
0.566323959544426
0.563829290237292
0.554519318753161
0.559895815396222
0.558051986747083
0.555675334840221
0.542431488525548
0.540837461167201
0.534568581625822
0.54444323578222
0.520876858909126
0.530760065560958
0.527266579918627
0.525210269785261
0.527174978225547
0.532120949929568
0.522972389971146
0.511798625478218
0.522509238208482
0.501913823566228
0.495016186292527
0.505700258070131
0.503675659752499
0.501473165942926
0.503683985525498
0.495009423355837
0.497934872835495
0.49245798705666
0.488227885849216
0.484895176164899
0.481402416037028
0.478461144253537
0.475263634474193
0.480396339231837
0.473371962353562
0.47070216284323
0.473191883477326
0.474408783351274
0.461341180082896
0.47088244671742
0.456882126497343
0.456870097042441
0.45655802933654
0.457105022707304
0.456004790700246
0.452185741449462
0.451522966204658
0.447901863453629
0.431618047656005
0.446833452238011
0.445097879691632
0.438359787747135
0.436641584258781
0.446898389408852
0.431058675050641
0.434656680635183
0.428035884501686
0.426763672569802
0.427129426898987
0.429551012471091
0.427158794078871
0.427763400980389
0.422937261786724
0.41832685169091
0.425665468696969
0.434664869085013
0.414570199432824
0.419508921402219
0.42107547161131
0.412286830541574
0.417708940982523
0.421074742748808
0.404598018750861
0.406889657585767
0.42390797083207
0.420153046469292
0.414919890766597
0.424751390042187
0.409736607380936
0.41850663575155
0.421526334377973
0.425631448194816
0.425919277614533
0.425748990135481
0.414284625776896
0.416488225813686
0.421393851379391
0.42623904395285
0.427215127111063
0.429589774308782
0.437522998002895
0.431274756074997
0.435841593595189
0.43550135045185
0.436261203148162
0.448034340226775
0.430800755153944
0.446558489796569
0.44243271386021
0.453307175842101
0.443123785035552
0.454160518271016
0.443805460675122
0.456379413963206
0.459076750126504
0.468941830898315
0.460015659994986
0.470435297375035
0.461820319777935
0.464594892500842
0.475562618077083
0.468340988061725
0.476640611687279
0.478845729564299
0.463504223940751
0.478485348461826
0.486239662551919
0.488225024190745
0.493020183017374
0.485400916962766
0.490204710481687
0.512913426477745
0.507035320533833
0.515247480412269
0.509270677749822
0.524945475676444
0.499240352451249
0.512929635130072
0.527731691147354
0.531518138175298
0.536898751197557
0.538215143634803
0.544166070015197
0.538098071606048
0.532403907436271
0.557719968829918
0.556737629051179
0.560432996838601
0.569063630344066
0.575761034494864
0.558017419917059
0.566648242420541
0.55436925670219
0.56631729496933
0.55885022132479
0.553627258595402
0.567610123649444
0.579431699392725
0.558444801498285
0.575537911911831
0.561304911292898
0.573568189126179
0.559298756761317
0.571016613334843
0.564297306433284
0.578437892575294
0.564444423019359
0.566424942032746
0.557839749900781
0.575916927942098
0.564370239854163
0.579783673900406
0.564645856970202
0.561299233429208
0.55490547347106
0.564380002737837
0.55725279060059
0.57127539573817
0.573144853028549
0.567120537724151
0.563095400377228
0.566350656751944
0.559427986701676
0.581554913662459
0.569045868558664
0.576413237908417
0.569014735046537
0.586731636440799
0.564999246613552
0.568745442295027
0.564833238094509
0.567385841096559
0.574483778797171
0.572167509006461
0.579554852412902
0.573551023633856
0.565086058365351
0.580037367237046
0.564647335131941
0.578405857888518
0.566913116088711
0.585896902893918
0.561459998643313
0.570313262416779
0.55877655009169
0.580251732107933
0.559744653336035
0.564750039694876
0.555808788487497
0.565592831186685
0.554068439261715
0.559054889712805
0.546591353969593
0.555991449394574
0.550949977822324
0.563278825693996
0.543911970406583
0.552350483636887
0.53985646257355
0.543890682685149
0.523629319426446
0.522287780528556
0.527194403530406
0.530048412122245
0.519214792200877
0.529661609955623
0.513644694666876
0.511910761145536
0.499532932432276
0.50830815764005
0.500603939148529
0.491817636480789
0.492528523670061
0.498216705529985
0.475521219999503
0.486847553926631
0.486668514687616
0.470329540882087
0.459700296851636
0.474688397459073
0.463664920931462
0.46333629434839
0.461067090896008
0.464947578187413
0.452684168079606
0.444647654639759
0.448717022712906
0.446542199402808
0.444715177670797
0.445250904266934
0.433319060711812
0.428854426618739
0.424179687436262
0.432769272756365
0.425160961629849
0.422229395975666
0.418821117306092
0.425308065768883
0.412304779418941
0.420394257989137
0.402942976310343
0.412316888029365
0.405874629552667
0.407942497182696
0.397350502117365
0.400668291463003
0.394212496313675
0.40371615678652
0.400053233188848
0.388516067286247
0.382050415175138
0.395842344904208
0.386538598684346
0.387136189648384
0.38039003020111
0.382878250557908
0.385356000993992
0.383045802274128
0.377156106009519
0.379684764101146
0.371981939764851
0.373496429770524
0.36489468331569
0.371372749081182
0.368693189784946
0.373142315285503
0.356396526324853
0.372682815435616
0.356590223463436
0.364852417866903
0.353998156985114
0.368774416584031
0.359257160711537
0.366330226366939
0.352990475730414
0.357763873215223
0.351176423702946
0.357249720503562
0.347396133347787
0.352368814572465
0.351721934954773
0.349312672904792
0.345179614274967
0.346806407883648
0.341547417462784
0.3464721062792
0.340000243257568
0.341925208863849
0.339453883643819
0.338445105682023
0.334528467190316
0.338136445627603
0.329125966330646
0.335430255497737
0.330403214338076
0.332898930936472
0.325023098038873
0.329784254445207
0.327707529038725
0.334025376694982
0.322392249971904
0.329633606861203
0.326930202115888
0.3279724413037
0.31940065971804
0.320860811617644
0.323713030973268
0.322479686471214
0.316315450390216
0.320880620293134
0.313464341454093
0.319763878106402
0.311069521868071
0.321464511163218
0.311988180807209
0.31873255943129
0.315449965673219
0.319439608441626
0.311064700167239
0.319946676694537
0.30845058004624
0.32044121209262
0.30670989339574
0.310442669497308
0.302440752837017
0.313472242479222
0.310004547908454
0.317987079522086
0.306741339687688
0.306842602282122
0.306495461054972
0.302203398151234
0.303616795343184
0.301752356119537
0.297136510055202
0.306971775101744
0.298858002134772
0.307436658622302
0.30263323013322
0.308930837433588
0.301894189655044
0.3051642618171
0.298812527992829
0.299000661719215
0.294429488478665
0.304586212664665
0.288546415394364
0.299876526120235
0.297777143302685
0.295321065622253
0.29787287010586
0.297386262584432
0.294035418140644
0.298734818937442
0.29557394271881
0.298418831281152
0.297704493465799
0.293343239087427
0.287929198796458
0.290798152558794
0.287829096846361
0.296683515047046
0.292443030797714
0.300176849535756
0.282386407252118
0.293397773455528
0.280339860067478
0.290420446680101
0.279525155724461
0.289410713578637
0.278254376008128
0.289649862067269
0.284495932608017
0.284917492643363
0.284740943817185
0.286737221708417
0.284487734932529
0.288815591054536
0.275672768276061
0.283600518035184
0.276351706548725
0.285186987482142
0.280354433509095
0.283062820400124
0.277288255999841
0.276891701188969
0.274050980569094
0.276525334013885
0.267450748252054
0.274928048879718
0.276161095114332
0.277843704395062
0.268826795983392
0.276576245318971
0.271079359864639
0.267754917566217
0.264879071883284
0.271099572740299
0.266934249014355
0.271886392218714
0.263464838688032
0.266022447947744
0.26235100568654
0.262616177946855
0.26359195272419
0.266752648209161
0.261280399550997
0.265315558769208
0.260485386241108
0.259710390938887
0.257512177830433
0.258489267807519
0.248541882237863
0.258556018178684
0.254566816226737
0.257395878328937
0.251874674583608
0.254638752634111
0.246492211098307
0.258867499588175
0.248769040290233
0.253206028155598
0.239099605041755
0.250296320145557
0.245220471452743
0.246432534208617
0.241786587310117
0.247640385371857
0.239037502952276
0.241326298060428
0.240228706995214
0.245767447534584
0.239269981472685
0.238021219458538
0.234822192881858
0.243188506528156
0.237348596016171
0.239535833630003
0.228323225975609
0.236290514247106
0.229421450882216
0.229222812002932
0.230338398166036
0.228610018272033
0.227356918040553
0.227497402985478
0.222448523744546
0.228831386321321
0.220839069747893
0.225415700214957
0.22185729000942
0.224227716306063
0.217066978555542
0.224854862992429
0.21454646794179
0.219930868450407
0.213326126272674
0.216791961665008
0.215970729987503
0.218127637754685
0.211706650411441
0.212842378522863
0.212720852472033
0.212624620672501
0.210172627674654
0.212709713707197
0.208150729389521
0.214285272398338
0.208790203644387
0.209946602412616
0.198930868811704
0.207650687402865
0.197455715128843
0.206542967454038
0.20442426218172
0.198660340901991
0.202132911317749
0.200758298970819
0.198406057558547
0.195907982076843
0.198572580317844
0.203073370874057
0.194750432064375
0.198285279919949
0.194654598076765
0.199569345131124
0.195862842842146
0.188749686446391
0.192594640871899
0.194628345358412
0.187995767599388
0.18775871012198
0.188540596957839
0.18750602987532
0.190309842376432
0.187952452580403
0.188396591059236
0.19311447998501
0.190774584605734
0.186327623957622
0.180054623044936
0.189562741458668
0.184578068460605
0.189241435064355
0.182441716938034
0.187724188165721
0.183159694751428
0.181817834606325
0.180672368388608
0.1841946279133
0.178679944705386
0.180805624789299
0.175576197879077
0.179579343390349
0.176481306220051
0.179226552323315
0.178870082057078
0.178172837884946
0.173026009714762
0.17658214982038
0.174829885569
0.179921584033447
0.171879356685291
0.175888617690638
0.172794015401307
0.176576081597526
0.17539011136152
0.173094949907129
0.176185340086489
0.175140034425163
0.171357014682816
0.173019374598444
0.170076799055129
0.172447046647103
0.16991709416072
0.172996513180905
0.16579627069709
0.168745420443343
0.168426502319289
0.16811479254583
0.166238624770846
0.165575450060554
0.166015697841878
0.16704667926705
0.169379881721424
0.167136247020306
0.163437037748311
0.170041627241331
0.164541548286938
0.164510702031628
0.164631441773381
0.16140693880215
0.162166097130435
0.165956024030533
0.157904666385717
0.164406321670287
0.161963230075578
0.159230971106789
0.164117650504628
0.163652789532556
0.155924630571302
0.162911026624245
0.158430867070286
0.159431422755472
0.158480633591272
0.164706698322509
0.155713265358328
0.15693595313609
0.158519788248216
0.1595977046685
0.153631964603003
0.154807804184944
0.154499994583192
0.154937288440927
0.156567796802463
0.156741106328424
0.153114715082348
0.156449633400047
0.152207308711215
0.156032448844344
0.151278928253643
0.151901561763842
0.15095371319139
0.150016474138094
0.149342809827535
0.15328447418529
0.151983383955867
0.156352409577196
0.151575307644189
0.150177771309113
0.149982282286659
0.14871769531318
0.143579269742296
0.148886611302646
0.146340759238334
0.149758568060608
0.146079441289611
0.150007904872504
0.144621926404932
0.144915619932892
0.14318490885771
0.141863501032543
0.146058693570651
0.145252036809915
0.144185299803408
0.14407585979504
0.141701471846665
0.141693070555835
0.138823386754002
0.143518108493519
0.13832889020166
0.139663587798963
0.142143193506271
0.139388146597509
0.137269868364496
0.139686979321265
0.136269203151544
0.137438402664277
0.13662973713894
0.140196414492711
0.134037853389001
0.138881947184305
0.13581871006205
0.137234655276686
0.137701955320047
0.132747244516757
0.131597185356147
0.135149268837467
0.129634134298671
0.130715897601113
0.1283897602182
0.127535843617006
0.129824194281745
0.128153255207074
0.123416835667883
0.126752751128325
0.124033714219615
0.1298693574601
0.127086208142079
0.129063357629617
0.123973640937343
0.124549164749637
0.125705643194198
0.124725930889625
0.121862853029242
0.123467217674074
0.121890051722583
0.123319272404304
0.119975335533721
0.120990329916307
0.117970175831559
0.120048336493709
0.117579976654623
0.119531925551251
0.117786110457383
0.11881693120117
0.116868974181196
0.119085890877358
0.115918032608328
0.114965248058191
0.116193579805519
0.116008032541427
0.112168832366796
0.114785024596427
0.113906119126456
0.11219136171461
0.109908561220127
0.113759215435648
0.110614729584453
0.1132106855977
0.112893608037481
0.110829982090355
0.10732352585322
0.110665213751432
0.10792885194011
0.107823160845006
0.105237556345561
0.106275875542199
0.105944399683211
0.103848631793434
0.104313918290379
0.109115021878757
0.103451222280841
0.102294296230079
0.0998706481647076
0.102471062168024
0.101066541875813
0.104242987053027
0.100187212406833
0.102539616157442
0.100045700028094
0.101222345926109
0.101807906654734
0.102641321340131
0.0965283588246525
0.0990642489048902
0.0978392656119751
0.0972867631291624
0.0968544555772406
0.0994527120950636
0.0971493837061763
0.101069938122541
0.0997783087977696
0.0993880963829305
0.0956353879026859
0.0963038335391042
0.094009578815332
0.0974449777212456
0.095963445302105
0.0982186327315673
0.0944177085477271
0.0982519107110895
0.0952132111123648
0.0927244327537052
0.0931468330562256
0.0960566918470154
0.0930992433750138
0.0946167569338879
0.0897719303945645
0.0917667937448377
0.0909567131198216
0.0960700109051282
0.0911077191488972
0.0930398007045375
0.0907253260947533
0.0926570190573258
0.0867123143518518
0.0899169342805434
0.0886684976828473
0.0940766716134648
0.0897002212704997
0.0886700975247453
0.0835338184408808
0.0883653885201628
0.0858428761857887
0.0929450254093849
0.0792202840124403
0.089276821882945
0.0876277635496256
0.0850617278837068
0.079306343628441
0.0820075929766915
0.075670578155428
0.0814763135635351
0.077893503440838
0.0877328580326868
0.08118437258052
0.0872816765166149
0.0789040710991518
0.0850073514481651
0.0869499317603201
0.0828658254399881
0.0780734243709266
0.0896625130287024
0.0819110880936837
0.0855531375837135
0.0800821106309382
0.0909163756378688
0.0790892173787526
0.0860060443322676
0.0830499631249268
0.0903990798552742
0.0823827924209741
0.0880877165463219
0.0794690499815615
0.0908219752582095
0.0774092685479176
0.0904122730510903
0.0818372610269182
0.0905082151580532
0.0780306311164954
0.0849963320765488
0.0749185369073313
0.0852701602247739
0.0758718642438316
0.0845228340663588
0.0727371670132598
0.0792008907993452
0.0804730754418742
0.082065316190922
0.0745952285523765
0.0742639452773239
0.0841903089996536
0.0794296482873376
0.0901566335950703
0.0711804801393267
0.0840700617399813
0.0737168720175722
0.0912783786934177
0.0636206085056707
0.0889865211634377
0.0668364086095546
0.0884842975161838
0.0674980504174287
0.0874308352363173
0.0714253947497233
0.0820075625218096
0.0768255009163542
0.0778728697430746
0.0770170769732301
0.0763178603627459
0.07738713296714
0.077766023529767
0.0833666072753061
0.0789954496286134
0.0767235008126787
0.079031187740089
0.0760141180184244
0.0816079806751344
0.0777475501328739
0.0809295652410584
0.0757733492366124
0.0770758802875721
0.0766687524335379
0.0746762649448384
0.075873881946466
0.076805575904789
0.0768238781089464
0.0747101040904326
0.0730541132313344
0.0774294701185661
0.079172875746798
0.0793619286934751
0.0759435202380901
0.0767894036951451
0.0783284040755767
0.07628327470588
0.0767084641478453
0.0818716914924141
0.0762106305179251
0.0778416891039722
0.0791310205845876
0.0786095495070262
0.0790783516090169
0.0774507859054475
0.0765616978873329
0.0795013521824072
0.077521648349208
0.0795317873712107
0.0770024130143655
0.0756479733409405
0.0763114645000505
0.081724791887582
0.0770460408132523
0.0774814393979974
0.0776297353053745
0.0782811654067106
0.0770499385112003
0.0754585965487373
0.0743601364435916
0.0761945420244592
0.0796669968315671
0.078787596095194
0.0768136844105459
0.0781399134557725
0.0766096800010754
0.0797194112537393
0.078599015864659
0.0766898833965415
0.078020018242837
0.0771198667985491
0.0750428169906637
0.0763926497652129
0.0796417847201032
0.0753275681595317
0.074017602659433
0.077746804893648
0.0769977984389945
0.0779731682554577
0.078046752286295
0.0767149282510271
0.0768747141504921
0.0780581801008375
0.0735808238783317
0.0759718814613862
0.0793094714800723
0.0785722102301307
0.0791555129705371
0.0749382320068054
0.0755127716652879
0.0760868527697023
0.0753818313090624
0.0779771494806965
0.0803745421872836
0.0787421386686948
0.0799126615023402
0.0779098701222507
0.077610670089078
0.0790799290842529
0.0760683610641852
0.0783579269053294
0.0768788689738831
0.0760185921108971
0.0777282941345187
0.0793938368852768
0.0802384756235709
0.0788125282667275
0.0787853545976357
0.0788690342694328
0.0796441194798869
0.0801556146268294
0.0764189172354281
0.0799544827961503
0.0813336197227508
0.0806748377575687
0.0824278100491698
0.080020904520636
0.0808303637458177
0.078662180630182
0.0798118606562695
0.0808405767253598
0.0816068446090619
0.0800286331717774
0.0783652626447804
0.0813176883542676
0.0822863668430322
0.0803755515648655
0.0800144228232846
0.0800368600525669
0.0792951677458312
0.0832153497929987
0.0829058645065441
0.0825449557333163
0.0821331535370966
0.0822727844736251
0.0859555289134029
0.0843883942968917
0.0797914973955808
0.0842121576184471
0.0845790933208217
0.0847626602530672
0.081609324332166
0.0801526398678108
0.0813220961335768
0.0832350643478735
0.0834188095491784
0.0822884587230369
0.0809383249390189
0.0817843184940242
0.0840296976709749
0.0830380744769057
0.0811647187416723
0.0823540299211845
0.0857327539044615
0.0820609275575462
0.0854337862084964
0.0841477668606304
0.0846073937522905
0.0831149805890316
0.0835710411572636
0.0848824776879854
0.0840319041542214
0.0859825951847418
0.0848192642039008
0.0818094232940415
0.0826704320798516
0.0856452956359485
0.0883097424993552
0.0867607809023928
0.0873025318898606
0.0868093205402425
0.0856679476946323
0.0845630207147332
0.0853659601902971
0.0861254438011419
0.0850496047603759
0.0854812598131364
0.0856275765657662
0.0858332954162346
0.0851545420998324
0.0847141300972403
0.0852924780454354
0.0861316258653104
0.0866943520477789
0.0875977326560218
0.0857462110794344
0.0865870183151379
0.0850697540433255
0.0842753272324783
0.0849796407278933
0.0860937001236105
0.0855147087875303
0.0850907242327824
0.0842604799745966
0.0852691915243548
0.0843570682834527
0.0844755937491952
0.0843615988228148
0.0810875865464304
0.0836151094410524
0.0813630544307629
0.082323105196035
0.0830231334055142
0.082732489899895
0.0835587535676642
0.0818482572488303
0.0848234092699909
0.0839303238743064
0.081484860783524
0.0822548561057232
0.0838321389253703
0.0834580256434313
0.0805374426479024
0.0812747564321819
0.0818441971111818
0.0817195661478449
0.0813600185801417
0.0806914449771614
0.081879156910267
0.0810105966943954
0.081042329827712
0.0809550093220387
0.081492535441534
0.08148503137055
0.0793111865772184
0.0811993958484837
0.0800873586959916
0.0791130037226129
0.0812781696696947
0.0790650484224073
0.079682115528163
0.0803763582580513
0.078438798510014
0.0805671547983355
0.07749055126019
0.0810991110513489
0.079187483883882
0.0794533667817972
0.0775946366771404
0.0803328054610385
0.0791395996470144
0.0806494159056393
0.0801498401683322
0.0793632122806942
0.0805370967607733
0.0765876877545778
0.0780645676440566
0.0768869497522327
0.0797179985519997
0.0816121186902679
0.0773819314717701
0.0786756691596957
0.0798395196616733
0.0784921444452493
0.076806258022561
0.0764002986680144
0.0787289644362836
0.0782908840953759
0.0802228406447116
0.0780643310627063
0.0796900888992624
0.0777243735129488
0.0766330406554734
0.0799078683093688
0.0776961090744993
0.078469724622187
0.080708175747854
0.0769988730335701
0.0787139157856387
0.0810220283986664
0.0775568956654642
0.0783708882428444
0.0788079565861055
0.079008807532311
0.07812266959108
0.0806313596547341
0.0798812355383372
0.0791993140125641
0.0769462806164776
0.077505463371905
0.0791844822701303
0.0802910407673931
0.0786547497503303
0.0786345850059205
0.081352009261584
0.0772952468780621
0.0769797250613145
0.0761818527932424
0.078047424985762
0.0775430871856014
0.076507088153814
0.0767326593916258
0.0751388134295138
0.0765237828521623
0.0760155807744411
0.0775833994496413
0.078614358272868
0.0771612801353497
0.0734284069046904
0.0753947240713455
0.072685803997218
0.0743036226556433
0.0747811643331076
0.0739560091079112
0.075498331076458
0.0750495789166371
0.0743483387230472
0.0732316351725215
0.073051894778357
0.074229703418665
0.0734560985619779
0.0759358845750641
0.0734639067953562
0.0721576076238676
0.0733967735538688
0.0716483076093635
0.0721601807615491
0.0721999463461494
0.0703509212931351
0.0686168450350631
0.0714557537436792
0.0692756078421359
0.0711548006871768
0.0703482344703833
0.0685416334784603
0.0699325936213138
0.0697214572068145
0.0693979702274157
0.0706431811479248
0.0678033167041159
0.0686926586547067
0.0688584855132731
0.0668613372004861
0.0682673923250891
0.068832471126018
0.0670373696095614
0.0687106251312985
0.0656643313591621
0.0633169996450824
0.070226070602335
0.0681393848936491
0.063384727759753
0.0651337797603025
0.0659904389608337
0.0673599104452363
0.0691950534422334
0.0658836673256827
0.0642998965047911
0.0664899879753419
0.0638959972365889
0.06305550248988
0.0640643723536578
0.063659329013969
0.0659715704365269
0.0648268382512148
0.0647451380115745
0.0655386167900071
0.0606170232648881
0.0648345505877028
0.0637860884370327
0.0628907501458656
0.0647948892709633
0.0648949476672508
0.0635990807729428
0.066049650723857
0.0610745347075523
0.0667622768470136
0.0651758719038937
0.0645569645600943
0.0616834244496651
0.0627624416400593
0.0628737468888057
0.0676975436500494
0.0635821714212857
0.0624296781118174
0.062011268109298
0.0635593295112286
0.0617347885476619
0.0643316827843286
0.0648217594294185
0.0602275772974663
0.063141243132416
0.0644321286166556
0.0605918464552265
0.058872238035285
0.0623818267354508
0.062021041007398
0.0598448455429743
0.0625515089362203
0.0612583638771473
0.0590601255204572
0.0614797071126405
0.0603697027744075
0.0602694099000288
0.0597902389067248
0.0601442945794872
0.0642569500618068
0.0621289819665314
0.0597680636324932
0.0609712081738183
0.059407562363374
0.0613471043848231
0.0599735617799522
0.0602363303022208
0.0570001566919847
0.0612835924014915
0.0557115090841635
0.0590697743950655
0.0587346766573419
0.060101175304674
0.0592187288270584
0.0584465779265342
0.0594849393090666
0.0584220600276459
0.0584177987761625
0.056822812340025
0.057735953868212
0.0603172629408657
0.0585178390908342
0.0572725434299011
0.0578393909036218
0.0579698911137029
0.0639566411151898
0.0593494764346987
0.0603020808592659
0.0597713397640065
0.0587750857665319
0.0622502558347192
0.0578116062655882
0.0629155394689193
0.0601194172074204
0.0564754194513898
0.0609554120960621
0.0580741679849582
0.0604975547914181
0.0593102400756038
0.0627654426940127
0.0553204580915008
0.0606222497458114
0.0604293584501588
0.0618762554341092
0.0559458373580192
0.0609937043560723
0.0593455426473674
0.0586993088649644
0.0601963870051487
0.0593129668745697
0.0590991276094861
0.0601874624142104
0.0569209352220022
0.0612030897848005
0.061513264643701
0.0628160866333388
0.0587899573485171
0.0610949868089758
0.0575387062153399
0.0593558897543527
0.0561852379910483
0.0604114110733482
0.0575415931030868
0.0642340491997382
0.0591528675167627
0.0587733825344249
0.0601138141476519
0.0606230654305087
0.0592110167422878
0.0587129572373253
0.05804283414534
0.059466486645422
0.0597286664372387
0.0587195096663408
0.0591220637157217
0.0589085644607243
0.0575302342889956
0.058707871065551
0.058009629663108
0.0594370720721466
0.0611508096485958
0.0591749028321077
0.061735061738777
0.0619010096939654
0.0573351656703841
0.0652195527217289
0.0608011281681902
0.0590249137273304
0.0568613236372575
0.0611046889072224
0.0583839337155429
0.0614645626630699
0.0591007089995292
0.0608315639688942
0.0569355439470647
0.060776711456609
0.0576216903735515
0.0627694419172973
0.0601238491684352
0.0604145458110918
0.0591483943341205
0.0595553060179864
0.0578193606722386
0.0597689367984085
0.0609329060370205
0.0618871520354921
0.0606201710324511
0.0588980788942641
0.0595447351867852
0.0606400632106635
0.0673008645330728
0.0575845849136364
0.0612438515783348
0.0594736850156943
0.0620539647813647
0.0617081655601017
0.0623775608520572
0.0625377983848413
0.0615789707918911
0.0604681119681634
0.0623728582907901
0.064053001198649
0.0626732082940691
0.0636584340712039
0.061206632820765
0.0621550708920459
0.0645613205050873
0.0627540609221448
0.06353420104159
0.0595384130293214
0.0696633315510165
0.0605267053988216
0.0646804549961609
0.0658785860887422
0.0614313633479784
0.064645302486392
0.0638335508263267
0.0670734415043943
0.0630419441472101
0.0664566053187394
0.0618087040582587
0.0659044002495953
0.0640281963765496
0.0661898953259024
0.0667337924198358
0.0658866406293639
0.0662629206199509
0.0708631822306716
0.0655880331711156
0.0687567621659432
0.0644714914929712
0.0678610996334405
0.0677071313567359
0.0665667948182673
0.0658907498845526
0.069259170434269
0.067817555538931
0.0672739402269122
0.0708619003147128
0.0701041187189691
0.0691726246999424
0.074091343967146
0.0697893415378821
0.0728291588666242
0.0619726146618592
0.0765252965452645
0.064314600565978
0.0737111350550484
0.0679791800673653
0.0742794921966548
0.0696102675100549
0.0738242062870423
0.0729494270286689
0.0714613640768112
0.0733514035033137
0.0683288963132132
0.0758016017073429
0.0688125697486227
0.0769623650652535
0.0700575313645047
0.0802546401034777
0.0726100913510744
0.0789772770656214
0.0719322693125991
0.0801884097902589
0.0737227003836852
0.0803826151173898
0.0799731444132888
0.0816549166761184
0.0810858269175914
0.0761396828762587
0.0773820564474313
0.0830228087291128
0.0765086495530273
0.0826471354429814
0.0776355326294214
0.0828019853389951
0.0796846232267981
0.0842549673048902
0.0860554656482719
0.0816226040023108
0.0861989178279146
0.0798381840266755
0.0814214527343186
0.0894875342080206
0.0830080444286996
0.0863011220203347
0.0844526963584326
0.0852318520583806
0.0801043402403085
0.101168538549668
0.0817008453887764
0.0948989836099772
0.0861421578239121
0.0979015981876191
0.0891031608324923
0.0931872554063715
0.0915176878224341
0.0955102392510339
0.0960005190631362
0.0976540107452933
0.0902315042155642
0.111058176297936
0.0997232865205104
0.10215789104224
0.104250200848997
0.101994630113724
0.107220754273362
0.112552604742099
0.112003943142182
0.115049656307428
0.110029933989568
0.111443790728928
0.121642154749972
0.111510128057803
0.120256460719684
0.115055268211413
0.117721870138423
0.117403642158809
0.118276470296833
0.124707408692853
0.119064618562109
0.129226172202331
0.125551710789085
0.131065943922271
0.12989469616921
0.140592352078628
0.132977358709008
0.130775870314741
0.146843988711573
0.138346679313686
0.140352100042591
0.137665613238559
0.139891137034254
0.143247256691067
0.142083975393946
0.145148758329691
0.143782706356677
0.159851438495893
0.148868809219337
0.15261819488858
0.151341668282441
0.156196266819489
0.158969418282903
0.166337087932467
0.201475434450352
0.167942390986057
0.18347586954619
0.176067046216763
0.19474076745365
0.197926749879178
0.195477822775951
0.202972105643549
0.20693413967255
0.211176482573956
0.221018333794522
0.222975474586492
0.22801771240494
0.239475116247909
0.243353816263563
0.245206695106844
0.268945421970851
0.2871366852438
0.298167894218391
0.282391480477525
0.282992000050043
0.293881998633581
0.30492461925527
0.302843070729085
0.318573207544667
0.318005864912701
0.33896874838129
0.355428828672198
0.351019995914254
0.351346250863489
0.373927860718667
0.38324521341182
0.372310853396961
0.409549241956975
0.405413209378149
0.406271301321173
0.411044464655847
0.420899917620863
0.432812298919057
0.433701822894845
0.469319327837063
0.457672543483322
0.46626302074119
0.462005123935683
0.465157555849938
0.477334288264833
0.489225108772222
0.499491550231727
0.493289075531147
0.501027361430405
0.520087896365378
0.585962857319218
0.514414016598369
0.499349394519996
0.494812715618683
0.509426287689455
0.536186262137484
0.504587714239206
0.531802693033434
0.5260664291117
0.518417266009184
0.508888227345182
0.523948352319342
0.520792597752985
0.519421863485536
0.516673520695581
0.519955041505973
0.530624191468586
0.54044243430012
0.561440220322063
0.57754177297068
0.52180118932937
0.525501915352232
0.525125339322456
0.530172791909995
0.524864049053631
0.52539941779831
0.517943649083536
0.528602361138355
0.512321531288457
0.519029057083994
0.501433481543164
0.521921284098591
0.495262009975396
0.48251865148114
0.485464455135472
0.49451975844578
0.48767345423481
0.479737233500286
0.478972420863368
0.505953410301498
0.465610905494569
0.468039963671864
0.458838982919425
0.461788971688876
0.454230034335348
0.45552397024372
0.451061808444363
0.453217180115521
0.438916276217494
0.445123356435073
0.440705829016688
0.443288913502149
0.433641260977079
0.439067287814163
0.433030716326615
0.436660812101581
0.427265050529095
0.436837800008786
0.429747899833864
0.430230364685761
0.431011893571444
0.430283881459154
0.427710351880346
0.431467714628662
0.425728498945512
0.429713784520959
0.421487728532399
0.428487627634578
0.424243390743521
0.423562223645315
0.42596125274931
0.425628981364563
0.423041305340317
0.420443253752614
0.413493260080995
0.418332702446666
0.422775453774028
0.412943319721433
0.413368545609967
0.412591235559225
0.412816166564159
0.408683703525218
0.437677593347169
0.415015607643176
0.403582402371092
0.404548058670118
0.398730299573064
0.400850550851919
0.39562369769114
0.414006552850276
0.396400791503622
0.38989919989778
0.384597766779077
0.373556644229401
0.388195838133362
0.393783832908808
0.36761318851309
0.380448046260231
0.369626429544023
0.392870107175304
0.38461321712802
0.382631561917531
0.402897408172801
0.367487457199908
0.359944385634683
0.370476805991072
0.376007942407107
0.36126416159598
0.363468688764953
0.350247941601873
0.3678894534546
0.357975986511771
0.357113368740707
0.355607752338917
0.341826685583056
0.351070964141773
0.356870819465481
0.345269274437451
0.339829467365526
0.353063224845929
0.339537638626037
0.366598360606312
0.342444648512558
0.338115180815008
0.329521766245784
0.334627879356647
0.327667539082469
0.327659860304936
0.34143059024907
0.322211356613524
0.322562673782368
0.315346772665511
0.310339923011758
0.308531610869788
0.316019291994711
0.31474119183646
0.301276243175155
0.316292654021537
0.291383532167094
0.299964957541264
0.295987606614606
0.314320983251425
0.289063602379375
0.292243785431811
0.284580546529945
0.293172435225088
0.299097004598097
0.283236735723346
0.284801555643271
0.281061352995385
0.282419329513978
0.28998051357607
0.273116971550948
0.275197107170466
0.269371066223615
0.27263482533496
0.287507139958237
0.281336299837598
0.277843668152899
0.270674000178725
0.260628053694975
0.266341789329789
0.263375024281615
0.264848481158929
0.257275666026679
0.271591638964529
0.26579411690224
0.261844891955187
0.286390873800058
0.270871988554391
0.272295023644718
0.272290494033995
0.26872833012919
0.277588233073416
0.279234412257169
0.286172274376359
0.284728543113861
0.281418773894588
0.299237870885412
0.292629381714867
0.297211215455589
0.297099094265934
0.309110472930009
0.306860316887823
0.313227438873057
0.321437687611628
0.32564223901483
0.337209383106898
0.339317521826414
0.340177318466144
0.361488684474128
0.350669947249137
0.378834387508725
0.369888554177004
0.395965911262075
0.389929393225803
0.392148262730382
0.402070684712633
0.40168311853057
0.414218294064116
0.420296101625863
0.429265320068838
0.4480860112602
0.431238201047283
0.442848335758193
0.446114861891427
0.450356408749501
0.441173438605592
0.469167069545948
0.469705388035492
0.480159067528847
0.478339934897575
0.46906003772227
0.486472761874062
0.475203851045693
0.485582684029945
0.48352918502736
0.482591397144676
0.491881553373666
0.494163441332149
0.510722994557309
0.495473610362777
0.496573775437009
0.507424074543434
0.503635925986241
0.507360835394576
0.515415087263589
0.519178189284749
0.519721024437537
0.523462765155342
0.52763547039415
0.519486197388106
0.549281993406354
0.537727382569885
0.534292458208315
0.54335015398206
0.54390127551762
0.554693802696101
0.551640815442236
0.564942891798989
0.570929580695162
0.565429225575756
0.57440541005826
0.579418354107458
0.586018494003916
0.587274591482228
0.595437950988168
0.583853743276145
0.601687782922675
0.595543892497875
0.617323152396079
0.640176100689167
0.600538171993434
0.624854396094126
0.614868639314479
0.620257209829566
0.616338777505659
0.610730529961978
0.622179797862795
0.628110660578331
0.62273805767349
0.635641833310268
0.623805784556534
0.625700596862084
0.626655619336405
0.624967516509856
0.643238689418528
0.625206367318386
0.621476016163108
0.624472081121139
0.625575097096858
0.625393131197288
0.624220725882921
0.63166250147127
0.627987174209085
0.63393054914775
0.629509152022211
0.642032578336613
0.632823229644567
0.618568040042564
0.627247970438578
0.631555006861145
0.623594857750465
0.630608938304995
0.642483725818043
0.652785756211958
0.635713298039526
0.64213856567073
0.64461312683962
0.647278791760654
0.650038264980664
0.650987368965286
0.646487192337585
0.657965115329458
0.65708860184906
0.666592743561421
0.670561893281863
0.658939831217661
0.662428959137187
0.677297321912278
0.673391534378916
0.65841672983316
0.658872077479214
0.657734226795185
0.652564442700036
0.659357681427045
0.65286171632966
0.642912796493675
0.63934341374454
0.64545278158279
0.634852019979253
0.640187671471427
0.618388473197746
0.6176039428688
0.619721895587043
0.611089427926731
0.609295017258429
0.59969192542009
0.593655180100996
0.593974568605321
0.600410930595467
0.593090209974695
0.58600359003593
0.583016276799379
0.579544530501411
0.582422158609761
0.581958008006149
0.580358755347087
0.576880822535927
0.574984962024003
0.575474173186399
0.572821723799003
0.566431665936515
0.571338197001115
0.573810610625143
0.580180598731162
0.584925123801725
0.576102894240289
0.572901725521902
0.57038848725582
0.575718797605269
0.575187840134527
0.574292373790495
0.571368760396213
0.573768795371487
0.569891451504266
0.577020744753805
0.574521044102062
0.567088658509601
0.566871811216915
0.571784307414756
0.574222832363182
0.568011118684783
0.567484389670727
0.571229776713637
0.564570876135125
0.562813580884132
0.560630111368206
0.560017860411896
0.572671274282481
0.571358965137538
0.568212901760022
0.567690227496011
0.568044876965277
0.574455272870063
0.566745183409488
0.563657365885475
0.569917944775573
0.563500337441163
0.568034333187231
0.565731004746119
0.562191232145581
0.569620329416684
0.565889867876955
0.561247664369007
0.558242854509604
0.556807332023782
0.564915443218547
0.55691348675969
0.548970105203133
0.547755412645526
0.540864544598647
0.5327064900345
0.528774547747555
0.525422294014148
0.522777920427751
0.51582351831742
0.510573497925394
0.510131864035432
0.507962107017175
0.505591525116445
0.502889916741262
0.50148141009083
0.498359532636979
0.498196567889153
0.493403368168602
0.493757413611949
0.497880672408234
0.489654115016087
0.492280430299601
0.494964293160394
0.488445665183839
0.489253688806085
0.488775288486947
0.49417136385345
0.492522187258452
0.492411089625906
0.49391652410172
0.498832996016783
0.500491657044279
0.501589106716971
0.507774052450343
0.505266691255278
0.504778270775925
0.50853093906285
0.515506330884512
0.51507707265742
0.511769030849055
0.513541794179378
0.517459525272329
0.5181992443605
0.518080631706574
0.515665078430444
0.518194381864852
0.523253178280986
0.524623348006506
0.519865909577719
0.521238859384661
0.518853584207365
0.518220430908478
0.518154777283456
0.517033778835861
0.517053929307017
0.518679017326878
0.517240935223677
0.512432313264601
0.513148925144189
0.511154831106497
0.512079784482418
0.512262332288725
0.50945985524857
0.508903143757136
0.501819726777929
0.502839467617739
0.502059210421679
0.500973510092427
0.499432305536614
0.497470498870883
0.496350929505059
0.492098202503472
0.490078196229205
0.489361109027892
0.487839711149871
0.484572588276762
0.486181798924379
0.486776856900116
0.482959286841201
0.483103834501209
0.481665154737273
0.480154677539295
0.472392824186649
0.477679117011506
0.477680347273741
0.475813197164242
0.474772371578031
0.472580073732637
0.467939473002118
0.468915523994885
0.463790319869553
0.45669918468223
0.459684135896282
0.453553289839372
0.447786020578874
0.444610617885544
0.436947415004557
0.439018872282495
0.437618184303999
0.434964590082053
0.433776597305518
0.426394670001545
0.427927576374338
0.42633630475938
0.425221635740541
0.425998528551409
0.426625214645052
0.419683394370365
0.41958473601362
0.41827472167821
0.41691315073746
0.415231261822616
0.410197924281814
0.410660691623469
0.401649795482963
0.398215085929636
0.396448439290995
0.391506126763482
0.387271017496144
0.378529680752362
0.376748817846287
0.374228983610494
0.37234433322572
0.369952996735496
0.368430217308734
0.370950206493615
0.379015466090741
0.382485374353474
0.390334595129354
0.397620091550441
0.408447173435653
0.419839745728639
0.432215046523244
0.44384064572532
0.461615060961822
0.47641225390936
0.494513685815443
0.511710632088542
0.531958166848661
0.548192906474518
0.565494703140082
0.585292635573126
0.596190860488026
0.615350696233887
0.635252988192564
0.649243284261569
0.666121751849953
0.677156967439642
0.695758748109089
0.708866425066699
0.722484838128613
0.741568165330585
0.74724077678973
0.755134906982224
0.771441185761536
0.778228530513334
0.784654398701551
0.795569047885988
0.800573002034191
0.811258682629152
0.818573325677631
0.817442345535053
0.819615711954557
0.823710005547252
0.828006771041172
0.829036091593138
0.834944557817842
0.831397398339777
0.825261349568367
0.832961978978511
0.831884831434246
0.828996606278123
0.842245748988855
0.839153167057468
0.839681056906579
0.852985278418395
0.853776492998074
0.86177495582639
0.861448054364172
0.864532965853261
0.871930634272371
0.895772754425243
0.891536476415238
0.887817643403753
0.89768236562983
0.921151556201323
0.924619004232945
0.93044372465092
0.944426829258931
0.95076064602843
0.962209585366997
0.972077756732589
0.990954859188063
1.01358288861532
1.02663632538764
1.02301991774287
1.04517426882307
1.05156749420485
1.05558712572416
1.05803105685728
1.07136968691114
1.06804275474253
1.0450278762654
1.04254921909502
1.04395510044715
1.05368290043938
1.04665639883843
1.03533484018533
1.04540186521628
1.05480524554407
1.04325408617123
1.04434759916915
1.05590196069974
1.06008954474483
1.07943172612443
1.10851590743039
1.12893207680795
1.11809551417593
1.13952402619316
1.16733760715984
1.16777925893087
1.18665440322319
1.21679608349086
1.23783325905044
1.23312275553924
1.23966070835895
1.28943912921782
1.32906017573928
1.29444933846619
1.31038554260251
1.35043144485994
1.34482338393136
1.46763240433032
1.41259293420364
1.45230998138151
1.50471189318683
1.52231096487548
1.55574530880301
1.54385677831254
1.59323105504011
1.55045793904767
1.58088482557127
1.62048043631566
1.71954040574694
1.62909409462444
1.67772937003561
1.70861142043128
1.78606111246308
1.74746530760577
1.84627717200574
1.69945138225233
1.77236056021514
1.73597635161736
1.73949460492536
1.76600953033714
1.7019769579862
1.73407408240478
1.8549850365423
1.72211519181315
1.76956229519319
1.80386109120205
1.76963133202988
1.70760197035483
1.8138785837487
1.83760778596064
1.7722670657204
1.78518270039953
1.81461047881532
1.96462143329037
1.77402162408213
1.88069828169887
2.08262952116967
1.91696401715118
1.99348096708353
1.7946925752023
2.09573720769754
1.89762953375151
1.93680733094746
2.0054679564075
2.02400491841454
1.85676104659184
2.16226424448469
2.10780602394282
2.06542809039595
2.22621400199996
2.0741105691315
1.92210513647572
2.3172787162849
2.25504506032458
2.34394545371228
2.06779602985078
2.32887898581794
2.27775872081466
2.25080671404279
2.06282142065788
2.40154723661809
2.24092843980753
2.29841660302121
2.22646112288991
2.43653906063565
2.20613191201563
2.01786265957709
2.06475162959005
2.47950674364388
2.09934032540164
2.13711922872048
2.23917759883187
2.1846396442935
2.06606539228316
2.32970828849313
1.94635251330445
2.18689010278523
1.89141949767449
2.06275776977443
1.78275370551437
1.77126869085708
1.67722552591476
1.81477352628695
1.60466495257123
1.66976643127229
1.60613436816604
1.67262563802392
1.59248835604304
1.52840364610159
1.52984680530208
1.57537922668685
1.50407805045212
1.52317454657458
1.52750433094971
1.56304668130122
1.42999020185621
1.45411907103841
1.415253077877
1.41319140935611
1.38185797855283
1.42122760237452
1.35437285971292
1.36258101602252
1.31673066982468
1.33103344716393
1.21245834659464
1.24817958467037
1.18748265532333
1.19794762724623
1.1288011170306
1.12862322979628
1.07848948859403
1.04727113896225
0.968448376262986
0.928173196839306
0.90133378770337
0.856974312624206
0.813490388529004
0.784999152358926
0.748458119829267
0.720691010239252
0.693187562855438
0.656813461140061
0.641206606706449
0.615670522131494
0.596489584314855
0.587422118203376
0.563165505403211
0.547865871758126
0.539524244286347
0.53392138056735
0.518980580440488
0.510172527663241
0.50634592153786
0.50913806779618
0.508739487874122
0.504511586426553
0.497817778770513
0.501582951851053
0.494014655804507
0.49437714787617
0.503338134829272
0.506124153026979
0.503644359438987
0.506904302855679
0.501486068590792
0.50427744491995
0.503519586977179
0.500587281193265
0.498044767320967
0.492701190830365
0.483669514623816
0.485927604923635
0.488751713870661
0.482464163290074
0.47187760806639
0.470066775411976
0.466583689479781
0.458709682119646
0.460129992220676
0.477596398832948
0.462054326823662
0.450182050572978
0.466352700304334
0.468282324446888
0.461635377666296
0.462742489275341
0.475456193934325
0.469454653362322
0.480631429341155
0.491406374596781
0.487259619861612
0.491506015444253
0.491065980981046
0.495932737199777
0.4945108911232
0.49548083789057
0.50306155794027
0.510704342650565
0.510682536281724
0.50933623613307
0.501827627971152
0.499765744098979
0.500260401068382
0.516467145035704
0.508585777051359
0.519586301019134
0.518080944135394
0.518973646994347
0.524527600714853
0.533510673980428
0.55007704391003
0.561020482936125
0.559236037968867
0.583612481612754
0.587194302281508
0.605379795455348
0.619909574820329
0.630469337453104
0.646745214961183
0.658317163383521
0.663694028000924
0.696538719211969
0.680727434798737
0.68674591717737
0.674299087542713
0.665378358421247
0.658733705054768
0.65449537390254
0.631693222659758
0.624674059304941
0.625237182009102
0.606642758067646
0.607717206473844
0.597239557870931
0.610457308566432
0.59843959770922
0.59745599525844
0.615428299172845
0.612979240469805
0.590799281758008
0.611547871240952
0.630038113512782
0.584053084859928
0.591671484623101
0.596654217145844
0.591374075307814
0.571505463598527
0.580082581498042
0.563724094393897
0.574103604420901
0.552708841651972
0.554923705517918
0.551190942912562
0.53829647407875
0.534764401201267
0.531520708514348
0.512372850672903
0.519344164789014
0.512789436240073
0.532925914445062
0.525697606582345
0.519263252841019
0.521740668742018
0.507728915336356
0.506573842904445
0.510136578023015
0.491041039798898
0.494580222276623
0.484413083958056
0.500859057420775
0.479172335037869
0.486527063679331
0.481745776544099
0.483678319341265
0.475450682178719
0.477483643336209
0.46771120977197
0.486181939544455
0.456197210883135
0.464499030776491
0.467537565664871
0.441020224453972
0.461309572545573
0.464985587626939
0.45629264795676
0.452806524731358
0.441109582402819
0.451211023089635
0.440910237690247
0.445056281251415
0.451486576269262
0.448375912833451
0.445528608276189
0.467017073296765
0.440749851113534
0.455037100738435
0.444195953254768
0.44624697896485
0.445951385853091
0.444484321496055
0.45310002527707
0.449253985700139
0.439360198414685
0.46863825998926
0.446198125308405
0.462401556706777
0.458778575896029
0.488690413626205
0.4683761975767
0.490083241981935
0.461079681116631
0.497028849751997
0.504642806655445
0.493293772962037
0.475913815709903
0.493153345498187
0.490857696837273
0.495315450715097
0.504988060016873
0.512543866469266
0.51935186517756
0.520140980342024
0.548390787478276
0.551788885122753
0.568389493250411
0.633031212565004
0.591936510219248
0.61353056206146
0.623640375961542
0.65302506824153
0.664732940795654
0.688225266925705
0.705479963054084
0.736724801665229
0.744082765917088
0.744629022100245
0.762392811148437
0.836067238276461
0.770262502474807
0.811017181014945
0.799522732371355
0.845029448396661
0.818545274282355
0.806881343216115
0.791112267249626
0.797600164852846
0.799811923740836
0.797518420411738
0.738889773744519
0.752782795388533
0.785751447193167
0.793612220178573
0.709787539110509
0.797142345880265
0.74937256835643
0.798695362690411
0.767140748880461
0.750904092016894
0.739080202111196
0.745384749908847
0.716990995273202
0.717078621347666
0.703046278915175
0.708555349988327
0.681156127736702
0.750793797301857
0.697119028588355
0.727335269731141
0.664810366553447
0.657745888613977
0.689218597354794
0.678432514369664
0.680110614944771
0.695004690165339
0.63758622288929
0.766755385922963
0.666848979453898
0.676921274882656
0.685259794431148
0.715638761683744
0.665565733142891
0.720417777823969
0.643127693010266
0.67692053221306
0.659728788846684
0.668284487633452
0.716605380131098
0.767817900222696
0.678452844911225
0.709499469605308
0.66848133173264
0.783850992704637
0.702293563962491
0.78557410240556
0.683371710332662
0.732947585175281
0.736267228557735
0.748419076754418
0.676688717422155
0.778461612110956
0.829644201894735
0.781788333501753
0.692015591113453
0.751280478950381
0.651536513328242
0.840268074656608
0.677555912944504
0.740806704902116
0.754627880482209
0.822556908546762
0.782778746329171
0.8484737026142
0.751715132703304
0.987306418626666
1.00958799476496
0.850256815793506
0.790435597100197
0.793943370207936
0.924302853677445
1.01843562078691
0.936973805879234
0.93239443653137
0.8142113070689
1.16339781155286
1.25011764872874
1.17059752743384
1.03317466884091
0.965488071642487
0.92241341215823
1.01139972411516
0.98324609313842
1.03837972595088
0.888971693226852
0.97335107525335
0.88127086104792
1.07770095253519
0.88683784324571
0.977438443539393
0.757616442253304
0.960013649446096
1.26355484424692
1.09553600251447
0.775109249312745
0.790072264411933
0.732840019342284
0.881586566565192
1.17012404514418
0.741290704059757
0.828698348355301
1.38332839456707
0.885322020354723
0.785011616861115
0.811312112678266
0.898736007132538
0.765954613868135
1.63250533378963
0.877504371135469
5
0.762752802132084
1.06841730765703
0.998990051709038
1.03827327710092
0.76852442085271
0.825928741151336
0.827036238977061
2.37962497236563
0.843174548513311
0.912694463512671
0.680088312995124
1.13399967962206
0.56046933769273
0.802003939235287
0.413106413902146
0.927948720634809
0.702306799594709
5
0.793397834965489
5
1.77608388641619
5
1.56419975947287
1.2113071974141
0.828415419904668
