3596
4000.36533379555
650.420452594757
1
2
2
0.0226624055423913
0.0136515350417216
0.0178704476789337
0.0129894343711942
0.0195077533159369
0.015180886871619
0.0208234426664113
0.0187619510197044
0.019032073277966
0.012702420074063
0.0108751033640105
0.0197481212035227
0.0207986691739515
0.0119129453077112
0.00822734511105612
0.0169090363865511
0.0190902936223464
0.0201993494906773
0.0178180131890036
0.0204805230160091
0.0196589576847768
0.0132892503511839
0.0251078879396182
0.0164443550121002
0.0190830811499585
0.0215098019073618
0.0214363154607958
0.0247345126490965
0.028828081875913
0.0184843071171788
0.0203519967553005
0.022406044899918
0.0158595832151723
0.0236712152822011
0.0226171967209531
0.0139393269277684
0.0158936728160774
0.0178700897488509
0.0275858963252718
0.0100003172280007
0.0157168522604734
0.0219009120745764
0.0156396377891695
0.014865116291972
0.0156200043167313
0.0142643938985766
0.0137330148094601
0.0140968086670865
0.0190724027855739
0.0156663163950123
0.0192181302484325
0.0176644628311043
0.0233460160899238
0.0269270285825619
0.00841697391832665
0.0144334421741702
0.00923328636820053
0.00934912091645086
0.021660999640699
0.0273823803355301
0.0187979881911999
0.0186144220684286
0.0177564528617643
0.0147653230711858
0.0208806754710445
0.00890580934464501
0.0220113075561722
0.0265522262403611
0.0137605950863182
0.0252104364583247
0.0190566954542509
0.0170496775905189
0.0128416202333467
0.0091713364088605
0.0280003080314151
0.00863126400011043
0.0144226626248995
0.0170452784835148
0.0164934915525829
0.0117700459904901
0.0176881799916614
0.015967067337759
0.0276379705212767
0.0210806564464803
0.0123196915603564
0.0159303458221147
0.0177757726252036
0.00979345856054739
0.0256537030571435
0.0121992240088698
0.0136114172097575
0.0164652112422702
0.0104904659223445
0.011946874910413
0.0147994925778548
0.0152634057066774
0.0184419812926252
0.0110545712652502
0.0119669994249633
0.0129453928613764
0.00968546407494163
0.0196390510774149
0.0170658529993143
0.0175137700684114
0.0143119389776616
0.0209634106073968
0.00744153581052157
0.0190398246053456
0.0257757588441284
0.0136551921913101
0.022811199033744
0.0100984732533888
0.00306358906357781
0.00777112176219866
0.0224730489209491
0.0115121883769069
0.0191869947232872
0.0132534526348054
0.0160583679146933
0.0121673408762955
0.0136303738072803
0.00990619387839138
0.0221237498430082
0.0169578003490566
0.0172099516985703
0.0118691848139123
0.0164007177627177
0.0182361500200259
0.0119596593357138
0.0162010502009289
0.0139538254682755
0.0157414605031876
0.0125163436499049
0.008107702541365
0.0278122584372014
0.0130688762691582
0.0201273357784202
0.021080527585401
0.00348731936053662
0.00759007392800088
0.0141977768436361
0.0104189709859777
0.0149297229870419
0.0155346379272752
0.0148387237343077
0.00821325111526034
0.010954784840613
0.0153746208780098
0.00426047156718492
0.00875614095705994
0.00966049784104813
0.0141792456399706
0.0141067945334506
0.0132843199437724
0.0156113564274364
0.00610910978415827
0.0205536024813656
0.0268142715121681
0.0197438108458168
0.00856716071873646
0.0104018190011234
0.0115531248379076
0.0105936160045779
0.0181018654485133
0.00828420050075078
0.0140058591505112
0.00518886724265525
0.0206863071353848
0.0245231875263071
0.0130750670293577
0.0203280870480163
0.0174340531117146
0.0170899071323301
0.00931411324185201
0.0132114223078299
-0.00519448573839756
0.013514456470535
0.010864822425674
0.0106837854567501
0.0103552496864187
0.00688914660342501
0.0141756563438893
0.013833344344693
0.0134121501690773
0.0139692888152704
0.00240767111720414
0.0181207086748669
0.0131460517182802
0.0138672246756003
0.0165983563285789
0.0157038328886007
0.00296421517598233
0.00992169626550066
0.000397020195674279
0.00398222955964162
0.016168694496378
0.00363711746184138
0.014968404705456
0.0129448723397608
0.0137904710533584
0.0123010041894221
0.00511302903992808
0.0150513554421525
0.0143271805773126
0.0110341894292961
0.00794222193077205
0.00874013432355154
0.0111833919641214
0.0127357667656178
0.0150944671786884
0.0108656847365829
0.00268742795836677
0.0101405212900581
0.0167961272372194
0.019590350663847
0.0144397430488033
0.00571097446832983
0.012098144402325
0.0186448408610198
0.0164375347429418
0.015004858394038
0.0100487016217968
0.0224300365328615
0.00869465824677972
0.010211644823688
0.0134454402570591
0.00633256386948226
0.00847930684466554
0.0112931107666821
0.0101484320311804
0.0123617883402153
0.019117852815353
0.0195331790067268
0.0104722258224334
0.0144425531459915
0.0132857251387288
0.0207725057950977
0.0130342020833816
0.0132863843286304
0.0108503664981781
0.0133787035933003
0.00751068079412519
0.0106077138981888
0.0100937667343674
0.012417391307973
0.0132004143275311
0.0185218768561377
0.0182557420273003
0.0137700685531822
0.0188389877333555
0.0124900277047611
0.0200546397232729
0.0131405341999706
0.0134458750439429
0.0126717594841975
0.0222895519354411
0.0141804364873051
0.0116700066300749
0.0179832983464513
0.0196915609428686
0.0133768379704779
0.0140181028133949
0.0102661835463147
0.0114479482195543
0.0124071048091838
0.0148125301266901
0.0196574853805063
0.00767692762897543
0.0147258892006386
0.0200270135731967
0.0154811574844108
0.0190019047703024
0.0143792937974597
0.0245585818223746
0.0138442917039735
0.012384628370543
0.0200332882592376
0.016157690481749
0.00731621782646605
0.0156587579963859
0.0189530146379869
0.0287674311818904
0.0174779181572487
0.0210269696247561
0.00587918143294564
0.0230391080824533
0.0127737562643559
0.0169181843303979
0.00909909930905165
0.0141580501233314
0.0120292992199587
0.0191112015217506
0.0132682247205345
0.0162432950582173
0.0148913339790008
0.0164837258178429
0.0141330357942362
0.0122573933695994
0.0206096628376997
0.0118472645347517
0.0276729918847594
0.027568495202902
0.0189715619912589
0.0222397518959524
0.014611811667161
0.016622992188116
0.0199437973483339
0.0054105401217137
0.0237346008805118
0.0245766512985647
0.0138828210802345
0.0146021571640438
0.0235429061610758
0.0206093572722986
0.0121551119593937
0.0240584554168196
0.0179756908122655
0.015251527427878
0.0219713413602245
0.0227133205394065
0.0175852405801388
0.0258197721736847
0.0233353386813639
0.0223795953408812
0.0197639137320414
0.0243535574222738
0.0231337971503436
0.0175655541177736
0.0206835304853872
0.0236450689101317
0.0222966144336109
0.0278969829063928
0.026432186749843
0.0290813517442052
0.0241777764001066
0.0277433754102367
0.0274651452153803
0.0279922292007724
0.0239769078436124
0.0264389424214278
0.0288773946208413
0.0317790850645563
0.0344709950734357
0.0285116783167495
0.0298346925177571
0.0327801084073818
0.0371045073849271
0.0285050126781183
0.0314145707430365
0.0428799354526832
0.0392928500802302
0.0328519862646533
0.0217348623933537
0.0309111418483537
0.0331335430008986
0.0335912830444447
0.0419921325791596
0.0419033755332161
0.0428493441907642
0.0443802739800564
0.0482614351474486
0.0421413332626421
0.0385245513104117
0.0447533200405347
0.0469580466786664
0.0540651658874821
0.0480791001775165
0.0524819619250015
0.0448256304296785
0.0510645307680534
0.0600549328299829
0.0519905847876274
0.059182074499233
0.0631307414203604
0.0543432723322086
0.0637996820998039
0.0541965982421586
0.0700344134915456
0.0574058474178767
0.0662747649005137
0.0596349297576408
0.0705732424825389
0.0702995507700311
0.0678146748204104
0.072922864932641
0.0782472950284626
0.0690803976916997
0.0885985847484777
0.0755996302017549
0.0834906843381427
0.0838822216494254
0.0937877245583089
0.0896855064088308
0.0899380894487866
0.0882854660994264
0.0946947850540647
0.0904925344324617
0.107253126685958
0.10128617870696
0.0878928584545777
0.10462384428058
0.102435893279443
0.100851650221167
0.100248235047134
0.109587538583116
0.108907025464928
0.1167444330696
0.119279777518114
0.108074381785183
0.136752676109738
0.115536668432608
0.123055743700306
0.122400044731912
0.129426846171643
0.136129050131208
0.129642485685009
0.138077459523378
0.14083465191799
0.131573933860188
0.155370822096721
0.15085533444452
0.134584020042465
0.144433310691389
0.151067212663509
0.151520396923789
0.166947408287046
0.150978626617722
0.164692745762332
0.146687481591357
0.168737006594067
0.165315249312322
0.177327143837549
0.172479782949717
0.181455322114551
0.172371027433177
0.180818467983598
0.167940652486254
0.186317358993151
0.185429405113931
0.185790524222931
0.205506623067757
0.188592701173869
0.196736634854072
0.184537641318936
0.184723434700559
0.209099969695248
0.20190487522625
0.211434134582708
0.208562270470282
0.221829194277974
0.227905703581135
0.227393526348954
0.228444448457747
0.227735328888063
0.2230197140328
0.238966644930041
0.230181349154327
0.239837266674107
0.227224671816672
0.245553060749096
0.247586800937304
0.254511861629292
0.271892371400815
0.278075807873704
0.265290445954015
0.244235357922792
0.257538110384965
0.2664080670024
0.265677547886414
0.273274431612305
0.268070197235005
0.277464368643526
0.289850558743367
0.298581935902825
0.280967437847814
0.293862561748705
0.290447746392099
0.308988729640588
0.291914982316618
0.313453433988976
0.285562412829429
0.326718738366062
0.308880970865562
0.330749782538621
0.34285351608573
0.352304096780658
0.320049755638572
0.354051211459118
0.330973280552896
0.339384777047624
0.337085416915093
0.370898159307276
0.349919532484026
0.369802515125829
0.3489846008638
0.390206167363562
0.356340229589623
0.378856124308449
0.385181743931275
0.368282947355403
0.39350706661349
0.39616258930509
0.394581065916371
0.400532456012829
0.394472702325003
0.434356102477628
0.404287061354461
0.420898734055628
0.417191579948124
0.42261598181764
0.403910497503701
0.42723477688439
0.417208252303069
0.426704996702748
0.423617893798821
0.451233174459019
0.422597186778655
0.457294617055588
0.431726438662012
0.470720309166827
0.438368953656508
0.477879821654047
0.472715660901647
0.502300611174092
0.494744362536351
0.4940815058063
0.47596146927987
0.498003560793002
0.484502281706495
0.513498367176219
0.466344095847472
0.50848554611628
0.502519128305912
0.51324339124293
0.507284405582363
0.530413300000233
0.494637635147857
0.563570853004661
0.530879242318531
0.555845565785677
0.53620281168227
0.568909001898905
0.552057577030864
0.583980639321001
0.544922469482669
0.585382306482389
0.570307852638666
0.586388494475432
0.536973970883455
0.60751750744784
0.568211457462381
0.581657095715448
0.580046687700935
0.632608645273757
0.592241513045319
0.632810543911031
0.598285639591018
0.612273182358655
0.620715648360363
0.64899092372808
0.608641582932496
0.623706632298685
0.587636264478406
0.655323051505633
0.609244171764619
0.650684805953095
0.628482161785966
0.648400702574885
0.609942139832986
0.696987252294372
0.634563822104506
0.699571810006379
0.677966726060773
0.677517042100958
0.647998294134368
0.724413381749587
0.676416837829559
0.710139367787648
0.669683925445188
0.68452376890646
0.677663516295629
0.714930233103397
0.701543117888643
0.734676988202597
0.720936518733857
0.749606288255722
0.706499829678052
0.813327343885773
0.721409276772081
0.73484142338987
0.706382789387527
0.806868819609873
0.739472618862758
0.787269427524635
0.728314496900452
0.768287452084028
0.739566804452409
0.803229691163102
0.784901649226486
0.785366099275696
0.723395258269345
0.78488754393913
0.736131278114222
0.789982756909864
0.774869249584178
0.832747444066978
0.798637723329206
0.884035717300856
0.768864559919189
0.815758916454357
0.746129953508901
0.810940708261982
0.811487923030067
0.892384238637366
0.820380581496829
0.910946776417134
0.79821626793594
0.826262726651059
0.814564497538085
0.872527190041854
0.872485755029918
0.843819011921694
0.806257278028353
0.866844810116838
0.862087655495747
0.945010480212448
0.898605227586349
0.904491909635445
0.865720640860866
0.940081674954311
0.851504899632769
0.866242391641847
0.844871862364752
0.915635779754078
0.852227743539757
0.894878730192371
0.888909160959076
0.950226727789586
0.879649986949094
0.925752602878625
0.863528591424965
0.895528105447329
0.896584218015198
0.939480368685176
0.921245389893754
0.945952396912896
0.909910221445108
0.961251701931325
0.885413155226855
0.944427050347062
0.93614108303418
0.97491344755994
0.893574540058872
0.99743325078455
0.941797667997144
1.01135137817174
0.901629723968512
0.96508816158075
0.94020366924554
0.991824466677722
0.957053577278683
0.999158944311148
0.931183190907291
1.04752876334694
0.921780234002073
1.01198301997631
0.920935974691246
0.979158228722273
0.95857562365653
0.966445060912535
0.881671295622504
1.00205535878446
0.951386810431689
0.986453353401756
0.922106015710798
1.02056471721493
0.974481197414579
1.0249970733864
0.972416166094726
1.00446430899517
0.986179467466202
1.00608358823351
0.982442707594203
1.04376308173193
0.993814444894047
1.03381023762978
0.969251266131893
1.07262357794997
0.984205832884507
1.01182256099103
0.93184101208416
1.03297840136116
0.982771081429712
1.06094984267863
0.969616685330288
1.00298299797204
0.981279826688327
1.01197873728049
0.964798915674572
1.02004977064369
1.0019982848183
0.999425046308271
0.986916571562095
1.05125181794859
1.02779831751106
1.08697727908191
0.968567654585679
1.07283494846678
0.999962923189156
1.0464742385899
0.975577039698277
1.0174741395905
1.05089708917236
1.06263856251732
1.00636529208803
1.03348172777473
1.0232313951823
1.07989009318882
0.962332325381922
1.06745795960749
1.01675567432043
1.05665056471692
1.03563978578082
1.02936711884695
1.02533625528259
1.05460663893237
0.982313345571477
1.08647166048858
0.993440775896472
1.02164254027758
1.00091427120823
1.02834292627913
1.00773357539574
1.05719414642443
1.00146614493001
1.01745383877768
1.01234489643972
1.01433907750813
1.04688764479542
1.03076357108956
0.972315532756396
1.01903692648645
1.04407532632069
1.0517565099039
0.99454166552658
1.05537571512138
0.97836804860009
1.03653233194688
1.00833815023997
1.08281396673321
1.00500082042076
1.02382549099565
1.01162299934106
1.06688376555761
1.04183793943135
1.02789635439586
1.00502225890977
1.01785031687294
1.00784800239397
1.07019190116265
1.01663601239759
1.03593094514638
1.01902560814278
1.03787489344918
1.00510620362594
1.02893441069607
1.00771563384713
1.05202628428531
0.966373078647964
1.03700495135501
1.01586199317556
1.03571034758603
0.99637092859853
1.02387549960566
0.983421402431375
1.03065375402807
0.997466818818319
1.02979186972242
1.01141759590918
1.02567008931544
0.980762032635549
1.02043507011689
0.982464421992343
1.02614485779584
0.994301033207733
0.994573929230537
0.995630490040476
1.02306814667906
0.981003430867877
0.972548588760472
0.964518511672841
0.998186592958443
0.9381112423016
0.97533009952043
0.967409602553692
0.980080958852769
1.03130481989699
0.999439514980326
0.94452428941339
0.979937581826432
0.980458413265407
0.959110689553162
0.941144507464652
0.99385892537164
0.962487748906734
0.967571407596868
0.921104409025719
1.00155696757148
1.01688373060882
0.984944714511953
0.936036129444899
0.960354150380792
0.955814180294286
0.965652393573937
0.936284809334082
0.972603254690908
0.925951409094158
0.938704703240644
0.944482657641917
0.945351860711046
0.921957903189324
0.925406570910616
0.917745909499591
0.958774001071112
0.924238858378272
0.917342876419609
0.892918329384666
0.949165562151902
0.936784026550228
0.94189270620609
0.916606686553836
0.922735036834426
0.933343602466283
0.891347018109857
0.899131838705765
0.899417808825826
0.891927848045499
0.896696080407891
0.873325528415805
0.886782890264119
0.867855273244195
0.898050147622912
0.874646881725674
0.868394185596915
0.852972773568144
0.856164228863328
0.867354199469285
0.890013751026574
0.84524471793444
0.87247711954958
0.86185281774729
0.861267761578229
0.852530895974086
0.864489639480699
0.862994225935876
0.867938890100179
0.843131252757331
0.848072720114589
0.820027178558274
0.843884366508124
0.824902311724295
0.819100052318622
0.809932712566255
0.825920476056244
0.79424815831416
0.825738269649365
0.801846194287114
0.807438136717284
0.805089694166155
0.818107689488091
0.784656949392896
0.791998685433378
0.821307912387569
0.790077800516813
0.772025225773472
0.784480784840636
0.769259218321143
0.786545376186894
0.759274053660937
0.769784509777961
0.766561494667316
0.772354731353343
0.758348302604463
0.750680898424114
0.733793698669653
0.755345406624832
0.751158189420762
0.768949898988211
0.747033755352731
0.743696880532003
0.729732769225933
0.726547253517619
0.719591721266284
0.726680320894928
0.723561125682979
0.724061777422201
0.70455953486632
0.719526087782383
0.693982835207514
0.713723937140119
0.696683772892186
0.697222162915542
0.696958038923302
0.689676856120033
0.66709345248905
0.688680300105542
0.693223712613744
0.680938764763032
0.669715107578728
0.670419013975305
0.656124921773903
0.655336189800479
0.671899262107603
0.680065742770551
0.653098840690794
0.648763662625314
0.636452348165257
0.649400400770912
0.639820697870584
0.647908536767646
0.643380908145131
0.630315496954401
0.622333855456351
0.625918321196501
0.626111061061681
0.638674508095961
0.619483562138283
0.617425352152567
0.608635453498415
0.600962375619638
0.603786750878986
0.608880539393044
0.604239619007578
0.595887287936611
0.590576968026375
0.595860566951945
0.584569096436895
0.589248944059039
0.574538208868925
0.575979534414955
0.581293338841425
0.558249639030169
0.560384534108549
0.580252800134361
0.561631282618849
0.568045959828703
0.556704651692263
0.560815457331985
0.552952779064493
0.551588329492486
0.549829823312003
0.55143144899264
0.536057844426158
0.53642161836096
0.5481363014771
0.530908987495426
0.523206337038945
0.533660378077885
0.524712123933765
0.516825166472189
0.51691883972325
0.533769267212535
0.530817482586328
0.528094706517234
0.508228098272544
0.514640471692
0.515512423994677
0.506183605371335
0.495954249335428
0.506599025806691
0.505446273547292
0.497818077152441
0.495622939344942
0.495006268616543
0.486576239892703
0.482614850686395
0.478128240892549
0.485633009631822
0.481795624412922
0.473847204987211
0.474357306209437
0.481002580984476
0.473713440977164
0.473726655517499
0.464332424392482
0.459823111149993
0.463717699194427
0.454581810550882
0.448226966016693
0.458742584180276
0.455335058236707
0.458157747499161
0.453281831148327
0.449575887139518
0.445413843103225
0.439999252820184
0.440913227940933
0.438594611022924
0.421640741464211
0.428910879663315
0.437149886522051
0.432242396996537
0.430191135442143
0.428949504639597
0.430751792135543
0.423261881311418
0.418708459248556
0.419249229581768
0.415648378345654
0.409876565049931
0.413292463263511
0.410588851275474
0.400374970757999
0.406085905856551
0.401535649395721
0.398945900572544
0.39946314587346
0.398745368079493
0.390923817767323
0.397233790170333
0.398982412006729
0.392244741582627
0.387205742519749
0.386676889079322
0.382902101454839
0.382771220540098
0.384586001529042
0.385590156465368
0.372014876273565
0.37326894161536
0.370269685979642
0.364855476651907
0.372320581901768
0.367069882737213
0.363432508553059
0.360348319383986
0.350947428012195
0.355097963745748
0.35192881190716
0.353306118961644
0.352232263226751
0.346876632304438
0.349500973730098
0.352228564914967
0.350534749733673
0.341436757104296
0.337675583161405
0.344133994958053
0.338776320645731
0.338262761178539
0.330840645315575
0.332650057235967
0.333699321101462
0.325783183873412
0.327928966163907
0.325555779154528
0.321993334827725
0.327608377816818
0.325821776046782
0.323759027111321
0.321192204473222
0.317053199919841
0.318195110739892
0.316346967308475
0.312217716390775
0.312440905025207
0.314541612718074
0.312411463241655
0.309849103403958
0.315169131796094
0.311134219290425
0.308906695206538
0.312715225660189
0.303806758321093
0.306081475904458
0.31015609458111
0.306652599579601
0.307696297779767
0.307243064801446
0.303332842262855
0.30417523725895
0.305620825088165
0.302297622324473
0.307485703249896
0.30794656334327
0.309694601850145
0.310635026667308
0.306895867916701
0.3075535062955
0.310989748739945
0.307703366424693
0.309397966493616
0.316392431226614
0.312586370989298
0.311122163146201
0.319825401741605
0.326998280649193
0.320734498116147
0.314883652415291
0.321227433367726
0.327827183362014
0.32712373965618
0.328620375936494
0.329762111906306
0.333757151629736
0.334905892605871
0.338292842330183
0.337357670027502
0.33867079939027
0.347497782321327
0.346841047433842
0.341409821838234
0.343056798109325
0.347993286473045
0.348553779980787
0.348575718554771
0.351640709596695
0.355089476837451
0.365194921639672
0.362966782717212
0.36835573528242
0.368922309454182
0.36378791301771
0.372501035129511
0.373070202022526
0.370986660182506
0.376386193790026
0.374329341272186
0.371236760686895
0.382670875286783
0.391799758215399
0.382646687334775
0.391119725190418
0.390519479339059
0.388545381649041
0.40233069939654
0.407717113844537
0.404694185158901
0.408035465654322
0.417032339542903
0.419679150213425
0.41212273340195
0.421658147828309
0.428670132892753
0.426347301041509
0.425762187774901
0.424601007712164
0.427099257182649
0.42991249004716
0.429873987843641
0.435890091720845
0.437033841411625
0.436031189512482
0.432871802232228
0.439968632177615
0.434403400419498
0.427450755029105
0.438244738466714
0.434929073283129
0.430749368011358
0.431284626690808
0.43245156178838
0.427487972093973
0.420841367126866
0.429119732191624
0.432024708699257
0.43141369936099
0.426512393804378
0.427828341640269
0.422922304736763
0.420205593253631
0.425419065698527
0.419205100352979
0.422790449123193
0.426176467528232
0.425204103872112
0.426726491336996
0.430337471729657
0.425684779220966
0.428854703014062
0.434719693475487
0.427377470784735
0.425541998495892
0.429085456492318
0.428624108769365
0.424190812288543
0.424281933304058
0.429654618698077
0.432212151000825
0.427499988934275
0.431492380904108
0.428578247835333
0.433518916303677
0.429110988590362
0.431185685565393
0.435912616104955
0.4309229014511
0.425241582076572
0.426169143853725
0.415326952553741
0.425850196971131
0.422572242502244
0.422005094004861
0.422027481068607
0.427275814437827
0.420505527595558
0.416727178175112
0.410904504412389
0.409120416718368
0.40762538340125
0.407393738058761
0.408989477490435
0.402571431751952
0.399477194429063
0.407519592918502
0.400388450234455
0.39062762450398
0.385065091174771
0.389953462047681
0.388449666309243
0.381280126428861
0.383604050123989
0.384399847024369
0.375585057151162
0.366151417884931
0.367856043616422
0.370959928273785
0.363654568055301
0.364754184640318
0.355579816568814
0.358069961718673
0.359398077218133
0.351151838966454
0.351124737761885
0.345148408822692
0.344112406580991
0.337309199866375
0.332402721502779
0.333861220376144
0.329844942474606
0.329360807217288
0.327919717528274
0.327278018461559
0.320877920775969
0.321834261253819
0.315994056241012
0.318481010521301
0.319492895227362
0.311218331004781
0.308065099538333
0.306917520618037
0.308707577216071
0.303897207663428
0.294378172418986
0.302264937572229
0.300067278022519
0.298245309795884
0.29931601331244
0.296780575417324
0.293542715433317
0.287099015475674
0.285520722412976
0.288283442337947
0.282962165549152
0.279586552120654
0.280937851584577
0.28403479596634
0.276760118991402
0.279494912324521
0.271582761595611
0.270694776496681
0.277760200716606
0.276008840154951
0.268193257699473
0.268336445843564
0.266346396553331
0.268475846260785
0.269092049891925
0.268556919873761
0.268169081079752
0.265902868069179
0.261972481573523
0.264611269194041
0.26017902697848
0.259528713154918
0.264502270669796
0.261868848945996
0.256707028902722
0.255489561535997
0.256991725922087
0.252201366916597
0.250545238079595
0.250252425937807
0.249250922927765
0.250080292430543
0.246871828063958
0.246196880090315
0.248414779424128
0.246969692977252
0.247389874743269
0.244698476614057
0.24352530851936
0.24061685077177
0.23889988080866
0.235871189433736
0.236987973462558
0.234046748409569
0.236700360392671
0.236218539504974
0.236925410329719
0.238098225147892
0.235337659114596
0.235706544043149
0.231855965654008
0.231164837459822
0.229479518422589
0.230366403060246
0.228648862748083
0.231607900403146
0.231015381485043
0.230471872202606
0.226371460086816
0.227670505819
0.223154813957517
0.226307659777035
0.224187374947212
0.223003827090859
0.224903897841239
0.225999808173148
0.217856222746041
0.217643902684293
0.218535900830538
0.221980399030086
0.21372406617779
0.217202587017495
0.217068324088449
0.215707818817199
0.216055462846839
0.216304633980321
0.219335418285404
0.217406634860685
0.213366823844721
0.212633087891749
0.213664219513788
0.216247923979626
0.211802532156365
0.210286821085709
0.207658362241114
0.213873279874144
0.210824277160135
0.210544585270491
0.208963105240423
0.210162406637327
0.207086885295494
0.213949498941343
0.207545409507033
0.206219994093791
0.211438861267791
0.20861243626048
0.206997050003052
0.207166629823952
0.208508242705747
0.210009333773971
0.210030176965448
0.203597304541833
0.198717068299805
0.203022342840094
0.203724856887159
0.205950183576484
0.204290157817016
0.202768912160425
0.203909355956963
0.203114386199228
0.200408596405855
0.199896537408799
0.200651610608197
0.20279443719686
0.203091288341059
0.197094795905522
0.196792815035604
0.199225803028112
0.197752435154644
0.197402471587363
0.194014854428418
0.196941854142151
0.196916287863562
0.19556896295614
0.19692274812468
0.19599085967146
0.192200730280107
0.190079257955327
0.190470019553164
0.19605096584881
0.187939147523911
0.191279041821452
0.185429428293343
0.187877243639689
0.188400825803237
0.191040570625774
0.188872584548997
0.190568401953642
0.188794750271129
0.184719123920907
0.184515590142034
0.186513349438916
0.184408844965384
0.188665768793478
0.185233245653155
0.184961232193897
0.179948885981037
0.185459435997692
0.186110154453926
0.181967839521249
0.18233940055012
0.184046843752411
0.180672784755945
0.175097561475325
0.17678800534968
0.181804052731622
0.180266455028271
0.178081450315253
0.175120773608517
0.178232456252054
0.173333922964963
0.177051491925951
0.176603280703979
0.175712035116572
0.171491831437389
0.174581154773574
0.173067536490767
0.170221591514548
0.169539060074958
0.166831596313424
0.166554156122034
0.170261583181611
0.167681425501527
0.168160549931107
0.16785572827709
0.162450304167658
0.162439874618294
0.164476741523344
0.163459535918976
0.162378120150755
0.161139575002487
0.162967614148794
0.158669117385201
0.157135992978084
0.163161383305302
0.159992249540576
0.157827753672188
0.157211783025348
0.151720992918633
0.156484742080662
0.155767882899338
0.149859309888261
0.155731960071804
0.151733716603061
0.156159450987971
0.149185452339558
0.151593469523236
0.150811259005746
0.14747196302564
0.149960942231745
0.145397741345345
0.143106613672928
0.14610532923504
0.146722783041843
0.144679870156978
0.146319235083399
0.142269537121454
0.140159572474004
0.140220281653014
0.142403294722922
0.145279914530644
0.141218993600851
0.138593186288394
0.13924259531305
0.138388064403131
0.140836348040446
0.138856407272838
0.1371102520376
0.137016268127236
0.136826983076787
0.135123658162371
0.134499507098153
0.13200534956041
0.135211231384193
0.129675378575812
0.133973018836313
0.135747337349879
0.131537014502103
0.134211163373409
0.129520511387251
0.130244717731381
0.130882078717512
0.128075935027912
0.133215858653555
0.128782244779835
0.130874771863345
0.126379301145209
0.12551416781686
0.127102129262119
0.124974238007451
0.123404055324743
0.125904827582525
0.122988656401333
0.120994095837511
0.122994395206158
0.12260645882409
0.126627609379256
0.125677284958241
0.122265772815233
0.120565894880053
0.115348578149807
0.120199174313791
0.120471198993273
0.121064343404714
0.11678855530975
0.120798109266531
0.119389503833375
0.114234879076627
0.118479702558134
0.118487011971441
0.118298128480242
0.115987562967449
0.117215744043244
0.11860745608274
0.113283778780602
0.115581210430312
0.117061226489086
0.115006467430099
0.1170677874072
0.114131679623412
0.116870589431306
0.115347393989678
0.112335316565856
0.113340071254883
0.109793108870772
0.113486849997959
0.111529308985969
0.110568383629938
0.112054970171979
0.113858755758175
0.112697481332789
0.109939179477833
0.110284757573348
0.109753571323839
0.108059310179828
0.108870040177244
0.11019907145271
0.111062380622908
0.109767957709372
0.108071894401114
0.108231650540981
0.109535930212415
0.111530881807797
0.105312309769801
0.10625614110381
0.106970201158674
0.105601327386555
0.107691316382802
0.105637345809948
0.110833281290623
0.10331437255089
0.103061363335042
0.102578282240578
0.104799273676557
0.103117706929528
0.104701489217119
0.103988299191891
0.103632330924209
0.101232726937256
0.103609027171724
0.10296695082488
0.10381184693774
0.106022154667241
0.102922578779519
0.104701656754241
0.100921286381006
0.101012462140011
0.10157186593434
0.101803056938798
0.101605072598722
0.101293358370259
0.102375279434454
0.0993653554159603
0.0997066047855971
0.0938973188152155
0.0990955794524412
0.0994806985850368
0.101290747314023
0.0969181201857832
0.098397435287188
0.0982719918710586
0.0998996142116083
0.100279003881494
0.099675434524197
0.0995824801196401
0.0973454255681234
0.0987887631225669
0.0963315368761378
0.0946176945248043
0.0953146323917514
0.0969548183359208
0.0964785582729024
0.095605033475458
0.0979437149406938
0.0936499322941283
0.093630905380382
0.0935427478621905
0.0940165611988432
0.0904842063970499
0.0927079497124339
0.0903726368143333
0.0964418254197212
0.0932823989118361
0.0952906362324884
0.0939172090131631
0.0945792551280184
0.0912948086275738
0.0919736860804857
0.0921252293019057
0.0903955704370536
0.0917961814813834
0.0899096903534454
0.0911645296752065
0.0924839367087527
0.0886026866306576
0.0903161483040488
0.0912320931511439
0.0903093647692168
0.087468959181484
0.0882569651381315
0.0875055767199939
0.086246296188763
0.0888563497007901
0.0877027641310768
0.0855985785540572
0.0847532033593069
0.0837594309162596
0.0836242518791303
0.0818949556962035
0.0832867786605577
0.0816684537937326
0.0808470596702868
0.0854256672709135
0.084067974391361
0.0832668606865933
0.0801972075419307
0.0766192942210331
0.0818777803396077
0.0824520564226704
0.0814967204694089
0.0763040066729151
0.0793550704701263
0.0801311693645618
0.0757621909503815
0.0762570977856405
0.0778736512113226
0.0791679394284232
0.0773557912199315
0.0786178504932492
0.0786717750022813
0.0770678636181412
0.0781425448091718
0.0756971824741549
0.0812428514064669
0.0738491072011482
0.0776839371730102
0.0730020480081958
0.0743669737780854
0.0765911473223334
0.0744831144578629
0.0719899135310739
0.0726782722591462
0.0750798950184788
0.0697291700996908
0.0737878180882012
0.0716049898534242
0.0713569536292304
0.0696446784389319
0.0694288278608065
0.071134738233838
0.0704240313103705
0.0706520343000134
0.0713182258407863
0.0674703502833546
0.0688495121236927
0.0698742593963033
0.0689548356892474
0.0675930716985628
0.0666985286556133
0.0709293285294623
0.0660183932712082
0.0701114270334774
0.0676061377452586
0.0636135075814965
0.0662321748326369
0.0665667420524844
0.0615719568237058
0.0633129019295039
0.0659432396935914
0.0638179589435702
0.0645329177342533
0.06507105181619
0.0609481297720074
0.0663922472537642
0.0637953287488061
0.0637592440399423
0.0656082413228802
0.0606070489053847
0.0631710251877413
0.0641316422412899
0.0656978475753093
0.0631069988913133
0.0605071608850145
0.0600442879225784
0.0612759445669349
0.0597328394554834
0.0617244190949872
0.0630277498782701
0.0600293558245607
0.0623262781546009
0.0620921025876021
0.0593583698575106
0.0609094390308899
0.0584911454746437
0.0586350425770161
0.0597590356714373
0.0612076935685921
0.0577202263098807
0.0581532885131406
0.0578646264176352
0.062174697590988
0.0592941771871707
0.0573042541376431
0.0581407556113673
0.0574698563485756
0.05776860530945
0.0580409270790202
0.0593128207720968
0.0552514404031933
0.056419039787271
0.0567443153555489
0.0600295124222929
0.0532075221671465
0.0555352897464054
0.0509698847696583
0.0564394123596788
0.0556256834670987
0.0568644769257378
0.0596217866753481
0.0549487158534729
0.0517891191371384
0.0573201977634724
0.0548314072996883
0.0550953828467346
0.0560284918013839
0.0567158803376733
0.050753473092253
0.0532829739341618
0.0528323426916269
0.0547574529303848
0.052561469246621
0.0514590541463818
0.0485874266370041
0.0541910262789049
0.0545940261494156
0.0565137824840688
0.0510147605410676
0.0528075286813448
0.052957093069445
0.0514221953227057
0.0539800748357775
0.0562147261657525
0.0555577315790299
0.0502704104689915
0.052767477437792
0.0553184159883284
0.0497293095887424
0.0508340054256304
0.0538902647734703
0.0498372128529553
0.0565361360006352
0.0532585444117358
0.0574617656827095
0.0551919563632332
0.0525277570462809
0.0513057648892662
0.0521184094783735
0.0484570257770136
0.0546274571699701
0.0512297153730059
0.0532524865802486
0.0476721940027406
0.0553508547924941
0.0476307181616092
0.0555329151111233
0.0486924000836149
0.0555965428841081
0.0491005530446323
0.0535611543576152
0.046238131142737
0.0566099468713249
0.0448778200248181
0.0525879993809305
0.05020379092267
0.0500454769318606
0.0494726827600502
0.0517017620893437
0.0488898478992252
0.0504556645965258
0.0526584034762857
0.0508477998796259
0.0483951792865691
0.0501578575707293
0.05036206086463
0.0504416887312307
0.048163765526885
0.0518170318807182
0.0485396512117319
0.0469706589314236
0.0482697960770003
0.0505915162913018
0.0498168362892091
0.0496626307085716
0.0469039049705551
0.0474538653367636
0.051762406485092
0.047857488021548
0.0507894385442177
0.0517021505245512
0.0485703880647997
0.0480170082392114
0.0523837978815067
0.047919807926015
0.0489510595207089
0.0499444245547892
0.0497084457108705
0.0497103377940051
0.0484091323476924
0.0498857740167958
0.0475788236869213
0.049007662539195
0.0493652560187686
0.0506308999559992
0.051906611636674
0.0495001629938665
0.0504459813543634
0.0482968779122893
0.0469634909888616
0.0495850898247076
0.047314614498384
0.0502915734918462
0.0506166414236058
0.0488716487699883
0.0511772237914169
0.0500445357616223
0.0483253795095036
0.0497489134451681
0.0512759297181273
0.0495401252887687
0.0487637288191843
0.0498626425826414
0.0506742878083461
0.0471613571371236
0.0499252520626359
0.0477558080525446
0.0499969346091782
0.0521303022814215
0.0495889944488783
0.0509940697377482
0.0494257084523569
0.0497951563514381
0.0486557420601424
0.0524535177300716
0.0489092742123651
0.0490283405441881
0.0497886206832584
0.0470088000171699
0.0501062502278982
0.0500427859129418
0.0507255473931324
0.0505477596705577
0.0492034528654511
0.0503947882570401
0.0515794469427127
0.0486781893537846
0.0493399187522772
0.0481048329586296
0.0484043231746664
0.0493219655915593
0.0483013035803006
0.04861873910432
0.0511552033163535
0.0522908675763608
0.0512481910761882
0.0489318212109109
0.0517402334972415
0.0511430138721649
0.0490917331906899
0.0500370564126844
0.0496572071089513
0.049025915450131
0.0503479770701384
0.0527769080782756
0.0505188398145664
0.0496266526312527
0.0485954986372226
0.0506745845016059
0.0518210927719274
0.0520107757103861
0.0526315096122446
0.051305853704234
0.0517727761684053
0.0521348455105116
0.0506373552502281
0.0503387540088471
0.0526964004249211
0.0502182615977161
0.0505198316032827
0.0511832543079854
0.0519286632249324
0.0521352723159271
0.0516240570955525
0.0529466728690604
0.0530251831349244
0.0531097473211458
0.0532874507836506
0.0505875624919082
0.0494254254282294
0.0533940723537676
0.0519494915662313
0.0530661417721013
0.0503126768785575
0.0537540466157374
0.0527283707795117
0.0537422151113215
0.051402706116345
0.0515845787620055
0.0513981474210385
0.0512692435931036
0.0523306191172007
0.0536952592737357
0.0555549948198157
0.0527913841478516
0.055663211654237
0.0526186717327221
0.0543007789963783
0.053920908037265
0.0541052865450839
0.0546319183117774
0.0518350233212908
0.0545475576973617
0.0542558681836495
0.0552376338655584
0.0543644506661811
0.0517905728134545
0.0546587661796287
0.0535428994019206
0.0561773108830551
0.0560584718496656
0.0527152340384565
0.0541713965865666
0.0540115721767445
0.0534066709356267
0.0560892326678981
0.0537590097089419
0.0561394431540819
0.0561155762857345
0.0565744127628313
0.0570252828984691
0.0565087207557199
0.0574653123312992
0.0537717832675212
0.0572647286361834
0.0552411344688463
0.0552762314324956
0.0572194206961133
0.05613863078255
0.0545186218522135
0.0559035053134988
0.0574080918387885
0.0528224047055637
0.0564645711745446
0.0571743448351077
0.0567916504118233
0.0557099989253815
0.0554556608624858
0.0563441695536121
0.0549440671249615
0.0573524644471171
0.0558928646161881
0.0552100184582216
0.0572903154657413
0.0562561221875601
0.0564625381007651
0.0530812618697266
0.0554525018314011
0.0540571454092162
0.0540455666890422
0.0532098711508966
0.0522754600944588
0.0536976771160641
0.0548654866044048
0.0539237586057931
0.0547821823906119
0.053248437790879
0.0539226943562796
0.0548750883909925
0.0554254699880889
0.0566384240123096
0.0546891788513989
0.0542791165134082
0.0555559499182085
0.0522357589112576
0.0526704535614934
0.0544274134535987
0.0526682010346855
0.0543452465254606
0.0531712637226075
0.0542825931535654
0.0537254051574515
0.0533327176917125
0.0554134393875533
0.0530471544036208
0.0535931576540537
0.0551331623491109
0.052211575439177
0.0540417040654196
0.0536979783286461
0.0536026410636353
0.0533442880677081
0.0543165531659349
0.0538525710775852
0.0528668573631039
0.0537283038599805
0.0530990995237259
0.0512621846893258
0.0522547187261422
0.051969080838995
0.0514997410792824
0.0510213422947726
0.052152247401737
0.0528323095866518
0.0519424351375034
0.0517159867503707
0.0511203420049017
0.0539392689895939
0.051715685855771
0.0522735052034058
0.0506194168721522
0.0533008718504157
0.0502095054244804
0.0527315263846584
0.051193500022076
0.0522541939889459
0.0503994434456176
0.0503725129392472
0.0526562671971072
0.0506070533895639
0.051054033618857
0.0509012909127
0.0503853268467918
0.0497614590047279
0.0510859981262177
0.052487151276588
0.0494343994514929
0.0512414768016377
0.0510582611247692
0.0516698882881242
0.0502592419056263
0.0490982770307123
0.0519939931276341
0.0503955548287631
0.0506950829810193
0.054146379373854
0.0505511973565561
0.0524769342452041
0.0528961908249408
0.0504829180088311
0.0520146153094386
0.0535154362456687
0.049842385320957
0.051739671367839
0.0507257377931965
0.049218584751625
0.048572752679212
0.0504069102295676
0.0503422653636059
0.050803097347035
0.0511015984712876
0.051622779849299
0.0503896796396912
0.0511066488755888
0.0512149497027874
0.0494369895977663
0.0510193909438379
0.0517060201598224
0.0481529705371401
0.0489500929421407
0.0495850437885938
0.0519146138433145
0.0514558908504125
0.0504637212434655
0.049234850421576
0.0488859579850062
0.0490074702799765
0.0504464844985895
0.048974611421177
0.0481007054010779
0.0477227299427722
0.0492058583063607
0.0498493815397825
0.0467625273120411
0.0477759571101595
0.0496980089508176
0.0497843295684874
0.0467346294802124
0.0448344870685604
0.0463915550368886
0.0471468217609853
0.0468762276373389
0.0464197639670759
0.0467088075798563
0.0475883390235436
0.0471546633485298
0.0464084207246918
0.0478269463529928
0.0463016864689984
0.0451747932678922
0.0467423540454398
0.0459590150163272
0.0471578352229469
0.0457358551855717
0.046065065802473
0.045990280387097
0.0461165199751444
0.0441904186207698
0.0414803113701591
0.0446419392300013
0.0441838740992165
0.0437302949896912
0.0439173779802896
0.046466271033065
0.0442550257796048
0.0441574894193489
0.0431911686256494
0.0441290493296067
0.042101371052086
0.0435221486027611
0.0432952650644115
0.043815591196989
0.0428100602200222
0.0404147103622093
0.0422586642879247
0.0430301653606566
0.0452169886471303
0.0425773342760527
0.0410297398505872
0.0406568105978008
0.0421157518899028
0.0446293183765247
0.0421594345807672
0.0412099463663298
0.0426890134760169
0.0429960827275401
0.0407819839018139
0.0408451090469118
0.0414194915403654
0.0426516470949836
0.0433756656024939
0.0424107615272104
0.0408940493299257
0.042259393472067
0.0422403359002778
0.0402885214131495
0.0423461842287518
0.0409037340405796
0.0404423074782244
0.0412051061346636
0.0404545089075065
0.0417441848491509
0.0421818956326604
0.0422953410498813
0.0407713027079417
0.0392956969150595
0.0425554681159587
0.0405859901079587
0.0414095208056224
0.040767033852434
0.0405298561155894
0.042520648262696
0.0419774277188889
0.0419585590048175
0.0401774328239366
0.0405292363314716
0.0381099995814722
0.0403350016789126
0.04204335367958
0.0387946838870868
0.0402796955310096
0.0409685322373616
0.0400057068828771
0.0417800193155441
0.0415650347166301
0.0402592422442888
0.0397602216838454
0.0424674523117703
0.0400894273580343
0.0417981982565247
0.0392408908083635
0.0393028925206173
0.0407492141891536
0.0402904214360013
0.0392707182320305
0.039586091116846
0.0393073326469417
0.0387732377190147
0.0388932829833856
0.0401656189003772
0.0383639548800143
0.0393221085884256
0.039504719727462
0.0396823417061802
0.037638194762079
0.0396259516007896
0.0371431624477797
0.0384432453282919
0.0399115428341636
0.0393764465371813
0.0392667347655045
0.0395955637275229
0.0380343740689179
0.0393956409323989
0.0384057367214302
0.0377100334652804
0.0389445335658478
0.0395503829690257
0.0382281181954521
0.0397552052563454
0.0402622251535961
0.0405432336326548
0.0405727640993812
0.0379282832903567
0.0386232893068359
0.0386773768699541
0.0397065975169557
0.0381867530383011
0.0379030334896783
0.0391465000153082
0.0372822250991029
0.038434538603937
0.0378171570391907
0.0375507005210667
0.0399308975734163
0.0398755339351864
0.0413834043259373
0.039819186561827
0.0394188524905607
0.0392387085807541
0.0372952422157222
0.036639279173155
0.0399673188299783
0.0399484835929874
0.0412116304020365
0.0371016653608491
0.0380531048087932
0.0390254208010916
0.0410965556032117
0.0388825417676361
0.0394724392841405
0.0401594699914857
0.0371844304450049
0.0380789258666097
0.0404500305131646
0.0397127957010883
0.0380431572207305
0.0391124067032085
0.0388654998772929
0.0385217366668196
0.0367010465397229
0.0366304190905255
0.0359294896501347
0.037684589367065
0.039076585350961
0.0387082898015678
0.0389938293224999
0.0392586464027556
0.0383211000984355
0.0375869670532375
0.0381272011066218
0.0384817824179038
0.039285971401062
0.0380168505802335
0.0397325662774468
0.0366131482371808
0.0390541163616953
0.0397153039908409
0.0387792853857069
0.0387816568188696
0.038691876475926
0.0383170830155695
0.0399253609669437
0.0398897609760697
0.0406127297141313
0.0398686842695117
0.038283724526261
0.0385085930604228
0.0420073839476949
0.0391995613087275
0.0392493776204548
0.0377162244606344
0.0419026728898287
0.0443567200889223
0.0366759374417423
0.0388064935433817
0.0390788786306918
0.0386974429623273
0.0380789128334479
0.0408125057191495
0.0403635630484973
0.0395010697536584
0.0398010289082101
0.0407747860382661
0.0382295020955824
0.0399346461847492
0.0400484932650698
0.0405571776406722
0.0416677841601771
0.0410461999006091
0.0408758835547519
0.0407687457437936
0.0397384355934126
0.0434144327468689
0.0409206348201307
0.0427933457972546
0.041375482431
0.0406174153031987
0.0428931110790436
0.0424859784901257
0.0418156728204844
0.0426150938434922
0.0419844729194067
0.0397674166134195
0.0413736010327399
0.0422580077241621
0.0423307843694583
0.0426190811772646
0.0433384589497937
0.0431904272068875
0.0418020902714406
0.043152630320888
0.0450118221470879
0.0417498489646545
0.0419917693225351
0.0444752086690421
0.0427662381686657
0.042658508527072
0.0464801755209634
0.0458943114663346
0.045746020262044
0.0438606354686011
0.0443400034009674
0.0438347722837502
0.0439424076587557
0.0455535400754605
0.0441628465102198
0.0411587878475757
0.0496581921251043
0.0454306840482072
0.0472416005945417
0.0447907653805765
0.0464800319920185
0.0457054654773055
0.0461567634930431
0.0472036795210747
0.0473564589346
0.0477921493217989
0.0480725988831402
0.0472263918561807
0.0444119895880972
0.0470099680786381
0.0457522304523868
0.0483900377795061
0.049820357736567
0.0502866070391034
0.0501492248387563
0.0516055478985958
0.0485616234750136
0.0521658069645394
0.0496445682404056
0.048348058843388
0.0505972107993757
0.0483251547519666
0.0539563070183206
0.0518138767064432
0.0493628422454847
0.0520306710544517
0.0516795539187751
0.0505053242573406
0.0494293071955722
0.0560389882288165
0.0554505107304609
0.0541182131924709
0.0535503044694592
0.0528908571876739
0.054872365848336
0.0574645190064315
0.0548433939344045
0.0558325973849287
0.0572028015623992
0.0571807387739651
0.0586197354192152
0.0605810692773565
0.0568762759054388
0.0636069293135798
0.0586409090132946
0.0615588330569946
0.0585546731714565
0.0593959506003898
0.0609093663238416
0.0653030953109182
0.0619629216412899
0.0635525589605865
0.0625393239066095
0.068256374784514
0.064352317531367
0.0692492164227871
0.0692023711621632
0.0697061998720157
0.0786056781252508
0.0784793406366185
0.072880352857703
0.0741942365024595
0.0749862624425262
0.0758854661571624
0.0752209691101366
0.0769601162555821
0.0797650671510185
0.0790678746677085
0.0829140422822959
0.0817636336265255
0.0807322043354131
0.0863847810294931
0.0851544224225949
0.086205906095548
0.0876335595862915
0.092835865633838
0.091559769050603
0.0938342526952494
0.0904167940180414
0.0897015335912658
0.0908634924589656
0.0937239624889571
0.0942996124160636
0.0939029191879039
0.0981585966812115
0.0989397509749578
0.100179409669593
0.101237133083073
0.10370713280517
0.103072596537675
0.105139676425389
0.113553614676007
0.108820267670119
0.1133362199096
0.114566655028298
0.138786332498912
0.126033674135343
0.121308930677486
0.133361114279393
0.134521848960298
0.144662330998642
0.140942235140147
0.148143866707704
0.15539353366451
0.160455459449556
0.163857169465838
0.168033507970614
0.172224475371939
0.181627794778337
0.183441742648831
0.188980429103438
0.197507051215001
0.220705719742646
0.209379145780865
0.213119469955878
0.214829453204392
0.227002496517229
0.233894786210878
0.239833316335495
0.241454656228889
0.248881745659081
0.254021770551783
0.276343851824641
0.269599887348552
0.275553115488824
0.282321707062673
0.294812182932534
0.295065053340605
0.309786277245666
0.315343451725981
0.313609895057792
0.318587104163423
0.327559653424494
0.334512405449228
0.341419248819836
0.356745673423078
0.358510374494838
0.351845636502047
0.362905179214748
0.363178364087607
0.368017874941635
0.375315621744188
0.373444589392099
0.379666073391627
0.393718865658481
0.410842231114259
0.420093431465388
0.387058084340499
0.387257203006096
0.38732960702632
0.392274487652401
0.400307114151648
0.400746719105089
0.394841307722657
0.398606248971726
0.391290918049606
0.390892245201479
0.390548745804508
0.396130940725461
0.389910627492985
0.401607068537554
0.395082158187173
0.394575930458227
0.393933559574771
0.392389578367865
0.423951882964885
0.396876308662591
0.39088195072702
0.388037470220357
0.385080562271035
0.392245702366655
0.387799094232136
0.393413500898007
0.39530386635861
0.379479470640616
0.377572266231142
0.376080979834389
0.372726509773059
0.367437663319062
0.358633917153395
0.358162123351438
0.354163068556768
0.350103482191295
0.344014144090762
0.370624581639527
0.362894324224988
0.342263803182244
0.334435983782328
0.33128857871356
0.328888678418958
0.325714861737601
0.322914181710391
0.324126394275348
0.316354831559928
0.316415731858192
0.31694867221533
0.313153046704654
0.310160598140155
0.313744224036332
0.306758400785134
0.311418320849337
0.306308939771149
0.307642514755986
0.310496639001921
0.307424376487288
0.303357163693779
0.302163119594937
0.301471941879499
0.30202465024685
0.300515574705339
0.300435542579913
0.297592594869704
0.297593040682667
0.295769996972481
0.299292130695009
0.297600721662894
0.300649785446649
0.296477506188186
0.295532104328048
0.290722478540365
0.292012228684561
0.292149317647063
0.292687741574501
0.292491918767507
0.293357364046497
0.287775564440677
0.286773373535713
0.286105693112019
0.307973830793224
0.295955152637846
0.28314642234523
0.288252919104567
0.285445655225481
0.279724788882006
0.2830301204398
0.287625674394376
0.279271327117719
0.274223105546946
0.273456857422113
0.275542696565696
0.277204577594888
0.270127478370411
0.269068589560245
0.269320173447117
0.268461786560884
0.27169448657601
0.288881406107069
0.27978442393164
0.271886678467665
0.259446055118161
0.261677737730191
0.271543337637795
0.279869616435745
0.263432897448815
0.262523450901381
0.266781267878611
0.2703645578477
0.266344293435781
0.264173494076839
0.264547194715432
0.264294105222137
0.26688296565353
0.264524626849674
0.257006254698601
0.272014486622115
0.261196289728907
0.259627126049544
0.263676069047123
0.263229987087094
0.253320793676998
0.242805212966036
0.242105990378695
0.238598936542174
0.250665869905815
0.247877540287071
0.241058446646246
0.238140632162405
0.235414433822409
0.234129298510971
0.231371710001946
0.230433630509998
0.227112238122019
0.229264959794891
0.224497091904363
0.223788382707951
0.21976471737993
0.224037796670987
0.229411125161244
0.222955713874044
0.212414003731281
0.214859901353863
0.220345189024385
0.221682673280461
0.210326183052444
0.209038498805181
0.206791076236542
0.205978172529321
0.208471532416651
0.202785068023603
0.202352957933096
0.201829608314895
0.195982409446703
0.198252372223288
0.201057582210788
0.194347853085349
0.185861088312524
0.187035207662898
0.186291743225856
0.192092308757486
0.186959850773337
0.187542480858713
0.191103491000064
0.189756087847162
0.191185411878759
0.198303287985256
0.194931359293445
0.189247893971968
0.192123334473545
0.197225295712334
0.195182130605682
0.20656215223614
0.19683257879339
0.204531296500908
0.200562856772436
0.209066845020713
0.207504467976306
0.21016883037594
0.21158647444814
0.215351321684022
0.216881450279327
0.227761589314871
0.228757646963022
0.227719478837298
0.24015079648274
0.243702959916469
0.253622753340159
0.258068983593335
0.26104109578026
0.25816812491112
0.271554160823126
0.286562542687234
0.281249155098872
0.283235492355762
0.28605335518461
0.29303993847433
0.300117936383753
0.301773996654885
0.309207426481479
0.314633531314828
0.31167259087918
0.316950984625491
0.318265332987123
0.324000227301386
0.326990526846523
0.334994609267487
0.339242046182824
0.349464712687698
0.343493394962945
0.348216779444625
0.339593691575322
0.339921133594307
0.346244777212316
0.351698055169156
0.352194602750718
0.355787063850625
0.35266169300229
0.368601652791153
0.356205575879749
0.360327219327942
0.360576852779315
0.365742035502784
0.365124238714744
0.369589332443797
0.373884660276008
0.379012227519562
0.374747146014304
0.377360680489718
0.388110767957368
0.406507916872899
0.383547494871236
0.387866736466499
0.394236227500633
0.400118455163017
0.392322743058539
0.399703451045108
0.404909017539381
0.408658793140825
0.40652550974984
0.413169082564064
0.412635589181916
0.412545336567184
0.416178847961269
0.424552937813224
0.424553610928636
0.4215085639198
0.427224416907112
0.455220069118944
0.437597699505613
0.438164867882751
0.431082126292795
0.437906043898371
0.437292922653007
0.439397557600314
0.442220407737506
0.444067268514668
0.447228141368794
0.446702774221081
0.440963256947839
0.449155893379591
0.442104421145791
0.447652004654171
0.443699274726265
0.449743465902259
0.444069883735716
0.441650979264307
0.444106600408725
0.439026733221937
0.440156767621765
0.450505326235289
0.435017991307519
0.441839527885405
0.434498302182006
0.439548141896129
0.445263325256438
0.442755079926338
0.431595954750657
0.444662862396523
0.439878567779424
0.448272887763531
0.443084716908447
0.442168122626811
0.447915821552087
0.45088473953167
0.446983839243002
0.45336806668375
0.450974114780339
0.457783093783903
0.458534235953869
0.45991724454914
0.463268552478313
0.467010227935548
0.460200762965029
0.465817485496279
0.461587260530858
0.468125442997219
0.469171659636917
0.464411615056923
0.458543117068938
0.459580750415511
0.460354633447778
0.454379857488332
0.456214615308282
0.455800625716361
0.445766399840674
0.451249349365838
0.44402663393282
0.440734896745378
0.436095957196957
0.434115283369613
0.429980141668927
0.427808609204911
0.426061855028504
0.421234612138074
0.417770457404284
0.416866253516383
0.417002275652689
0.416046145888175
0.406300850528157
0.411075617448811
0.407018999078604
0.409682394558103
0.401439366720258
0.399530599600732
0.406678886653398
0.40359926727917
0.39835092867991
0.401281287313168
0.400239008868798
0.402210344045601
0.398975078131754
0.396413281389333
0.401088781797186
0.404774130596796
0.398149297215516
0.398951957320762
0.39845874027045
0.401022890071296
0.398643529358991
0.399475045453157
0.391375149404016
0.396994588775405
0.399400557926965
0.400583063036104
0.391648922988271
0.394364350796388
0.397752172359732
0.397308907293119
0.397040351919455
0.396487515386156
0.393907981922716
0.39923637646372
0.392225919708985
0.396062147920496
0.392980652376765
0.391704804090013
0.396858386622212
0.391061979384443
0.390726470718559
0.392357636599185
0.387566167870742
0.394077065784837
0.396867179376836
0.393088412532979
0.391151134799061
0.394520586949802
0.38848687580914
0.394264036834701
0.391460155377309
0.387221508816037
0.390365761588209
0.387027804901896
0.38476225298351
0.382190663210464
0.380756513289482
0.376636810758643
0.37453186171127
0.375269497185896
0.366092609572459
0.367334845483488
0.364198647087292
0.365133544015556
0.36130605398921
0.357309104233568
0.35767211182485
0.354050920180141
0.347823844478683
0.345690028767443
0.345849718146952
0.341566742076686
0.341221884653801
0.339406817025162
0.343490459306946
0.34067238286647
0.340276337056687
0.335344731112381
0.338480739229281
0.338833881260322
0.335405415650926
0.337957474587307
0.337481040301186
0.341744126782046
0.33925965329665
0.343968788598302
0.343232008629365
0.34582023524115
0.345129059831484
0.348436957174544
0.345786258702207
0.347679790071288
0.349165958691242
0.351295126639549
0.352821332629573
0.355793154892719
0.356255388564775
0.361479392714613
0.360377451339155
0.361515113375133
0.360262878975685
0.360102144627851
0.357689892862236
0.358317691736021
0.360422724298686
0.362058532930014
0.362039296522214
0.36357000361319
0.359297605534183
0.35666448441983
0.358435949343279
0.357177409012494
0.358363205157643
0.356874168474893
0.357542960347273
0.353739800210787
0.353442205071469
0.354177671883406
0.351156987011837
0.349400755582598
0.349400295183892
0.347908353223007
0.345861985188076
0.347780982078741
0.348917554369059
0.34414463404905
0.340666298844376
0.343706454059796
0.339968381823886
0.341380751722929
0.33899581235873
0.337911660491386
0.339054205245138
0.334837722386899
0.335865956817088
0.33603641580153
0.331561123740515
0.336378554988032
0.329015714036446
0.329125691011072
0.327430716498949
0.326149505348677
0.325145250774986
0.327274604252644
0.32287221911355
0.321213168267002
0.319558959848332
0.319096221544966
0.311836040911894
0.312676165143374
0.308451602276549
0.307096592379744
0.305292772621087
0.306274351286537
0.300466631363861
0.301123022960132
0.298053008517666
0.296436589243477
0.29754696435885
0.29298878704964
0.29523846887475
0.294127615353423
0.292907035429781
0.29385783533917
0.293245630245515
0.290312218151663
0.288919166253936
0.283440249257958
0.286240734863825
0.28853576694465
0.283367650674341
0.278713775007566
0.275976172369803
0.273690364671209
0.268114085148351
0.270516998971492
0.264152677684237
0.259684594115834
0.260105514574426
0.261570508353354
0.257400575252442
0.258559927251401
0.261861622514951
0.264202391968889
0.266419763273521
0.273839739394765
0.280867219087231
0.286953967460955
0.296193585974827
0.306414634381187
0.318852811689657
0.328923930167776
0.340976268353662
0.355769808792503
0.365474312532737
0.377589440301805
0.393423822699111
0.407538278200602
0.418094482807389
0.429292444873866
0.444520119076982
0.45676770652378
0.4711722191718
0.480646088993567
0.491286371755723
0.505577790787045
0.512953060868293
0.523302292342836
0.535188921660229
0.544941747036111
0.552750619422775
0.559209079157363
0.566034626764912
0.579885518049535
0.57725260505957
0.586922814390098
0.594427642660892
0.599825450900592
0.598820564102266
0.601130467210243
0.608768114400948
0.605516281407302
0.605025886480674
0.604166027768286
0.603804542330717
0.605831011296964
0.605571478451665
0.606004453805951
0.609803342152245
0.608691517283776
0.608742204128017
0.615304546262944
0.616601870442466
0.616861269508993
0.618235585099104
0.62805140444684
0.631159646007827
0.634740481186995
0.630780563772229
0.643046030802223
0.651695632965645
0.648767925077943
0.664242914824106
0.661999431470019
0.6746370168734
0.679881858643844
0.693666462170033
0.703774181641101
0.711705604683533
0.717281167776078
0.722049213777285
0.733136958418803
0.740122203778374
0.751844169061258
0.751665974796355
0.761862080849133
0.759662824512157
0.762929063743511
0.756365065969511
0.755858834596836
0.760415464790895
0.754200852945145
0.744767592946917
0.756673742616087
0.744902428274875
0.748729269894312
0.753135938698337
0.754053275132343
0.765523727557773
0.766051317235148
0.777291670958561
0.802171827885794
0.794707122547338
0.816149648190892
0.827348743173478
0.836713230764923
0.840939628614612
0.856923716621298
0.866727433982504
0.87780824095952
0.895009407747628
0.912018935224897
0.918943021903651
0.936508455551813
0.938022389262292
0.952688171552966
0.979073714966298
0.989930665619126
1.00427993555952
1.03243914911638
1.04091351855434
1.04190210025385
1.07493426437303
1.09640176335571
1.10165973217672
1.13861265261652
1.14727351121241
1.16048042734658
1.16306031350653
1.19390301521833
1.20361252830425
1.25234280569246
1.22963141675564
1.23951689481835
1.22382540224484
1.24691274483151
1.2702131488809
1.28969052608762
1.23706348259108
1.26038468841737
1.25496137198175
1.25242052483448
1.24970168225995
1.24379198325697
1.25127452832328
1.23366683657956
1.25956175308401
1.25558114050414
1.24911028660308
1.25412375544178
1.23381700612608
1.26414122722067
1.26783096305731
1.27799779879094
1.33368752121632
1.31048275536825
1.30554407196001
1.32070984530783
1.33312330296967
1.34640071923118
1.3452727088231
1.35424097507408
1.41076224259505
1.42681597545483
1.38754651283499
1.45361247243992
1.40653913274031
1.43666836301019
1.45528503188884
1.47100331072958
1.46222348733854
1.46327341756354
1.45012734056774
1.46507123731996
1.50022924906603
1.48624712478666
1.45880839109235
1.54935734128542
1.50001632470231
1.5007727296052
1.52791760097649
1.52396590040028
1.49851000342197
1.53775985891851
1.52360989530979
1.52698404078706
1.53195369878538
1.50782850978741
1.51132213048847
1.52547588501356
1.54615620170625
1.49913646658623
1.46620924810268
1.42080007757915
1.43050594200385
1.42779311115175
1.36286956186505
1.36879984954201
1.28737472356502
1.24151872845249
1.22525162752339
1.15171971167887
1.15728830062777
1.09096658921047
1.05802339213789
1.03205027080378
1.0278118202684
0.992146853855919
0.953810937649274
0.959691648326592
0.940439036166839
0.942370288481278
0.919393082224673
0.904322480819331
0.903102836861768
0.894225010601863
0.885394502239811
0.889779194480256
0.878911928100057
0.855085389180354
0.845008323055683
0.830275472141516
0.817349078857959
0.797539218477408
0.772684963674558
0.760896718750153
0.74105824536776
0.730107426532568
0.695096791712874
0.678915497660494
0.655909365754482
0.633947901559267
0.606483648486995
0.57343965369934
0.554362298383487
0.531899696327155
0.504291149529082
0.480275174377945
0.457204530757519
0.441714548330904
0.419565141013304
0.399891940742028
0.383838685726834
0.372246048772679
0.359014555580386
0.348475366600408
0.332432464409234
0.322280892780036
0.316213404867191
0.308148056592173
0.300571839071348
0.294692821317786
0.291019909653398
0.28988863681088
0.28392149380199
0.282569212727679
0.277491395361519
0.279668239088905
0.280841315566412
0.278870564622861
0.280587601651167
0.285626857650212
0.280799114783563
0.282794917640417
0.288194927179091
0.283956983835737
0.286583639858327
0.292738361223708
0.288189898498047
0.286119608598234
0.285236557737859
0.28247083623224
0.278995608283249
0.283433758985399
0.286419649633316
0.281347631804615
0.277604063113264
0.274193185123323
0.269957874776963
0.271987940769987
0.269793063663379
0.270667657269431
0.272914350237556
0.270118833254724
0.275567566192339
0.273712264233174
0.277047230095102
0.276413211153509
0.281733922733287
0.28005068578287
0.28573231002691
0.287454775275734
0.28578236726285
0.288854137018169
0.289845353520632
0.295529327626732
0.298410878078784
0.296789714809211
0.304222688098396
0.301352194094646
0.302159678033469
0.297364812748513
0.30481300901505
0.303298946373304
0.300045054620828
0.300624417061426
0.308973940581349
0.306366770980846
0.304851313686164
0.313250406285618
0.316174982727016
0.311992080942354
0.315235938346602
0.320658205286662
0.334321229043448
0.337986965790018
0.348315515243127
0.355474693824372
0.369934413491969
0.379194413883411
0.387873748138682
0.395147401853017
0.404230615073383
0.410190321228083
0.4093655945907
0.413761817842731
0.410344678762959
0.400201405136427
0.402359350779907
0.391610813072112
0.378063175083178
0.366506145951581
0.372843512665339
0.357905729790669
0.362425420461187
0.364170559919489
0.358847777771053
0.353954417899115
0.348418768075593
0.35127412157707
0.355865846320631
0.353143388417857
0.35586996128831
0.355369072710323
0.35984709171809
0.352810167287832
0.351169546755667
0.346690451249211
0.347005393530222
0.345608940498501
0.335215218131948
0.324857025490244
0.332994000162907
0.329920335452723
0.326666105895078
0.321904848397093
0.318173022687722
0.314037308839367
0.3097158545358
0.315738544624598
0.312211838270242
0.314019068120533
0.315619100195466
0.299022560995981
0.305881853226176
0.295742011979681
0.303775340289133
0.305592474312943
0.298963761449495
0.295563892656877
0.29238143277078
0.282512833586902
0.284625177725768
0.290537688091048
0.289417724129439
0.283950891450569
0.283725301687858
0.282196416999603
0.281483630267369
0.272744199066728
0.281741616074827
0.280765049774705
0.277712784584696
0.279423528230595
0.280856775153425
0.278752398593132
0.269338659409794
0.268456590607033
0.2616324017243
0.26246562997571
0.269988551087497
0.267035562774447
0.265030077275266
0.267393563899062
0.261673903085532
0.265073685103829
0.267502829162603
0.264215685684101
0.266206772882438
0.26902271624417
0.280250204392911
0.268944706257047
0.265190233723043
0.264841142495909
0.272689958248336
0.278555457511252
0.272995610230747
0.272598235376567
0.282349797509713
0.275107505100305
0.280955633595896
0.289863024375115
0.282663258577307
0.272957054254813
0.282474605288948
0.296344223848084
0.301872092888293
0.295138736031025
0.295198860761639
0.292804166183251
0.30906574182301
0.320068114290473
0.318065205514946
0.326165751708254
0.342502508440248
0.343699840219391
0.33668182525401
0.343216866497246
0.366295450379799
0.3740227627585
0.372629363860832
0.392609707434811
0.419593299923833
0.431278793739373
0.42933411025408
0.434955776319869
0.459886532405109
0.456568436761634
0.457566096279272
0.486189179545889
0.485956302455409
0.466719456088706
0.481350823953695
0.479401495944546
0.484628919796631
0.466032710801228
0.489041024459734
0.483230186873842
0.483327796068961
0.472881907873564
0.460848292952791
0.472428318577509
0.463555460359877
0.450948908455983
0.477002623806505
0.476597391115866
0.481517311833756
0.466000394567781
0.449350010855217
0.469785631770243
0.453721636172844
0.45982327225062
0.452532571916153
0.435747260476781
0.448462962749619
0.419200076558392
0.440457171476711
0.443439794018194
0.433985623132389
0.412296204848897
0.438935050830558
0.419870982380311
0.421949932595447
0.450747859542409
0.435544542048842
0.4088289705823
0.425997441729142
0.422389151476147
0.413107758108392
0.387774845401547
0.403415224397903
0.416762944910163
0.400400181106147
0.401875729130399
0.416095258581181
0.415503585555007
0.424286576085233
0.41387342228909
0.41557703355708
0.419256545283862
0.392692941551611
0.393084419208233
0.430626364184401
0.426927233913185
0.433411140810805
0.430177084336753
0.448904819589281
0.45559295489277
0.442768092818454
0.447351248836212
0.429431090672558
0.450004387887189
0.502773006577287
0.450374921048134
0.435873142295768
0.452705683682792
0.466712593718828
0.454473751059589
0.476910846844188
0.44434278901523
0.472277387194351
0.512073430789471
0.471485948828908
0.47655879698043
0.492656626177403
0.451052061498194
0.511123069747685
0.507574038862745
0.505850390204639
0.547722184426667
0.602969840403277
0.560648533859109
0.530757283167198
0.523324525590128
0.520945040732479
0.576821308648918
0.599543613976958
0.607319192656055
0.640798440822267
0.59763342609964
0.565325490732274
0.561306008550099
0.587567406552138
0.596603952689502
0.56291021053724
0.547819962780903
0.593829097462377
0.543936943981187
0.54153636867459
0.540012643343493
0.492999836407067
0.559544775259082
0.644215945717574
0.661181134439404
0.609230563438078
0.519542028814857
0.556203600234648
0.534629102722699
0.558794472616481
0.615786402521417
0.543109936874305
0.48984688047702
0.500269342795171
0.564152025292166
0.553741097223846
0.598017888057766
0.734065564669018
0.641466046960108
0.717266686573112
0.626650373403003
0.542019719460183
0.583556902261775
0.634943168755683
0.502786301709002
0.508563841328219
0.553957876098398
0.528950340908166
0.384711159373048
0.538511299309476
0.715152916066742
0.579935723006919
0.678241446217007
0.592494050862561
0.605967109571723
0.501848733456895
0.485639502130227
1.02837421018422
0.726808767415061
0.567421930582778
0.531761898237021
0.621933805377159
0.715287829116602
0.841287015479471
0.703137616642305
0.587701550878569
0.623978949402837
