3596
4000.36533379555
650.420452594757
1
2
2
0.0374184983471145
0.0369542717177106
0.0328849115569377
0.0226194561718991
0.0330262488460687
0.0263228740296678
0.0276279310646055
0.0340853904817622
0.0400198018393074
0.0183802689807521
0.0253079728628544
0.0346688801641595
0.0294472573172604
0.0225423419475279
0.0279951411165301
0.0284774189194049
0.0352418901044936
0.0229096660782942
0.0297104151212711
0.0372306813107147
0.0340249969650857
0.0285177177876619
0.0410375742980685
0.025596045927394
0.025533370475564
0.0336184920734278
0.0302377573613678
0.0276361558408123
0.0324023691869539
0.0291419338675466
0.0302637316642087
0.0290848745470789
0.0227593430160776
0.0274811907115308
0.0294919413776521
0.0282706472797339
0.0252128197816378
0.0333146888464591
0.0362307895210784
0.0342285235276493
0.0313471655249369
0.0337119247590872
0.0253508424987901
0.0288937442407152
0.0283684412167949
0.0286879372189161
0.0295760937093364
0.0277847749729334
0.0298753441947274
0.0293527068168383
0.0290812753879282
0.0318241641015755
0.0326570330570028
0.0337490503936627
0.0261220076080405
0.0233952368811434
0.0262279853875815
0.0233733133662923
0.0269277757094284
0.0320071127548355
0.0229903744577929
0.0219445477070054
0.0357932864540032
0.0241663632556814
0.0268302024002875
0.0254756504522655
0.0302347511420758
0.0335580170650324
0.0383752578621946
0.0335487555309188
0.027788038486464
0.0245662421790198
0.0242780365432381
0.0211057033681625
0.0358072526474211
0.0268327043173294
0.0296970128327926
0.0268200813377041
0.0273855175757664
0.020624797209308
0.0310985028775864
0.0119690869770002
0.0266412515898731
0.0334786796849684
0.0299301933524216
0.0301628117238751
0.0371263791210535
0.0167628907242712
0.034409104302805
0.0214658224122899
0.0215901927257435
0.0271212169076297
0.0268533511588393
0.0260950782528853
0.0293992114662848
0.0289780967745619
0.0311911860235798
0.0155310034234353
0.0318548035601944
0.022670691956106
0.0250101981264892
0.0251650051497113
0.0270793609790525
0.0257322229789591
0.0180611025890851
0.0373831934032365
0.0208295951560193
0.0291444495296609
0.0341226511319114
0.0231634074644517
0.0278703632097081
0.0184633260288014
0.0172921195780689
0.0138881211413235
0.0282612782121421
0.0219165785445694
0.0276618532600913
0.0228527674437276
0.0258573807936794
0.020337006734906
0.0219806174423653
0.0132888399653936
0.0367653681540629
0.0236074610107577
0.0271352822837954
0.023590081705208
0.0266076544635059
0.0241637658601441
0.0273612031456028
0.0330071949509075
0.0205238663359681
0.0262658548496878
0.0287137745982332
0.019298385153224
0.0363166633134034
0.0212806657263129
0.0241570516697552
0.020374209959131
0.0241517924034901
0.022724904087347
0.0260656975157106
0.0220410925260946
0.0216443927429578
0.0240914032093905
0.0251190803813009
0.0104520038086492
0.0251448552898672
0.0241287780644781
0.016124266981546
0.0136126110036586
0.0224556360815604
0.0248242109855077
0.0170693808503269
0.0224497688495747
0.0161843154148787
0.0280846220671529
0.0287332891156204
0.0236770051069077
0.023367367916531
0.0256883737116367
0.0217943650019223
0.025938247578381
0.0150715528347395
0.0253288798637567
0.0229538699796265
0.0203692446437107
0.0212346581613765
0.0279657947685998
0.0301200526522378
0.0308844095466948
0.0306324983176919
0.018246423514299
0.0201398583978324
0.0173368625681121
0.0197290466128338
0.0115089423295033
0.0338424133092198
0.0235508136710083
0.0288411473503774
0.019009812796338
0.0166865038513206
0.0241892985941291
0.0224593436659532
0.0214245147170455
0.0274519182035282
0.0173111671786053
0.0260697615863533
0.0183385194351513
0.0274210987648138
0.0277194126661012
0.022600748461466
0.0196833054426611
0.0240839858405473
0.0245749846222479
0.0241980691022128
0.020097523576586
0.0170204776534729
0.0272063401121118
0.0229574185108681
0.0224870215500988
0.0185593538411066
0.019481046659202
0.0219598080601506
0.0211723522045666
0.0181715529781827
0.014635443320237
0.0237081711134481
0.0297299680694777
0.0211220497263483
0.0162252399950021
0.0182204658044806
0.0172543978291968
0.0244049200799728
0.0241153377150728
0.0220629565049975
0.025242276486394
0.0123292709539672
0.0302405819897231
0.0200355568636182
0.0254133192029972
0.023512807993318
0.0216330196949959
0.0296617445277933
0.0260245486345657
0.023533027948975
0.0248444515064688
0.0218515487932337
0.0241269168197881
0.0180064428448774
0.0204780372942826
0.0270012737563505
0.029720702259499
0.0315441995265699
0.0196552764531776
0.0292760977986195
0.028064111584855
0.0261534912214333
0.0204278150725348
0.0212446347342181
0.0180907702505916
0.0203696340488127
0.0251401634163234
0.0201471600933131
0.0248395573802222
0.0196679587263253
0.0302198424569511
0.0211526630296005
0.022459888956501
0.0212463093943796
0.031629067044116
0.0195240073995263
0.03417649082485
0.0179532536001809
0.0235315963679312
0.0245555908174744
0.0282516759241099
0.0248196347499939
0.0244742929356634
0.0353600874471292
0.0240805051502956
0.024732374408126
0.0226537985099269
0.0354250407958511
0.0206439057759562
0.0233861987127106
0.0251394798198243
0.0335872094478661
0.0142415575579107
0.0151056153054342
0.024720356771779
0.0333317218201824
0.0295018622778874
0.0235180701216207
0.0207405438222843
0.0319042561931481
0.0226567966578206
0.0295685245368242
0.0192421113780452
0.0270257356495863
0.0260192539211481
0.029492063556434
0.0413691798597439
0.0308701844276729
0.0321334892006472
0.0192556881853186
0.0352652904931033
0.0237733798404223
0.0284216987287282
0.025479867556528
0.0253869651840955
0.0298982246003581
0.0285909490171445
0.0306685894921108
0.0253923757466994
0.0286879973361044
0.0287683294488577
0.0339224776722495
0.0266307060949246
0.0268298472699962
0.028065207942129
0.037885362793267
0.0353180269189638
0.0335833868938311
0.0355854531267348
0.0289463591125963
0.0360433562475854
0.0366378484883407
0.0206802309574686
0.03271862854257
0.0342981236367196
0.0290211082656082
0.034597131231556
0.0352124692156478
0.0326473966904336
0.0332874110037386
0.0318799320350604
0.0378734920704193
0.0336961011527544
0.0337981839593924
0.0358963252716313
0.0353136454689037
0.0413691827694914
0.0411126899142263
0.0319279315944789
0.0341070814822543
0.0426802433782436
0.0386831470725855
0.0392884537230838
0.0344004664280375
0.0412351893962959
0.0355924860384261
0.0421960797189652
0.0399005226087388
0.0437845829226807
0.0486048273487865
0.048731030462928
0.0444961281600525
0.0494855662084272
0.0454289209914821
0.0434567878039038
0.0478103842501766
0.0540954456192841
0.0488227784222746
0.0488824236185441
0.0563723221831583
0.052718217729728
0.056362997286041
0.0534869602904241
0.0502449390427223
0.0548619668603701
0.0493365624755412
0.0632145801706206
0.0559321039981775
0.0575700425143026
0.0611801738430559
0.0600534568694575
0.0711960329582546
0.0658181463285436
0.0658956792250735
0.0764864232447286
0.0693802802062895
0.0617285549046608
0.0745242810546978
0.0790219120638029
0.0825954403220611
0.084576981151269
0.080983434491888
0.091007001247446
0.0847250696500935
0.0826566869654196
0.0928878324281383
0.086729829323166
0.095963477087871
0.0911505147035961
0.0967092175651966
0.0991130168251257
0.0974019561956162
0.114173756576244
0.0914403710226528
0.0979463620068461
0.104009333026632
0.1101601756834
0.119338572881248
0.114621070313317
0.117778475992577
0.124232117699661
0.119506293375638
0.134484319863042
0.122827023861876
0.134403775602546
0.132675853877107
0.147315802792118
0.131182122094974
0.142746831069343
0.141838716038231
0.144579947571363
0.141773541275795
0.152424113950917
0.154003349489979
0.144805980493034
0.156444009905869
0.156899250489998
0.158805383574713
0.170077668789888
0.162650795795305
0.167783624416861
0.184126817030867
0.191484288006877
0.176728957104532
0.193877637435565
0.188578468790552
0.191274320085979
0.186695340049027
0.19718064527001
0.203804540709898
0.206199789760434
0.198721669227146
0.212024832586951
0.201492298147056
0.219387759663407
0.233014379579771
0.202187224108982
0.222823505707784
0.228188237081649
0.222460524751017
0.247388619800468
0.233153851687518
0.232066971812366
0.238178433159991
0.253302616306377
0.25041044392917
0.2683455344833
0.239278507767533
0.272627902842556
0.241449635406952
0.27162562582197
0.262813349115119
0.280459458824267
0.285582008594164
0.281884017335192
0.292947812114484
0.290491199791856
0.301779068212801
0.292252307168974
0.281382294642069
0.292141777337188
0.300935060404313
0.309254960416603
0.309348789094372
0.317640064895252
0.332772617660245
0.337653964356883
0.329439319229658
0.333755110914106
0.337483036166153
0.354102173348446
0.337494310091448
0.358767455248018
0.349920966885504
0.376123944483127
0.360486687963695
0.386400577387346
0.418084618398516
0.385593417012311
0.375899180761531
0.383237809421964
0.368285785316699
0.388000931172889
0.384040530380137
0.388908250000372
0.395468673242213
0.427103496774399
0.400888984406394
0.431003905003372
0.417479701238512
0.437983879413168
0.413022320605382
0.445964687810766
0.428942743290777
0.434208994355669
0.442930371724687
0.472226337191949
0.440747547505991
0.46909355999973
0.463407428641143
0.500370345121888
0.463745113424571
0.502779704854651
0.467423736492096
0.506103724720333
0.473160836851754
0.506449429389778
0.476833483539336
0.515678370927415
0.508067453106102
0.528089689273387
0.523379863419381
0.554618168894207
0.549219357095994
0.573234771523926
0.509038474097661
0.563018179235462
0.54715049901569
0.584907105093833
0.555318528499479
0.595701869100228
0.563617914418887
0.583774982583744
0.561661413392144
0.583115005978162
0.55719953269126
0.616549911573306
0.577517802828122
0.630257412048456
0.596817860253678
0.644901567006669
0.60233995054539
0.632611719317067
0.604469396337191
0.640702708540795
0.627138632354447
0.654691689776702
0.6466864343924
0.6890069748366
0.656467345219256
0.682052728107278
0.640558211140986
0.698985454392395
0.672569359441245
0.688450984988227
0.68649733949174
0.716778768776219
0.670353028996122
0.737738375157518
0.66781124869914
0.735297220919173
0.698418298382243
0.729980146328409
0.710910299886249
0.731523298021375
0.760754336949241
0.774420400355671
0.738372951200661
0.739530299039681
0.771071749516591
0.781168827665618
0.771095394935305
0.823959285951083
0.759725234642248
0.811815414358236
0.742324374740278
0.842968885076325
0.82220507385301
0.81785882496936
0.789452489878604
0.846394972858107
0.809618420857238
0.816787585793957
0.817241115519337
0.844846008241761
0.806977396348932
0.883846899291203
0.815928950754775
0.889550440891487
0.866798448205562
0.872767101674322
0.826656539354159
0.903038904680771
0.845188818672152
0.918863866721041
0.856151957493537
1.00535738754682
0.860169949407898
0.882300447640872
0.918067231173074
0.961179537302293
0.897302111742198
0.952304731078671
0.860739062013014
1.01552099981783
0.928599708559305
1.0124408243268
0.952231382407818
0.931711451902932
0.964805855250956
0.955983977557571
0.954520177234796
1.04988868412436
0.94682055481878
1.00676788791718
0.967244544782368
1.04098653933098
0.947882075540664
1.05063752470268
0.991732684623885
1.0221018415539
0.981370431956321
1.04769663386546
1.03488403339932
1.12265171430836
0.965020906531
0.99747767778313
0.984530577633241
1.10263314703051
1.00891390346787
1.04606625793373
1.0108846189347
1.10167997825409
1.09572393869825
1.1322564060314
0.999817726921351
1.24603217966023
1.01034257135828
1.11420001361938
1.08733856208879
1.09699482715693
1.08308481748593
1.10752024671395
1.08375510384972
1.19812336633233
1.06983855896851
1.1720768611581
1.0696760296033
1.15706089087245
1.0872682769291
1.19897229296316
1.08213698230198
1.19274122170262
1.09370791795419
1.28153405875393
1.11809768813296
1.2060357498714
1.20077416034782
1.16779501236656
1.1140402396497
1.27539119637473
1.1420672279696
1.10138609718705
1.17372309508821
1.33636922867393
1.13361612471488
1.21160251056721
1.10707424781725
1.2599482858898
1.17357056286838
1.26581354443098
1.22165249492472
1.24442888375517
1.19317607451839
1.27073339560118
1.20810733112754
1.2288429169257
1.17191650899436
1.32994989654495
1.33818963159619
1.31862276918922
1.20982763788215
1.34035258985959
1.28464006647471
1.30143004134529
1.21204780550074
1.47291953976661
1.16812759554988
1.26913553294941
1.2702054446481
1.36928091990144
1.26498368778865
1.33118778159436
1.30894457447752
1.47075370728092
1.24365235462442
1.30095425382728
1.22262956583143
1.32107758724569
1.18605821766191
1.34525574783174
1.26001346821699
1.31278254717854
1.17245670722863
1.3515312466705
1.33468796334801
1.3450028804522
1.30603837192329
1.51035154736845
1.28835270619331
1.28269923424688
1.26907036529995
1.36954042546943
1.48470033123809
1.33932679225399
1.19721563513255
1.46499078238513
1.26127442330237
1.35837166448008
1.30182689626682
1.41144720208483
1.28598064657793
1.38067694391571
1.35807805673512
1.31355391444132
1.33180945409037
1.46000821809051
1.33370552620387
1.47862330312921
1.31959242122382
1.28901914787782
1.3092975565474
1.47848025189996
1.44098998025888
1.54020801722491
1.36708317507047
1.37365055854127
1.3009637185498
1.29245510387044
1.4604770831594
1.53601592105968
1.30079565527983
1.37572882349468
1.31166197506638
1.3739650245289
1.4330255647728
1.61198724533615
1.35141227079904
1.46728451378862
1.40217774585258
1.35855341258167
1.31031966802773
1.45006421710627
1.38520009626876
1.40343059614086
1.41387716838758
1.53232883351303
1.42810402864546
1.41583590407274
1.38247631022428
1.56707721066647
1.27930021165271
1.50788030040251
1.37582310561279
1.34719769939965
1.41592317301103
1.4447747430145
1.44571504739897
1.44266338185574
1.39983952578311
1.39267144835538
1.40012413215443
1.47832185839909
1.35717179253566
1.52977751621115
1.43611847715827
1.39282938970296
1.28418260877006
1.41984360415025
1.47574451915636
1.41680287820396
1.42936056484612
1.46300997684064
1.45347840315391
1.55154912937318
1.42942809593164
1.42069407452777
1.33825211455557
1.49701245073058
1.42256882721392
1.43634282220894
1.39051793242176
1.50672619501045
1.44850046463521
1.37059426717916
1.27641071069536
1.4356888429492
1.40273899175462
1.44810487368851
1.58891388368397
1.47064752091626
1.32157463309434
1.3539887557756
1.47073742850476
1.58685818010819
1.28966131340395
1.32771289854173
1.35045021982135
1.43618197403929
1.3743144172211
1.45649229902449
1.38868555592347
1.45671898740306
1.66810734312449
1.40584835013519
1.48874734764231
1.4736562680018
1.39803095141359
1.39498381300949
1.3048718715884
1.42028502168383
1.40279644011984
1.42559531109169
1.33945188377339
1.41449573819415
1.3393472062238
1.3326698802644
1.32855187876589
1.33050435799199
1.31539721070892
1.39694821526574
1.3265297234751
1.32748038159519
1.38141485333037
1.43282285007248
1.36276136347674
1.46498435044439
1.31407071448115
1.31598422544198
1.34150845617719
1.42429367138779
1.38158449454943
1.34880853006621
1.28982597624614
1.34028531024308
1.2841882063016
1.37510171878656
1.3489502431123
1.34137576609634
1.37793380718139
1.37918454181795
1.330975934429
1.39060060433917
1.36069256711105
1.36920180001782
1.28216493434325
1.30412077220909
1.30543933974527
1.39652689357612
1.27354865311358
1.28112233175212
1.35664699169109
1.34597359094145
1.24057834301395
1.28289429867906
1.26688596735215
1.25007032533338
1.26440683320076
1.33831945241229
1.25559946927726
1.20159011046415
1.22007387603814
1.28502895475173
1.17153753547154
1.26766881594441
1.27277475451397
1.2331333806593
1.21721915219261
1.20535550766674
1.15430351049172
1.17354750390962
1.22528356282869
1.22612884741254
1.17383369439613
1.2681620170766
1.19454257040093
1.20847631510439
1.17556634877506
1.16645510825916
1.14665856114289
1.19125867399942
1.15552180955884
1.18064811116996
1.14782140914342
1.13877117286569
1.16475970123943
1.18518917232025
1.15406742390741
1.17993029928987
1.17317431198825
1.20572240654702
1.09016486116438
1.11175889594538
1.11730176577678
1.17534662425505
1.1035155227673
1.10547579967863
1.07708329989543
1.11767010524439
1.09158860075516
1.11683023080612
1.08019770081648
1.04662566628635
1.05814124130325
1.1102540007778
1.06718288100123
1.06453479384389
1.03673998297742
1.06916633942174
1.04296065190614
1.02233088085364
1.02585349508211
1.01245037464141
1.00662537013328
1.06997271347247
1.00331420554778
1.0174162530041
1.00985529740724
1.02919415788046
1.00518422817423
1.01132332235509
0.994103836621813
1.02102713687345
0.989036736884366
0.951965562094339
0.954047350479306
0.998911405049651
0.941781609788666
0.967046443553989
0.964543582293827
0.954637874573643
0.938678943515372
0.953205319102656
0.971363077280379
0.919553414504295
0.928081951951517
0.931391071471576
0.898488379170086
0.93596578089573
0.902821372913738
0.920511102369197
0.874800342149053
0.874616045056916
0.91013817814353
0.904189869305554
0.88421842121257
0.890477031127361
0.874341783699899
0.890426990296179
0.859330262937066
0.869061194054075
0.858319643107026
0.871967460720247
0.866357637498693
0.849556450695785
0.855717347006331
0.859844458215265
0.813120939717983
0.846801833998598
0.807481953239161
0.808827272151659
0.834551027451737
0.840559379855892
0.811699858055227
0.840229415956597
0.822976510895166
0.808743929898652
0.791740735807022
0.800622901930807
0.791218255513117
0.788410805548712
0.783569936909376
0.79370309917963
0.775412395011074
0.766176515015144
0.768110649181794
0.775852370739481
0.760701536109978
0.754405367192214
0.747764939042986
0.763955712843131
0.748483649029089
0.742536963697881
0.731796335461881
0.73411455529976
0.728444044289802
0.727308535397516
0.71578919218725
0.722337236665437
0.715927428565775
0.71197164826367
0.695406029379548
0.710858840088469
0.709266435819172
0.701711576902039
0.697973655706126
0.69864860048095
0.678138159219546
0.682209197405146
0.677997533920793
0.67985661553002
0.666268899418563
0.660278395566945
0.6659499744941
0.67507803283566
0.667219905683335
0.663056810595101
0.65330502298572
0.665068941029721
0.650718024806215
0.647601997074638
0.639671052327717
0.634495933220459
0.629027070685515
0.622793069412987
0.622040607112536
0.624167863003671
0.620041994034616
0.623278566855313
0.623211657226484
0.618713009924473
0.614861408566878
0.606097077951832
0.600944059895492
0.602645116891025
0.583015623976869
0.598475848169443
0.595542935761664
0.595404830629413
0.589918712698253
0.577463701297453
0.58484587295864
0.578446761114717
0.565571976212234
0.567434422969789
0.577144441126772
0.576312075240919
0.568230008552298
0.572933525513475
0.556318939847293
0.554203393034429
0.549620989797003
0.549891015309265
0.554639958735086
0.545255517343058
0.538589272712915
0.53974370013327
0.53321336083824
0.529491935205138
0.528308129886972
0.532542764253243
0.522622200953536
0.523725285472081
0.516871350611875
0.516469215260807
0.515729741832162
0.513779259331634
0.506572560420839
0.50991437288638
0.507364341867802
0.498624431381664
0.50156098734109
0.504764534791181
0.495518060671063
0.501045923914241
0.492359421638179
0.49252502918752
0.496315236616746
0.48708345193176
0.48154172835788
0.489927501766391
0.482489782502876
0.472982696425004
0.478383850667982
0.468614234882342
0.466478677087428
0.475641120506626
0.474037048537551
0.466001960901996
0.462304045874387
0.464502482440539
0.455713351543461
0.460734984426733
0.461588315797897
0.451915391964126
0.465182457182088
0.455649466134258
0.456810716643273
0.458469912631508
0.447674361737998
0.455604076405504
0.446775989582575
0.449294353398472
0.44449215007439
0.445975693483398
0.453179300885957
0.449297322219908
0.452533219289867
0.448629160736188
0.441037624334879
0.444444492472586
0.451276698768523
0.455611753729665
0.452313294995813
0.457101752238602
0.445077448515355
0.45024731991962
0.454446106372565
0.459169730908624
0.462137368907176
0.457760427753461
0.464723114055883
0.467299068718176
0.46291100202853
0.465419321617484
0.469970731023426
0.469121995895761
0.471065036662777
0.46987519441045
0.477011861060196
0.488526174507764
0.479727577468775
0.484586819645667
0.487047934547033
0.489220565212708
0.489849197558405
0.48595299742067
0.492497769720171
0.495260676748324
0.497480839131278
0.503375445629341
0.500576013234628
0.49965508682952
0.505974528971327
0.504978435906836
0.519336410322011
0.52177523224132
0.511033015609813
0.517326871043115
0.521541321813649
0.528555111158978
0.525320451094653
0.528705141234816
0.529747368917954
0.531189305854705
0.543668285708257
0.546606426289634
0.541619156527807
0.539049050127951
0.562292122878252
0.563704506515382
0.551495869092066
0.568651682297613
0.575998746561906
0.579737653275684
0.58336346584425
0.580002918674703
0.581554387880678
0.576954851469523
0.583516498194285
0.599793192927678
0.594159905053957
0.601971894472825
0.594678182786064
0.589730059473953
0.600170756209477
0.602584090415715
0.603271388486806
0.594214447000505
0.598435571760422
0.598543011691978
0.595441745102014
0.598317554854872
0.6033334216266
0.59253445761064
0.596068505566275
0.589972155411448
0.587650787347657
0.59066390320438
0.598299591737815
0.595225553301332
0.588491458946285
0.595529662453827
0.584801506159388
0.584841439572924
0.589365229468938
0.588665324427382
0.587892087099822
0.588593588949886
0.595706100075859
0.592005401253817
0.582168176949408
0.581742054631736
0.585347749131366
0.582512245182638
0.584812177413099
0.598628077888637
0.587742414887471
0.586444937254183
0.595942921711741
0.584053914164927
0.583760027378948
0.59172918594949
0.594536857163446
0.59303868067337
0.589419535803961
0.589379544512955
0.587198262842832
0.579928660966657
0.590282340514491
0.59387704586538
0.591589616422863
0.592055937017896
0.581499236975256
0.566392082329746
0.585473322617909
0.584706196049172
0.579482546459723
0.574783757047151
0.581271843835662
0.576815633071471
0.574911827010759
0.571227831038597
0.569828063949078
0.571480240501412
0.561129467935855
0.558682041593346
0.562498923696852
0.567498520743389
0.561450047017624
0.546526483919276
0.547177470746133
0.545664706069241
0.536042688156012
0.531798451040537
0.530400810015112
0.532435278987827
0.524958379287291
0.51988262478107
0.515204642411443
0.516686020250608
0.519756314905621
0.511696175522795
0.50789748592905
0.502791601169996
0.495542372784545
0.49492711601432
0.4919748334466
0.489261943265185
0.481410148274702
0.479151738783705
0.491310712067214
0.473052476940276
0.467380762428516
0.468356363562879
0.463944907032331
0.457665104731282
0.461656339387085
0.453922488895678
0.445499171534796
0.450025744214542
0.453000395500389
0.442065745896205
0.438907742688035
0.444565420735965
0.440224467286619
0.434458959096578
0.438360336048331
0.432983186678322
0.429101634927411
0.419400354374208
0.419350524826912
0.421239404938679
0.416130711079237
0.413803774206654
0.416783680553078
0.413235898662869
0.412390134558754
0.412190383419535
0.403260742854209
0.407466524492094
0.403710646522243
0.398109294022237
0.400860938910298
0.397973406958168
0.396965082133274
0.39717513028785
0.396446573861468
0.390357209380371
0.389882247645027
0.384870448366792
0.384207752738295
0.383495923766295
0.385619031704521
0.381838409070307
0.379650198094797
0.375067574873893
0.379674910584804
0.379906988327148
0.37746861669147
0.37993744978628
0.377684240881583
0.37364060085946
0.369905845211123
0.366372288543336
0.368684823172939
0.365227716369164
0.363963808292195
0.360371404180779
0.36125715736804
0.363070227804709
0.365689690185959
0.35922410332188
0.357458104965986
0.356322398324384
0.351132287868853
0.351724967113726
0.352604834714737
0.350757698061969
0.353217483230878
0.345702524514251
0.350519004980453
0.354179720656052
0.347424783574123
0.345525559546418
0.345952956784257
0.343149931676507
0.348728692751588
0.343849204405351
0.340166211083401
0.339531309066003
0.335630402533841
0.334026352583191
0.336055372483015
0.326121213822975
0.33591903647363
0.33314794673393
0.331901737308659
0.333803632336873
0.33190470472304
0.327048792360329
0.328696843271057
0.322823234769694
0.327099753535888
0.326422108357827
0.326023196088882
0.324226292622738
0.328878193739465
0.323344384447803
0.327067347828366
0.322585554733857
0.323781037922714
0.321251703693011
0.320740374340703
0.320669873625223
0.322504695740209
0.317502207025346
0.310618329771327
0.318376601113342
0.322013649991228
0.315204483446469
0.311993293015157
0.308432427643756
0.312816301546827
0.313351598818501
0.319019731857532
0.312629992158642
0.313669499329438
0.309371838002937
0.311273196769091
0.3116660442457
0.314598847734489
0.309299297465083
0.309884370086706
0.303745379653516
0.306782418586999
0.309730371133843
0.307001743021402
0.306884327357216
0.305956225776436
0.30542776796079
0.309854420494238
0.30330533119926
0.310927132580942
0.301085347668591
0.302812365795783
0.301366031712217
0.301186927512727
0.302521390090974
0.302766253692432
0.301347734897682
0.296547347087793
0.299580562353824
0.300641109219169
0.296224159170561
0.292457172525646
0.292022701467103
0.291105657490098
0.292137293919288
0.296223052499985
0.299157695419702
0.294338577787384
0.290840408489112
0.291350765353935
0.285099704571352
0.289435687996449
0.288134642954473
0.289842675162216
0.286111073265461
0.284030052920162
0.282415319426377
0.284998008944546
0.281832177717717
0.28452760345593
0.285287245093602
0.285938388103531
0.281036597328818
0.283019571381216
0.278590241900672
0.278647489501825
0.276565557444042
0.281118418986147
0.280087895902521
0.275302273253573
0.271176769090138
0.274008340594406
0.27255053425355
0.27832527874087
0.271214007146638
0.276730797068869
0.272748283496354
0.27048589788349
0.269949033228551
0.270703018319935
0.273111461191537
0.266619894922613
0.265806552642726
0.263191798099078
0.262898804939137
0.266082559233628
0.263638558028278
0.264477922411543
0.26564442047166
0.263917430797313
0.257905655713438
0.25908783679782
0.257368645722962
0.261658708826298
0.257192735440919
0.255913287152505
0.253208159399697
0.252384417476958
0.251229137559161
0.253850622093217
0.25284370948366
0.252329072115841
0.255201717341161
0.249429093707946
0.242126997497826
0.247921721804538
0.24250384310185
0.242333579096388
0.245485783662916
0.244020999073475
0.239452607016197
0.240381258463046
0.236951714932852
0.239824600466408
0.240505773112928
0.240289455297754
0.237987572917156
0.237510954238349
0.237160926979274
0.23145424168116
0.234809751791597
0.230627334569761
0.2303246384306
0.231138454757517
0.227101733078975
0.226979836485497
0.219678203059395
0.223685272184757
0.228190697607477
0.223715905266449
0.218434567816194
0.219577224674528
0.218350266206776
0.222091700223443
0.217573250143401
0.222115196181656
0.215238837321855
0.217701108082646
0.218885359933243
0.217075696442169
0.213404201111695
0.21548236464797
0.209445612106858
0.21206250396768
0.214600358648873
0.211445939333315
0.211120217740383
0.206235863181874
0.206881743773085
0.209693393489203
0.206431188313489
0.204754404170136
0.206980870951342
0.201485605627608
0.201670182022729
0.205600037595012
0.206083700058702
0.198656027908574
0.201308344556403
0.202788591424991
0.202441997412008
0.198907241696639
0.199143020777649
0.196064855453177
0.194271516466218
0.194109154989388
0.195270951456586
0.192935292951475
0.195883504028481
0.193140520110107
0.192990408835068
0.191352874454474
0.190218350683522
0.19394458440662
0.18914567849808
0.189233088122386
0.189325064132092
0.190129347364267
0.187502971887298
0.190318352615665
0.187184107929861
0.185422485167614
0.185452990988357
0.186042474149822
0.186164167689677
0.182099788834078
0.1820092779025
0.183388404790715
0.182264740009742
0.18417880530258
0.185506785896972
0.177481890519257
0.18139949090886
0.182584023363189
0.178753779119298
0.182395917651684
0.1783002475254
0.179259126341394
0.178883818654126
0.181100665233935
0.176606194154072
0.178448620115476
0.173505303252753
0.178971007335018
0.174236677481077
0.179851566403036
0.173722800185532
0.176622364188754
0.172985682905899
0.173501495361825
0.175201841947117
0.175318063608678
0.17456858627733
0.170045039788697
0.173399415603032
0.173951134222955
0.173449080039591
0.170890864208758
0.169798397395872
0.170761560657082
0.167894319565687
0.168245934757844
0.165485857122141
0.170318665995317
0.164839827476689
0.165924425335982
0.162267428389504
0.168563478308789
0.164201166622331
0.167387336994702
0.162390572863215
0.164722472308187
0.162102872748121
0.161871546184866
0.162469737272256
0.164139291563649
0.163260914803977
0.159990226966348
0.162838692549198
0.164132084984797
0.161318807729594
0.159637010558173
0.16026149280564
0.160455395821712
0.16028121577961
0.160465484563991
0.160249017813384
0.159017204868063
0.155996854926815
0.157494960397345
0.158966605302915
0.154847427116504
0.159943506770302
0.154909556090951
0.153151333170211
0.156303185088536
0.158648072993089
0.154449161088408
0.15620330115055
0.154723629032133
0.155860477703533
0.153757185935331
0.152748520627977
0.150415614911202
0.152871304241028
0.150253100342866
0.153899002948257
0.150578153541669
0.152032935849505
0.15065486465989
0.147845937439125
0.149444779561276
0.14627339412099
0.148282984870428
0.145323224209692
0.153202969997486
0.148247796143255
0.148327370476717
0.148703642608893
0.146867915509315
0.147099689367388
0.14727333699716
0.144797936666305
0.142102816794815
0.143305539667839
0.142101866930378
0.141053650158144
0.144623702479051
0.142109426343781
0.141684966613335
0.13999320017174
0.143365167597374
0.138517563893462
0.138642407652165
0.14115266302251
0.136371080922072
0.138222691865241
0.139016641728444
0.137207908655984
0.137266557205142
0.133850766361995
0.135479852978431
0.132830598106368
0.134565770080098
0.132142746879955
0.132801299084598
0.132925935654643
0.12978020807031
0.131362382425934
0.130297098073077
0.129187494104654
0.131978960670418
0.132135197032912
0.126972932637789
0.128168424600437
0.126017406502272
0.128256700028383
0.125709767355198
0.123090376920334
0.125053606068726
0.127281211036739
0.121388953800755
0.125341147818087
0.123119985785943
0.12411032234894
0.1224012417791
0.122153969964506
0.122729303447743
0.118725897544222
0.121982929762057
0.11700141955124
0.120674108399964
0.114550606223305
0.117682192171864
0.117449179974039
0.115112954225202
0.115408710085893
0.114821007298174
0.115522525798567
0.116034415991979
0.116869209211433
0.111495281783743
0.111330467915024
0.117092411785264
0.111588549032346
0.115160594870161
0.111784391742241
0.109850020250476
0.108088107318024
0.112838578226935
0.108914229442206
0.109466993921782
0.107906752116011
0.113030835837534
0.107740849999645
0.1116469247812
0.106860520239828
0.10604580462864
0.108225699939419
0.107763605911895
0.102307486403306
0.108482750884191
0.104380253924687
0.104515419709617
0.100306068263994
0.103515439908928
0.104285450695012
0.101883662587643
0.100106249510478
0.099708981588269
0.103397132161599
0.100525036139133
0.101570476720905
0.100639309959467
0.103759891059742
0.100993647114608
0.102197379151386
0.0983029154591269
0.0984591217035878
0.100417433242245
0.0988982464874093
0.0972645214296506
0.0972898868334439
0.100563814773079
0.0988145721604295
0.0999751419744965
0.0989299263632952
0.0956947563651009
0.0928363562830291
0.0971277556375182
0.0962906703498922
0.0961489281864896
0.094271874335975
0.0964183012417573
0.0980280733305368
0.0972509116880991
0.0957354922839364
0.0928308809191714
0.0922230761249153
0.0948387160729963
0.0928825730497435
0.0931945970271313
0.0896951716330858
0.0911984637147593
0.089265060230663
0.0927994498476271
0.0852642952299485
0.0914075357394514
0.0895957291885909
0.0923047111738288
0.0925410548618384
0.0909475870972611
0.0874923351901444
0.088045693820058
0.0869858289122981
0.094602777468152
0.0903312199318541
0.0901094857326419
0.0918023406568487
0.092035859868183
0.0821760145745835
0.0857430239623361
0.0868765790668404
0.0900766222768005
0.0838716404893078
0.0891215022331995
0.0847209157477804
0.0872091942136523
0.0866095730572184
0.0907553087615715
0.0849168812838296
0.0891598594356791
0.0856919905876673
0.0857172434234676
0.0862166525224025
0.0841296898070235
0.0866236651547237
0.0861617329305246
0.084115593499369
0.0826617193382503
0.087520031314452
0.0813959098765603
0.0862758889369255
0.0846316623692221
0.082416908226096
0.083690980578841
0.0823119829934354
0.0858455411484719
0.085275998028691
0.0822758681444918
0.0829010385623297
0.0812024753889132
0.0840274704363045
0.0839136160041727
0.0890951547998641
0.0810381566371724
0.088282917368006
0.0805151989646807
0.0886090646831492
0.0778586072412867
0.0889344211399655
0.0808418802310189
0.0867666689115152
0.0782389117848839
0.0877890018730163
0.0738277460272397
0.0863196777790359
0.074445508963217
0.084033247617095
0.0810262624908425
0.0861027350980388
0.079786353626514
0.0838983232971825
0.0851231638432255
0.0815004447476868
0.0811469790591485
0.0821422014359922
0.0853221686168739
0.0802189305294662
0.0806630782352455
0.0808848093253309
0.0797465963757484
0.0814462013225037
0.0819218722946378
0.0804371141898275
0.0837432175213202
0.0797460629396525
0.0821442587753427
0.0805876540310456
0.0813283059751918
0.0793121204583311
0.0825514066162415
0.081416022761394
0.0823422725581795
0.0809650602699086
0.0823922590259344
0.0808858730324094
0.0786915658162419
0.0828642305794809
0.0820822754711489
0.0801672567241028
0.0805319799318934
0.0809001282470534
0.0805874876874207
0.078693596355655
0.083910080873236
0.0826863294431047
0.0803343208094966
0.0820203711401374
0.0807850537657215
0.0821755269561822
0.0800801064237984
0.0832446147936582
0.0793289967358353
0.0832180392645522
0.0814158316456636
0.0827436651793725
0.0814222487027538
0.0819223679133276
0.0824969372206748
0.0814808407127136
0.0818496831931103
0.083860513783291
0.0813482140720425
0.0792457172467388
0.08077353245225
0.0783563536845935
0.0827772404777122
0.0802773839885601
0.0810110122539724
0.0805752565015317
0.0852428121425437
0.0839926974821063
0.0820466359433635
0.0838657466118538
0.0848769307455197
0.0839322355295933
0.0819085717329291
0.0811614432115841
0.0848578202921813
0.0800741594415005
0.0824292923166169
0.0820103926043896
0.0836593342899273
0.0850101358193112
0.082547425741378
0.0812679004322568
0.082371430773423
0.080331280910508
0.0846922475494874
0.0818211427480504
0.0821204102670284
0.0814976562782346
0.0804554291198852
0.0841329335710443
0.0834399898914971
0.0851571160066289
0.0826158565629536
0.0826629089531743
0.0847998864524289
0.0818511447037298
0.0831052413330822
0.0845163212009122
0.0827481068616656
0.0829363366352614
0.0825765190821301
0.0836958780655262
0.0859166096638858
0.0835023574639283
0.0845361525858928
0.083198515725761
0.085414351809408
0.0881503263872643
0.08464069215283
0.0861006721910254
0.0859513269943187
0.0850530471135958
0.0843657980977881
0.0839018523467596
0.0854550166144393
0.0844404243686212
0.0853476339313604
0.0849508430840059
0.0858328200020027
0.088289226161831
0.0851959018557688
0.0900537848647969
0.0870287324666899
0.0878008822427724
0.0894139569437865
0.0869664844197761
0.0871234392330789
0.0884004128994944
0.0883539310910011
0.0879392569951588
0.0855053029242647
0.0879286035888181
0.0892721091653863
0.0887908464867396
0.0868703728032771
0.0883433197080085
0.0886575308928783
0.0879443193111202
0.0921274347393281
0.0893336011203927
0.0915112333971427
0.0896688156707876
0.0921851202316233
0.088492935117028
0.0895090428094902
0.0888537603226279
0.0907881277880218
0.0907816510098085
0.0906488526608539
0.0921627722985038
0.0898448934129509
0.0891340741915593
0.0907401423775834
0.0896749834578271
0.0910868780408858
0.0906766466285243
0.0920522608193492
0.0906163390408322
0.0940504321796741
0.0900590369971756
0.0912184609399136
0.0909980022913589
0.094039841741789
0.0909926297406524
0.0919693824738543
0.0920776865581464
0.0936467566672827
0.0943402934114506
0.0947341590135566
0.093583163339175
0.094760425715732
0.0934491449040624
0.0933239466211857
0.0929446481376842
0.094522564689123
0.0951047704010264
0.0965652647235928
0.096495564214334
0.0946327878189866
0.0928859492834281
0.0953860407511541
0.0961022676968142
0.0947442332416543
0.0941530684123151
0.0937838289480532
0.0942587887169486
0.094395810435418
0.0960282110819355
0.0936185014963863
0.0927767947405213
0.0928033218887399
0.0940618745921561
0.0937955009038504
0.0909715171539926
0.0921882634935006
0.0929255436658312
0.091730721194488
0.0920843102142354
0.0917138115498417
0.0922341873254587
0.0918303845955436
0.0919322029123233
0.0922413822866633
0.0925641175821012
0.0926781364727555
0.0923999868706925
0.091481191602169
0.0920235151492363
0.0944190694544026
0.0922657475517143
0.0893368007646442
0.0896927348373254
0.0910154127199537
0.0896615855131342
0.090674047089417
0.0929867978816414
0.0897969458857862
0.0917091164991582
0.0904646820672758
0.0909037432558368
0.0926882199827036
0.090689405516893
0.0900117667806071
0.0899111033489633
0.0897732954885474
0.0886723572060164
0.0919033760886369
0.0918506435645752
0.0909979765430559
0.0899612492889761
0.0907584224882775
0.0889468191453881
0.0893447495149822
0.0901434858273524
0.0918696757901085
0.0879167217427497
0.0861750211668192
0.0876356774568329
0.0889408148329444
0.0871987519129627
0.088461512616417
0.0865786591761258
0.0870317387705247
0.0861677017076456
0.089098459124541
0.090133441549023
0.0878890045260113
0.0856989390529296
0.0882569894338954
0.0860295228116249
0.0876204522417433
0.0868636269265199
0.0884584756491036
0.0874079173712898
0.0853300366244634
0.0876569683551958
0.0863372130651507
0.0867218921487871
0.0877792852352854
0.0866014265055822
0.0852401534747603
0.0872523279151168
0.0882414004905835
0.0856241583625576
0.0856550281265927
0.0865370872566166
0.0874333469344906
0.0861926014917803
0.0856894595327573
0.0878695173409834
0.0854688145856437
0.0840748859519037
0.0886803420798907
0.0865779663367142
0.0868233568551433
0.0864971862023779
0.0836332764178328
0.0872894705532178
0.0867620683569092
0.0847169165487107
0.0866593524497498
0.083102106082815
0.0860368824910186
0.0853251257931396
0.0863323622390911
0.0859355063746694
0.0849916205599481
0.0837171871432723
0.0868200266327881
0.0843405578236841
0.0834293143180363
0.0838477043756166
0.0830837340920404
0.0834748403715187
0.0855181670461498
0.0849470032726812
0.0840507787178466
0.0842397342409419
0.0856059983137864
0.0840208911311572
0.0841224642827743
0.0826136229242759
0.0801657403855418
0.0812947933372716
0.0812841472033335
0.0803938410047788
0.0811555161583568
0.0820430165502906
0.0815613522609467
0.0810547874121589
0.07934823034823
0.0793442427150617
0.0791265158176977
0.0815831077268111
0.0800582404481732
0.0780310901661535
0.0787567261442053
0.0791096602538577
0.0773297750674715
0.0780454797707786
0.0771855949958851
0.0791489298602342
0.079192227434436
0.0783143667938518
0.0789958336683667
0.0772258730571696
0.0769729125664658
0.0757578694597837
0.0740506035873792
0.0753287422488485
0.0769834175637658
0.075700484721672
0.0755744628579804
0.0756124303231083
0.0743514661102092
0.0736873680369976
0.071093692514813
0.0720546237157932
0.0748704787996162
0.0724171923424203
0.0725160538213393
0.0755729304638083
0.0735052639808419
0.0714295684981232
0.0724384938020965
0.0710198777730824
0.0727700872583151
0.0715181151983994
0.0731479275411096
0.0728051736416014
0.07076634863012
0.0725728179192011
0.0704626488879576
0.0725933841639001
0.0691359024266401
0.070109747307021
0.07105243909677
0.0713706625783123
0.071876414364034
0.0700195654411405
0.0704306132063868
0.0730131021857956
0.0714160034092735
0.0694445017326479
0.068305435762494
0.0686646902929574
0.0715639497411406
0.0709302112453128
0.0714457694449049
0.0687855487829767
0.0710006916300851
0.0705261319412547
0.0689082326132067
0.0715013889795646
0.0670202057192616
0.066790882209089
0.0677731470197783
0.0671107430580966
0.0698052393436969
0.0698019262702009
0.067015029374585
0.0661858216140981
0.0664568980332627
0.0682811945222408
0.0681237543331152
0.0701285785472972
0.0688058214052895
0.0678113694732658
0.0710678647518176
0.0699403912264763
0.0695661468832404
0.0671842997291195
0.0674204858236463
0.0670238774290144
0.065487533369342
0.0669167664443535
0.0649919114521487
0.066323338266254
0.0662580930715249
0.0653470567021333
0.0678803543795327
0.0669211318635432
0.0652700599582579
0.0654356040439317
0.0689549518974454
0.0668119360685917
0.0672049337170389
0.0641665482799053
0.0652140449753943
0.0657834669731146
0.0670480887793765
0.065953062094704
0.0661225715073986
0.0640531405846864
0.0643747654240845
0.0640500275309885
0.0632583676045016
0.0642307043014026
0.0675486092783446
0.0668452198373641
0.0678868155556886
0.0633777572189302
0.0635010444123741
0.0639564618999263
0.0655361005722332
0.0655000683888894
0.0628408857812204
0.0634136225621508
0.0691909995865365
0.0637284907791909
0.0655129886186139
0.0642302239098169
0.0652824090800969
0.0664790730286267
0.0643413130880442
0.0659725646607668
0.0655325632283181
0.0637502860928103
0.0654938974714262
0.0673655779525558
0.064334415654794
0.0658302316097618
0.0656271663858974
0.0647470156968365
0.0652169896762064
0.0651542251013164
0.0641433997863941
0.0643543289619861
0.0645932218018021
0.0639485583164953
0.0639996744954262
0.0636875920360867
0.0650082188337025
0.0655111013746362
0.0656750669466532
0.0652931480693786
0.0633982710564534
0.0620709328599531
0.0628159574520297
0.0662039303081728
0.0663514359355879
0.0662744854337121
0.0622629273010197
0.0651277097212685
0.0643891927718692
0.0661636877520486
0.0640225461222898
0.0639254053665968
0.066295320605841
0.0643673765245277
0.0654248719389357
0.0642487215872247
0.064737984199099
0.0664498930132557
0.0659095761420236
0.0644237665986716
0.0660092600151341
0.0655812519209673
0.0644383621682681
0.0623663398322703
0.0647453456214562
0.0649835276913336
0.066576513700803
0.0665368814887757
0.0661192876671953
0.0658099530758886
0.0640598955701049
0.065176733815333
0.0653015825402007
0.0662509317707634
0.063757489641773
0.0657836389211767
0.0626435225985167
0.0650275258193866
0.0658080750764915
0.0657580864781694
0.0656674706907259
0.0668245808561808
0.0657379234739557
0.0658023176670601
0.0649100269189568
0.0680938352894169
0.0653251430313951
0.0654184287826511
0.0660442635641293
0.0679598931495202
0.0650643036809876
0.0666727202388557
0.0659496075065606
0.0677096859030774
0.0719751419150299
0.0646877396873417
0.0701439363589886
0.0677495466673246
0.0676693644715284
0.0674494746065228
0.0670218472878442
0.0671707022381973
0.0670906658087595
0.0686698252572129
0.0692124479771734
0.0664092267835227
0.0674643818765639
0.0676713534480593
0.0701004027731314
0.0730869535326871
0.0695027053632058
0.0687339135743665
0.0697952379929898
0.0685928764016782
0.0728549557800592
0.0684626741269322
0.070825982958398
0.0695201156515058
0.0686623449285159
0.0730474152793493
0.0715803537745348
0.0709518940362841
0.0746904194823872
0.0728621983310196
0.0692203257188055
0.0726051975595757
0.0712173287509573
0.0709010839110123
0.0723225083573028
0.0714695821440973
0.073422747377863
0.0730618754412716
0.0723676963470289
0.0745250171035362
0.0727183126719503
0.0743779666754109
0.0739555107443629
0.0724399237214577
0.0742622534906132
0.0777338120373888
0.0763289850181158
0.0767971505442778
0.0761582142764768
0.0757984691712901
0.076249290893257
0.0753756340689237
0.077114041639339
0.078084629627082
0.0714874446978416
0.0811094880699335
0.0775585816588173
0.0825675240122393
0.0780559016915163
0.080862955115907
0.0786466912328531
0.0789777031079644
0.0785397226680388
0.080761730678659
0.0805443249992175
0.0796661536129208
0.0827620636131582
0.0821396982348497
0.0841340563343362
0.0811460396458184
0.0832414012971783
0.0834291763969664
0.0838083077748574
0.0839402376946782
0.08642779571039
0.0812951688047169
0.0888051179682443
0.0856447045510563
0.0856119165561177
0.0885678963406576
0.0843029885349239
0.0900467540697038
0.0904060211703144
0.0882260220590106
0.0887475852851797
0.0879045617570739
0.0898937419717623
0.0882598642746706
0.0939953455567669
0.0922010068964908
0.0905727708030795
0.0928646136440821
0.0920155435332369
0.0946385768573628
0.0959374334663721
0.0945404623272378
0.0963400727494773
0.0977605197840474
0.0978590555765315
0.101588726006103
0.104117926387822
0.0973858509171728
0.109633482494821
0.103536542761531
0.10549488372341
0.100353045718084
0.105998715277974
0.107553585570803
0.112684995122233
0.108148608978086
0.110200906426747
0.110447087725985
0.118293515629781
0.113134097446532
0.117192359212641
0.117340773472327
0.116683594302926
0.129136192794437
0.132848601198209
0.12449447950091
0.125299241203497
0.122441309235045
0.128607869629154
0.130512659326834
0.131825398815653
0.13595676547572
0.135279352383181
0.13796214298352
0.136964717785285
0.137416328315595
0.140243896347529
0.14173970816197
0.144132430548915
0.143894564804914
0.155416264120122
0.153448044203496
0.155591503413998
0.154165899264841
0.153805526491438
0.154499044793991
0.156430694811028
0.159798737324282
0.159098132598032
0.161577180033003
0.168086035401044
0.167761504718207
0.166871688952625
0.174437006671504
0.180905930773485
0.177338605773791
0.187440540919969
0.18239010013981
0.186784516043191
0.185017338066324
0.215784162371807
0.211648275408424
0.209795863470837
0.21709043490457
0.21093116561339
0.239082934489535
0.237778076078989
0.246802194609145
0.255908466722529
0.264179424333632
0.269602040144248
0.280967559060347
0.286160867617415
0.298285801443689
0.302461514947382
0.313405130634713
0.31888988522597
0.341664818713033
0.344568208542194
0.348971210755858
0.349603056123731
0.364111357660103
0.379138571376975
0.386159337670921
0.391039608099413
0.405459564342801
0.397572357812114
0.446592990400148
0.44325049455671
0.449034003831829
0.449875312578824
0.473351735747377
0.474332988521597
0.486551151103808
0.511632135112604
0.507632814448256
0.51568788142423
0.521517060552491
0.535927399991976
0.550735053006494
0.5603964675301
0.570250488024437
0.573911291268073
0.591448854050369
0.591654713599691
0.602311361933436
0.60522527727567
0.613720960658167
0.614931796401416
0.625514435283719
0.648815942291329
0.735346944762711
0.661366389540352
0.638484410624773
0.624661419882109
0.630190216372114
0.647882384175552
0.633476907024197
0.656726052758289
0.676449167144179
0.647713481275835
0.6545898866864
0.655143976502397
0.660987403406251
0.656684077646043
0.667288560632873
0.65710328992719
0.673599996669985
0.660514061595889
0.653035014836346
0.693334856004139
0.659411637020407
0.653748941972835
0.663936828156984
0.646836109920876
0.635745843757975
0.639514120939266
0.6516478363066
0.655608820572068
0.632428235520976
0.62605583012269
0.609955747155225
0.60551938809124
0.630376818900497
0.60372809266938
0.595185271973772
0.577448162558052
0.580949146307613
0.567610922893795
0.568701287286663
0.590962779379772
0.556612740899466
0.53946692515799
0.547650565895627
0.538259258940638
0.53400052989964
0.528087074466439
0.52575470603356
0.513422152355264
0.518532036688901
0.508142861058432
0.504104475700074
0.497951202980273
0.494893386463652
0.496721759633282
0.496596227315448
0.487299992151028
0.486358730552036
0.491689768021615
0.484101635560027
0.476673723753326
0.478138754486532
0.472792986396651
0.476422633577334
0.469902260986726
0.473556391665074
0.467779813039246
0.468603996537035
0.464607105973445
0.466223280096555
0.462643098428821
0.470132641841848
0.470468430533969
0.461709981854878
0.462614257030588
0.468582567142197
0.464046237029305
0.463657677648824
0.463358804926908
0.464197704837877
0.459780375365874
0.45527280915551
0.443829797154813
0.465623974980023
0.46433407755743
0.454740766112591
0.453195010561184
0.455636536109377
0.448571341842528
0.44964094728361
0.458976130551781
0.454549282243579
0.446934703632479
0.446326112287772
0.442255774802044
0.444122028367343
0.440011403514973
0.441470290597062
0.440774029067189
0.432481364051133
0.44151632384408
0.473755222956857
0.46680884692315
0.460931721259516
0.443721045377743
0.435169541824082
0.435444915890893
0.451899320588294
0.441402693581573
0.43995225182188
0.438190687056813
0.438235609310666
0.439183462908385
0.442359102531117
0.435412088727728
0.433638198416517
0.434179295465446
0.445234783676806
0.429459589521793
0.433894224741103
0.441289991969679
0.427234639167097
0.420260938363057
0.446753613222943
0.421558005991511
0.413527189793853
0.411369162656974
0.409692017372097
0.400214459465079
0.428734813467337
0.40556342269532
0.401196042148287
0.399108993968571
0.393819927395678
0.389350036007594
0.389756551720176
0.383499665409455
0.387153195909219
0.384501135599015
0.375620475053093
0.370001344904352
0.376900933895195
0.374761086777638
0.384940302321176
0.367213196807055
0.358113150819942
0.351799603383141
0.363894587819223
0.356840499799192
0.354555903236817
0.347571175057712
0.342186909870165
0.343474140767832
0.337850537510648
0.327500911996009
0.330458691885659
0.319681151811104
0.322183224429412
0.329828616544575
0.326939470352484
0.312439973498515
0.312983189773981
0.310275685241975
0.309762742783189
0.304747742862728
0.306220817562049
0.307041744270057
0.312524498028105
0.298638251757753
0.310987226314408
0.310028140860897
0.30731284886764
0.306164485781466
0.310913362409599
0.308279738183181
0.319751582385345
0.311700692717108
0.323543359061868
0.316499894254193
0.328240439719507
0.327422885398381
0.329950131559594
0.330512981830879
0.338435385028645
0.337243459141434
0.34611916786462
0.351950537885498
0.353401281199462
0.36291548936858
0.370474657331715
0.373840223289688
0.394015444902846
0.386755520903475
0.395016121151789
0.41534944497312
0.417722433778579
0.431432678188758
0.429019125687443
0.42949577822665
0.441724425190048
0.450307916430521
0.453434344227745
0.460108243963997
0.48820532695143
0.472058459235958
0.481427119408258
0.477713307726945
0.492314383703493
0.483789598112536
0.502325523012391
0.51162116194803
0.50723358251879
0.510193284050846
0.515249369589101
0.515716473786216
0.523870045793976
0.516405865733091
0.528180030399648
0.517564968086775
0.52786075326478
0.524544539223694
0.536679079714933
0.540371050949866
0.548352583757574
0.534169579172051
0.544170975625804
0.545069050636753
0.558012524550479
0.553200796312763
0.559329421644437
0.553418355106303
0.557740910881688
0.547518993963492
0.598661414673365
0.572203871815215
0.573486546998774
0.574704537782345
0.584910751613479
0.586002041118327
0.585949991806096
0.593056311944312
0.603465082382682
0.600229451317184
0.609970284877783
0.610404480633719
0.61341007624861
0.61460916042714
0.625692455443431
0.615036860585541
0.629283776595028
0.625533110443957
0.626535076585744
0.644294042363441
0.63373673068236
0.639506766549511
0.647904731652734
0.644207825957154
0.656862931683972
0.648063677550487
0.655896072592615
0.655275358227088
0.663105888639887
0.654588341454315
0.651857556112802
0.647229304605218
0.6573090924757
0.651309937534173
0.659961694433428
0.660863667912028
0.659589715477992
0.649664686298121
0.66088183630822
0.647412978357699
0.664547908963935
0.651729342074129
0.647735010439993
0.65049805548995
0.644733828720836
0.665020924069401
0.658270673987405
0.644509212510541
0.652143985728296
0.656733093357778
0.664502146630402
0.652803815799347
0.657621705519033
0.666767793319798
0.667713261680755
0.660802542075577
0.669087903482962
0.669561011475218
0.67396998104714
0.670351283159192
0.669723645569428
0.673120105198467
0.687972331118062
0.689770164295268
0.696973462012123
0.685353635088927
0.68419152077686
0.68115180649361
0.690825068691716
0.688099329968997
0.687771217306779
0.680555266866213
0.684308073397082
0.687234833400659
0.684224665137131
0.672940827779483
0.672164249479286
0.667910143166755
0.658435223051922
0.651274743199529
0.652190565574631
0.644022449996401
0.637870527182885
0.641586319558178
0.634468957817752
0.634269666533828
0.628382539186265
0.620283186551511
0.626706189771426
0.616753195193313
0.612851384520728
0.621250562574292
0.611564182312678
0.606566109128714
0.60279007109603
0.602579226355709
0.609055840613732
0.606340884910731
0.606966053580657
0.598525862135451
0.609087964288571
0.601574421356376
0.604592555388049
0.605268153769015
0.605197634082901
0.602092043681267
0.609285329852253
0.603590940808634
0.608243804554955
0.598296746645592
0.594659982927633
0.590348670084572
0.593618836687666
0.599619692199475
0.602452746437337
0.592647929998894
0.595693597076954
0.589578694995619
0.596024891943671
0.599526827098905
0.595354468505599
0.599962088967939
0.590660900988384
0.592843465824514
0.598213219613301
0.591509966515773
0.599570912166494
0.590938798296774
0.591176115609605
0.591298647672309
0.596112311085007
0.590596052120099
0.593381419604517
0.595731033445021
0.590349042319022
0.585731080380282
0.590247427107076
0.599665390536712
0.590884760827013
0.589166513406946
0.587688688413795
0.596579447562507
0.589214421271525
0.582549985253517
0.584858468239361
0.574297293923346
0.579889768256367
0.572724186817538
0.561801635518452
0.56181328395622
0.562713152817816
0.555012147429691
0.550465715452563
0.548721222425848
0.546203786089791
0.538436187645706
0.536718902507357
0.527950038345384
0.526471749722198
0.526203086504886
0.520585817805562
0.523982953581569
0.526646254166982
0.522120106293388
0.522019010994683
0.518416087240722
0.517991486376917
0.515484774377998
0.512443849874839
0.516363369040143
0.518941249309511
0.516485421375247
0.521385290321248
0.519080265096271
0.521128412014979
0.524229612338115
0.525356376335485
0.526527451219325
0.529343244849953
0.529631361719002
0.532405541826514
0.528907668419887
0.537456871809094
0.537273722995558
0.541914640034772
0.541572661790258
0.542542391105057
0.545915005710622
0.546497452645266
0.546526834408232
0.548247866008248
0.546332216674767
0.547659953116456
0.548038340852834
0.545685053159653
0.551575487598186
0.553732045439331
0.543054386931071
0.549720444622828
0.545009711933573
0.545681404776503
0.546331617779401
0.542885114826237
0.543077206801542
0.542551425698508
0.538542971025849
0.537414481544354
0.532167224497509
0.535164195870801
0.532553470613793
0.531744291643368
0.528132035323702
0.528838585405007
0.528341819188765
0.524111071928298
0.525351620047345
0.523447032117058
0.519181360681586
0.521236150181664
0.52068837952653
0.515026407925237
0.510084721970916
0.510223015213881
0.509739865403151
0.507864967041526
0.509094839172392
0.505703048184351
0.505412778707266
0.499769472932213
0.50083341283681
0.497606777276357
0.496772445787183
0.494870466491043
0.486777674198235
0.487316434167204
0.484043884395423
0.484996331360827
0.476854595017283
0.476945624648227
0.47409625982024
0.468237558294427
0.464929382300122
0.462122986404298
0.457441445297734
0.455741162394512
0.450759430817287
0.450560404410303
0.450044202038453
0.445962736642131
0.446532718850601
0.447897953253222
0.445643204046482
0.444479258280171
0.443400608396826
0.438905957790315
0.435203529439747
0.43330459723429
0.430244033937143
0.430884244279925
0.42856050252705
0.422506155160728
0.415066199845156
0.409188937462073
0.40506087263182
0.400947609978449
0.393636671910006
0.393234691029568
0.388793976302395
0.387604836319505
0.383713868688889
0.386303405520143
0.388354575323912
0.391585019157748
0.395285484097561
0.403449092391107
0.413361116550991
0.423752595346487
0.432905730498364
0.447170716357825
0.460957679592122
0.473226948836333
0.488275696068209
0.509512188688908
0.523336861622182
0.542944350403189
0.558424698272547
0.578831556015158
0.594830384002218
0.614401292303595
0.633208051567282
0.652690823664955
0.665649135521373
0.683202908641266
0.705764397426371
0.715049756780584
0.731291662668666
0.744481523050157
0.764573807142672
0.773668131543616
0.783335773015385
0.800469312808654
0.817532078319475
0.826873311156652
0.838067077795181
0.841049785058839
0.845073806212675
0.855944761810218
0.855067755058124
0.869209261302147
0.863912464526393
0.866685286765733
0.862573517439919
0.869879325216198
0.864237631971522
0.868533616107661
0.868186194289065
0.865836610114382
0.86366512564487
0.86906391970254
0.870093350234879
0.873566212638584
0.877841299685396
0.879203221081276
0.887883288902689
0.879641441895767
0.887922836302646
0.892154440347852
0.90962669621011
0.912738547768529
0.921038402530928
0.931721138841941
0.929471592154187
0.942073439129901
0.957592820721028
0.970990189726594
0.990472127882689
1.01551030846598
1.01643170889613
1.0221002784211
1.03397234087223
1.04344752756665
1.04515172227136
1.06063640261235
1.0736281272168
1.09162117241896
1.07023501301645
1.09033029139319
1.08465472564573
1.07463243829702
1.07934154497769
1.07405104503025
1.0657691753102
1.0537209750909
1.06330875177103
1.05956643710753
1.05512325262986
1.07189658049404
1.09012026623657
1.08030403588892
1.08460151848257
1.1124619342611
1.12807501720932
1.13915789868216
1.15528485600432
1.1618873366848
1.17732716821661
1.18812449702307
1.21641348238472
1.2314951736313
1.24156930707681
1.25824251917259
1.29835941585009
1.28308012251382
1.30410297730727
1.3547132804295
1.34301844187272
1.35581404423477
1.42956785396321
1.40951338828893
1.41091740465007
1.43764282496529
1.50374914616607
1.49294263145965
1.56040145174292
1.57613991931488
1.53898987512826
1.58033826456697
1.60363686987215
1.63864772810024
1.71300536948071
1.65477530970333
1.69055165501407
1.69473404922285
1.81667578408807
1.70511487341641
1.76839511095116
1.73651397666571
1.70820529649138
1.71423975956343
1.73057151063606
1.7642397697324
1.68904250386611
1.68500467777202
1.78859753648079
1.74888894859504
1.75976635091686
1.76894382173024
1.75596140497664
1.79047944521963
1.75797208414963
1.71652807198557
1.78081024096226
1.76417282867842
1.75993323899432
1.77878199549249
1.93686520519559
1.84818650579359
1.81813489164279
1.94301332629362
1.96169255183141
1.84738151903771
1.90668118698793
1.97424284799877
1.97550149849343
1.95677782793692
2.01723203855305
2.15423648203717
1.99994916754068
1.9582675876813
2.08101105968595
2.0114528505458
2.08619667042537
2.02013245690619
2.11242165957665
2.0287485456593
2.23077806912861
2.1131963445793
2.14830126709185
2.10217077592756
2.1717817215976
2.26340074010294
2.37621098083616
2.15138852668716
2.03287575798617
2.14292303914893
2.33634705074082
2.28167347433637
2.06826120443217
2.13987847475341
2.11316355159375
1.97436281101713
2.32723961880165
2.07577773230872
2.00985047102978
1.84380445573212
2.16525642480708
2.15246974206976
2.27728833723644
1.94747537686607
1.82325689939119
1.95309613501247
1.83945406556909
1.74148973324615
1.71008241873314
1.6731405517891
1.60554215880405
1.5280030626347
1.61506322184956
1.59630631131977
1.5477100207013
1.51869453383675
1.51369341331029
1.50646271840774
1.49684293158012
1.52334112214229
1.56315821430628
1.4558459955268
1.46840896408582
1.44729032158337
1.47586433627114
1.41651812370424
1.50003591273324
1.39049992417746
1.41328386949662
1.31733667026048
1.29329859021149
1.28038345445998
1.21291817449177
1.21238678553174
1.16591365413322
1.10745629436862
1.09921809197837
1.04604040242491
1.01069150166755
0.967010864841416
0.91583291210609
0.873335320313287
0.843017136926309
0.798120901882389
0.782165380424364
0.745769766689139
0.717463515013541
0.698211035184777
0.671691391289379
0.644854965424153
0.62203618684969
0.615011420148213
0.591069204352131
0.572952210565253
0.562470065256149
0.553097989557413
0.551070575378331
0.542800981687686
0.535549096331579
0.535284865667566
0.526118963355832
0.520396608115077
0.524527813953926
0.520328100346805
0.518817614448566
0.518505363170962
0.522745711279425
0.516383995580276
0.526786806223335
0.532841624014286
0.529347170402282
0.524335357849995
0.52928668696999
0.524923381513335
0.524485967094519
0.524472513975118
0.508572268422908
0.521995538343122
0.515997878204293
0.515776560130417
0.51087111449944
0.505725621263052
0.507806259655747
0.50241044623016
0.502690445785565
0.497591823159773
0.502901550351731
0.488856681003236
0.503490347597677
0.505941060109385
0.503591475250578
0.514861569116146
0.508615961425455
0.516829406515801
0.51767836589438
0.51892703911997
0.522914697624147
0.522158500050873
0.523339352113527
0.52626632977492
0.539494314207765
0.537477698377743
0.539054508469794
0.540001732934347
0.546106663460062
0.529082257670612
0.536560529309726
0.538333259381948
0.542345821803794
0.539584215517779
0.542964875355174
0.544654726479164
0.540696636240104
0.55568391262051
0.558759898315413
0.558514068939841
0.563363070049098
0.572679274535291
0.579978960047958
0.588116299469543
0.606949013463243
0.609672226089396
0.638647780183747
0.639829679803718
0.655794920416031
0.675300377935512
0.697995579522829
0.696409607503219
0.710713547057419
0.705928102375034
0.711464888762767
0.685093602058264
0.699109496349078
0.675995210915565
0.681822029130677
0.664548175819652
0.662967418036065
0.65859380192278
0.638680205099029
0.639272170986638
0.63513466873167
0.624013111135987
0.629795118854158
0.63352889718458
0.641091737997595
0.638673372731125
0.647762811466652
0.632187235430088
0.631988920529424
0.631989876695967
0.632173907335513
0.620826058371527
0.623434205452114
0.622832219347986
0.61827556106162
0.606031023597899
0.59838845585673
0.591800678593046
0.593775933714389
0.594301304093091
0.582739004417064
0.582683048005812
0.573076274824243
0.581483874955965
0.583800984139719
0.572982881391141
0.571400306232225
0.569136428116408
0.571628747678685
0.573394317102881
0.575339030846486
0.560762369819117
0.550502648611693
0.560530549174624
0.544652125105524
0.543922680394677
0.544690071699325
0.542170231655268
0.559385160871499
0.558543608593846
0.535076525508737
0.53820406939847
0.541160805373916
0.535166240534152
0.539215682296698
0.531399183858295
0.534265621609939
0.541717258975056
0.537724710986266
0.528471833368761
0.532137682384465
0.532913395306982
0.523558121139249
0.532791321290359
0.52511822501604
0.510348887571226
0.525253933575104
0.51845418022736
0.531377339115992
0.524735355039402
0.529428727805832
0.519708444903568
0.531485098335207
0.535839738880809
0.540435322725281
0.521014599665996
0.536290058182052
0.52707965827712
0.518931488316157
0.526549001535254
0.532451692129916
0.524295395231798
0.54291223778253
0.543468863838462
0.557505257628017
0.556141632287372
0.565361900184799
0.549676320174498
0.540014445586789
0.558982406902484
0.557293740616874
0.560623861255844
0.598001672360132
0.584603627372272
0.590985372929257
0.598543418852413
0.603954859132118
0.619522286085437
0.619993302693233
0.616461038310421
0.616759751901801
0.663815754712544
0.692362894297509
0.682382690853417
0.702004232987776
0.716105863436697
0.776913269767635
0.750127322634106
0.773646400250951
0.783581928771754
0.831948820554552
0.81017201167686
0.815878567469765
0.84880984321285
0.857968826940199
0.871176627530621
0.885804069908783
0.843515043730226
0.887531182799987
0.900501663914723
0.862565082172589
0.819128383422685
0.821176464158128
0.811852825294717
0.856279843638242
0.826853904347565
0.844789990546443
0.847913582937286
0.865727123693684
0.834852278727442
0.849632100047676
0.818997855392784
0.837233153139146
0.884315878597485
0.894769949082882
0.82256500607706
0.827178314437027
0.852514229587183
0.877941239854072
0.845650192713234
0.835692293210896
0.829912641443544
0.848791221388463
0.795693298205101
0.81611610424099
0.823101434098259
0.818077177143569
0.798833394130886
0.82236052223376
0.76417084500996
0.781641824384863
0.835412045811733
0.824850860761624
0.775617576002273
0.767024492769616
0.764640328701118
0.789773405710251
0.77882278857055
0.768216630534379
0.786490219362985
0.822056958270212
0.790227798753566
0.808456128653035
0.781962927004848
0.773542611985968
0.769346167095876
0.916528160809899
0.920722549556768
0.884382435514879
0.80962296467474
0.805815453775328
0.804288994139059
0.839858269354201
0.853782704503041
0.776579926882327
0.830339086732532
0.857529783978491
0.865435233446975
0.921540767120645
0.801767889354769
0.874283844735336
0.850168590482417
0.915063652219134
0.813611766638536
0.842436549316207
0.878522813121515
0.893194811164625
0.878073207015069
0.94335420158164
0.970326619111084
0.971759378024844
0.961782927032821
0.964648526126302
0.891000586830951
1.09660603229623
1.0403007443163
0.96362268294963
0.983007999000963
1.00453372231175
0.974142616167315
1.0302906304775
0.942489752054167
1.12625797837802
1.09732307369368
0.985130139893653
1.04603708885747
1.1917585820057
1.21190160641126
1.06985045008424
0.931524007840196
1.08750931749768
1.08041266838597
0.971738867198759
1.00301833697915
1.00921813298995
0.932217652339371
1.09707806810908
0.969471371497956
1.16540254060352
0.955173880110227
1.02675392971766
1.07032791540267
1.16481814915879
1.00345074871859
0.90183888884758
0.819744690378487
0.844023521562123
1.2662753271661
3.05266102495757
1.46936450915936
1.31591414063657
0.852081746546562
1.13382514659119
1.13787247069235
1.05822160797585
0.899034102100091
1.14587305284666
0.954307451501915
0.977651858276909
1.69822913620607
5
2.80279350732233
1.03539257699534
0.662529686004705
0.915834398674282
1.02316562130206
1.16362129039282
0.665106792255964
1.50836165231234
5
0.766888990345799
1.30848005830905
1.08064565076398
0.713153273296132
5
1.32548667419006
1.16523010360135
1.05340615788718
0.756928897532161
5
