3596
4000.36533379555
650.420452594757
1
2
2
0.0174623154126124
0.0129770367350805
0.0108155412807918
0.00744555692821547
0.0153178724213522
0.0117488961695691
0.0195158303359372
0.013202034371672
0.0146289825586339
0.0080765638315362
0.0121724299986356
0.0146818131614792
0.0215944871511762
0.00888764610627191
0.013820433223585
0.018151642875294
0.0134885717569879
0.00806370227759109
0.0100446431953301
0.00694853840962334
0.0144037510350577
0.00993212144675735
0.022951752184779
0.0107126620802293
0.0151196535799898
0.0144243488098478
0.0169080334575247
0.0159318549473814
0.0149041705925075
0.0157247303448552
0.0175770832014747
0.00701852772362225
0.0115857984217655
0.0206908598041694
0.0167235668393207
0.00917888724856503
0.0188450658589641
0.019252157851974
0.0214027602650005
0.0130422958248677
0.0141233498474414
0.0125880780968252
0.0137980139333714
0.0119683299309209
0.00637368580599635
0.00341638300031017
0.0106286835884663
0.00984354136038513
0.0123828115412905
0.0142627677424231
0.0171007236621827
0.0112921185195472
0.0189529651660728
0.0135261382507287
0.00405727321947062
0.00668502714504084
0.00961034300483232
0.00774615343750904
0.0158832464439028
0.0205872680445591
0.0127410017483597
0.0128654395184986
0.0190175438532623
0.0147531578503667
0.0181853989675386
0.00861760162461141
0.0125472343278915
0.00988410494252621
0.0164014122453488
0.0179947239884734
0.0143870469650978
0.00893351408186967
0.0140054197570352
0.00204874277757286
0.0210057660775917
0.0124757734361528
0.0128043416886089
0.010981078680652
0.00981237100415506
0.00896226922260879
0.0174825575423091
0.000198674016674092
0.0159930303480674
0.0111660334456087
0.00961147824996676
0.0112855683486639
0.020909841298519
0.00782821189064691
0.0231939966701882
0.00765896932329964
0.00747441867105111
0.01159930268743
0.00931240927966008
0.00918932894334413
0.0152321362791867
0.00441445665231169
0.00895845154240091
0.00346444083262503
0.0128954030560305
0.00727119729820086
0.0150480058474186
0.00956556244426732
0.015748253318985
0.0104912462782841
0.0017669729090885
0.0201949417193889
0.0039013102304772
0.0173114428516555
0.0198230112254095
0.0118076362518138
0.0136890819625905
0.00673212193060028
0.0062798145981258
0.00311456535761562
0.019254984861263
0.00682745633453015
0.0155139210425337
0.0106409880203721
0.0148815005707303
0.00917105943576143
0.016548531927933
-0.00464489243840189
0.024133561891671
0.0143873792432784
0.0139462372065342
0.00803343174560192
0.012911928741526
0.00134566237214376
0.0113254965038707
0.00911959634036738
0.00794038649160002
0.00767484705234641
0.0097897672615239
0.0128906459601898
0.0238578225186409
0.0127637782573912
0.0107476781212745
0.0095662633511077
0.0054517183741221
0.00429174380214533
0.011675857779917
0.00851200508045094
0.0112640742618378
0.0133268426948023
0.0184644577343071
0.0026521453395555
0.0120993957080651
0.0131624200743312
0.00793540918380154
0.00477658067356845
0.00858438102548974
0.0170034643192124
0.007187686895295
0.0134703859405835
0.0144860064717039
-0.0164198308153311
0.0146181818216864
0.0165138196495763
0.00897400175029958
0.0107811616759067
0.00459961333497258
0.0119818245182844
0.00152289873078303
0.0125256563316475
0.00291997555072925
0.0104874249996076
0.0127083371756213
0.0113808239523661
0.0148414842301219
0.0137722329279013
0.00909094090983534
0.00613418514821793
0.0120237587708181
0.000262797311480148
0.0118976774608727
0.00841900438662271
0.0168896458469534
0.00623270125152116
0.0119526650764347
0.00265616694934207
0.000269465580926439
0.00855272415558611
0.00507414842328146
0.00688125687016184
0.0178625197787364
0.00212547421547859
0.00563721307190251
0.00545135909407502
0.00721360879115104
0.0041306026595832
0.0129261203248817
0.00869188332334358
0.0137810865516045
0.00872225622257112
0.0105457471271854
0.0160163455675598
-0.000590194390337682
0.0113887338394214
0.00723580489461136
0.00497002286191155
0.00312532145802221
0.00617250114673501
0.00814198303366851
0.00816019677164803
0.008047611667633
0.00764121232692707
-0.00666637224330607
0.00908122904981382
0.0121955899824626
0.00696792632801503
0.0139108761932538
0.00854643097675861
0.00830123973743014
0.011986563813812
0.016556779686523
0.0153823697629955
0.00184889018479039
0.0126886052472812
0.00928086455636322
0.00150741153594245
0.0107227005474015
0.00638532551506753
0.014067625619676
0.00420488058617254
0.00542973344402871
0.0076008817484126
0.0130595322047846
0.00983607885487029
0.01175674110101
0.0123229481531703
0.00936869749244099
0.00944968457203773
0.0166276959633287
0.00915474916034638
0.0124180847397368
0.0134525721796809
0.0149117546480231
0.00677267411927326
0.00899906079181927
0.0099436895047983
0.00359100832221701
0.00766136415366132
0.010134902889244
0.0113761083452037
0.00115699385139396
0.0182443113417325
0.00700645191939504
0.0142086229017382
0.00413719390866836
0.0235006617662989
0.0140747655228075
0.0206424709814284
0.00594854629819522
0.00798695882943479
0.00900770062447106
0.0198268980268996
0.007657950761906
0.010645004439442
0.021944782917923
0.00987010498085552
0.0101833965674792
0.009984492667292
0.0167702205537986
0.0110222109917254
0.0135608803338844
0.00662068511015089
0.0150646924322204
0.00640277114251371
0.0180928440118374
0.0106678518378469
0.00880569759039143
0.0185148143477397
0.0135959825312886
-0.00400967947942779
0.0170930860485529
0.0189627247260045
0.0194552776099038
0.00963177596644679
0.014018892014441
0.0120879712617635
0.0129564780464069
0.0212530518684249
0.0138934104512747
0.0170566954190805
-0.00345140763717387
0.0319751687749792
0.00995893695829361
0.00902755168135795
0.00665237471022409
0.0125717609585019
0.0177214590016303
0.0134671891461515
0.00855208491972712
0.0138113249873988
0.00992766925552392
0.0154320753487029
0.0166108795068549
0.0146316316274537
0.0115220689480039
0.00905413416730661
0.0206938339527301
0.0190293183851608
0.0177115363748115
0.0178876546014095
0.0122538642299426
0.0191348824746306
0.0228176644253925
0.0122579252296363
0.0114981427888012
0.0184598908262836
0.0173072308030489
0.00818744112900073
0.0160085586231142
0.0170475401316059
0.0140935128526463
0.0204845371997812
0.0190240671073047
0.0116063746244423
0.0161484894291616
0.0127293991759708
0.0129004904776545
0.0194494416912785
0.0215963700767354
0.0120769610499232
0.0123795917484602
0.0223587579010995
0.0175325553770691
0.0152209405806039
0.0143444814673818
0.0197853271100166
0.020654806515343
0.0199697806006801
0.0256256990880565
0.0204783193705273
0.0184702137583482
0.0213603095565297
0.0259336918967517
0.0255686085861313
0.0208447595740929
0.0229166147496202
0.020030363841683
0.0268438036852808
0.0238278962873151
0.0248704198438379
0.0252678720055593
0.0290991606285938
0.0193938411128748
0.0353788138285707
0.0197892484106057
0.0327941624359422
0.024803389782043
0.0338131826704878
0.0280305584566717
0.0276112296350495
0.0346135813175626
0.0265185779962347
0.036150870163832
0.0296570203325506
0.0338800874399231
0.0342030611671194
0.0386743111078586
0.0300236242897827
0.0329350011304383
0.040271843913257
0.0412025297679902
0.0409952863176846
0.0401377487588119
0.0460947866256076
0.0419304220595704
0.0417826551848946
0.0559710303956565
0.0435880872275961
0.0529527550380292
0.0511196213859554
0.0566508500127768
0.0543354233881635
0.0488076838408941
0.0610188181336055
0.0340663593459521
0.0570704486695521
0.0530134854343538
0.0627834718531052
0.0586217856055711
0.0588574684513689
0.0584014839092423
0.0655737320292303
0.06360996459126
0.0757849554846243
0.0639958074895457
0.0720131032623544
0.0696135840531911
0.0853244354440388
0.0744651383368177
0.0811412576806529
0.0742647373455976
0.0801942530163797
0.065954475358308
0.0931221422362407
0.080607113021742
0.074177012020833
0.0907100367556735
0.0839414073374249
0.0892070727606478
0.0916835112936928
0.0933946844799333
0.0917395581246815
0.105943350483604
0.109135367621709
0.104980361751897
0.108053567467794
0.100794262893644
0.113005485523954
0.104876364315596
0.105590762377088
0.121510824779704
0.11982669078503
0.105151630743431
0.121276674072261
0.12046084929865
0.122288835538614
0.128661515308643
0.116511718490177
0.130612574726865
0.1311129703628
0.134521368167998
0.13932341673804
0.131661826586593
0.134923913780434
0.122486068636043
0.141425973195625
0.142767322124508
0.155894484198241
0.148810658183541
0.146079799004047
0.148437833369017
0.149962778257122
0.157047147685209
0.17264008469631
0.158165948312543
0.163417740067856
0.173140997170968
0.171843360771522
0.196557461957982
0.166314210724175
0.161087427512957
0.176686185018969
0.173128188187076
0.184715615597245
0.18518720922075
0.204022473200105
0.200022693376139
0.198748557101065
0.195235794655273
0.197870711801187
0.202181306491369
0.213875771501651
0.204249404240639
0.221487707926164
0.210264265424875
0.223646773895712
0.219553608866334
0.233748069094225
0.226702258273636
0.240382236879172
0.236775696962694
0.224241444885436
0.2374313098981
0.232053169124365
0.241559330053664
0.254554832673305
0.247470102169298
0.266125101398189
0.259856735194488
0.270233299542108
0.263933878689776
0.264175607381046
0.26952001683407
0.301039663886213
0.258944594082958
0.291596527231808
0.2832956177929
0.290326186144735
0.289542018953844
0.300623180868401
0.287470587327648
0.304251410223267
0.294418950491193
0.326754783951295
0.296524119118546
0.305010927316059
0.313895735849564
0.318792120754824
0.316281966786551
0.352288009666116
0.316055840195711
0.346819844355821
0.337951878681152
0.344794625127807
0.352625037477692
0.368728620127608
0.33699623033232
0.367352738154106
0.359350089194179
0.39071764393825
0.377556189064382
0.376314051641083
0.367062230069084
0.378967015309923
0.392691610310403
0.376410538189054
0.373869100825085
0.407445346643915
0.402834020005576
0.410387245214675
0.386235560219635
0.414910513455293
0.42106434369266
0.407549425591929
0.418391017197231
0.430043051391302
0.404738774512461
0.442744301453453
0.428625210146848
0.471629492715263
0.446750908027725
0.461152397051608
0.434303075293776
0.45647743978264
0.443389025447419
0.478981290301737
0.476118192155218
0.481358420384508
0.458865736196872
0.466533629548324
0.490685903682356
0.511310807551648
0.480759000258423
0.509009498203434
0.500924828222217
0.503428742039627
0.502767125198144
0.516119640808058
0.493503125681699
0.531335758179534
0.503401081025632
0.521905014875031
0.519654660399302
0.563067954674545
0.524765539251377
0.552570856527052
0.538546610639562
0.565538586700315
0.554084175490917
0.555282299556992
0.551063910752042
0.601059241287038
0.560613265526346
0.576980739549149
0.548621250789423
0.59820577664785
0.587984411083157
0.596997386776796
0.577152222988234
0.6044623492706
0.601732144627196
0.616409197132447
0.592362183121123
0.643078729085886
0.607537948760291
0.619702700525199
0.58943720241738
0.659329484696883
0.629475800459465
0.657808727081528
0.627890075756962
0.648236592232931
0.662807126981812
0.691296071771838
0.619698406263333
0.658329828661671
0.654240323695243
0.67045853945638
0.646165330058712
0.701496045136038
0.664670117824925
0.731224228376231
0.657973187071079
0.720482245277097
0.636017050345438
0.707015694317313
0.696816286694275
0.703845746755531
0.712459111170882
0.738755182222082
0.730773280476674
0.712624037179635
0.708780483013556
0.757549694742174
0.698833945192468
0.741206103075694
0.69381945537499
0.730367453463405
0.708483076755789
0.759481235965291
0.726208762098853
0.753200863739837
0.734706327054465
0.78321997625575
0.732882135125403
0.793807453613171
0.740209601160106
0.757459562298873
0.743462149737152
0.769711859952958
0.783762388548479
0.861265505104575
0.787373964748791
0.822341965908403
0.794008041187487
0.82060198342507
0.788219787307751
0.826339222108028
0.790705955908341
0.824675125365969
0.791921496366614
0.821265759055848
0.791559141351267
0.780832779859428
0.77940010888647
0.808561939182035
0.801214053428829
0.868556284371488
0.820710243724999
0.836414897298208
0.821895441859483
0.859149793207295
0.832776965922905
0.904708238127384
0.821433221305821
0.836391883974018
0.815215155674599
0.810661892335682
0.820080677459743
0.875100406107021
0.796211178403842
0.909644444084886
0.845318146832106
0.879686293768631
0.857917277838123
0.916035736611033
0.822765921180544
0.874347861624946
0.832379297208235
0.916828013826029
0.898042086176898
0.926090568101589
0.901443795129545
0.893683160718
0.873798512847523
0.904955842381389
0.872000743405714
0.921469531509795
0.908570706927001
0.91236836118686
0.872851865339805
0.92127820117928
0.921953582244794
0.867816011927006
0.860513416012772
0.931793783336601
0.8800943553637
0.905458567471314
0.868768200697202
0.953733768846126
0.90083615113703
0.946549055876685
0.910029466268762
0.933794603203468
0.898704379864948
0.906697648326722
0.876534833954003
0.947340141364564
0.898528562084196
0.963539565495201
0.922150278505638
0.924154915808297
0.912285106700761
0.974896726261935
0.892918383619379
0.957321977411676
0.898164673388638
0.929725852409641
0.967350893690654
0.971692679400461
0.939932142131186
0.930526896837802
0.904501663287446
0.953567999929598
0.966745742311801
0.995103263049383
0.958260397909009
1.02432589816756
0.927144386531404
0.966137769534353
0.928994220980552
0.970127279256858
0.919318252582348
0.965078602105281
0.910694419658596
0.95884593414395
0.925948980744439
0.941579222848635
0.928223772948939
0.977004198282682
0.954164941360243
0.984105962955446
0.916620988305083
0.956682267540415
0.929688667541027
0.939451225929462
0.928069958725902
0.956512659876305
0.953192274140998
0.947645511312603
0.981772998223839
0.954134079582377
0.938158941157158
0.963313188946774
0.933331210463454
0.926118533881896
0.940630811402451
0.930555376158201
0.923681106896915
0.957126152751433
0.941889938025358
0.946884411499988
0.92147492714741
0.975628829129853
0.916419275568171
0.980226635426178
0.925098133949269
0.999253476578394
0.964014385438841
0.956044657926622
0.946400994411882
0.933128008663445
0.909810863315727
0.960769947022053
0.912169146454386
0.97761993181681
0.91795533038391
0.973263157392307
0.903851679905873
0.943585933114462
0.934369070697218
0.919106728683159
0.91874521283699
0.966745154142073
0.942141280745456
0.966359349014531
0.924746265525254
0.937945837653547
0.902574991107449
0.958173264912758
0.943399150034777
0.944662735414791
0.936363040466098
0.94639389917651
0.898515386376672
0.954535251277995
0.930922527382692
0.912183082979329
0.933000616673037
0.935470664249072
0.934221202862332
0.938478755072591
0.900379794858406
0.909860073070291
0.939339494626597
0.902625955975028
0.905960478493091
0.912172240450348
0.866216245659435
0.901137936867577
0.92766237358505
0.957187662681685
0.913281943105499
0.920547839236177
0.912542242119224
0.917584508545194
0.887410397716187
0.888318548049318
0.884979568339549
0.903438114381695
0.906096426120767
0.886402391279318
0.857488884086856
0.8878351354263
0.845352323043435
0.889158359477398
0.900011589142157
0.867711424996028
0.864984028447953
0.884390103099539
0.85923379295976
0.88117420713577
0.863199878750593
0.867856247933253
0.851090502471868
0.861579924021081
0.856342198930508
0.879752375564366
0.838878358252012
0.859722106650819
0.820539454371165
0.836475917913763
0.850833990771087
0.857953318364277
0.825548058788109
0.862404707141638
0.825713773185622
0.809194146915458
0.842904833489624
0.868390707147911
0.832439952111985
0.82925160645199
0.817185571382693
0.846123673127039
0.807744337810638
0.812519242835172
0.800044051814853
0.821182587504866
0.806052190139274
0.809631212386032
0.799792450178578
0.825622367654748
0.791712072885199
0.786130671116295
0.796055780388577
0.812265207614422
0.810091566299474
0.797476690252275
0.785551755543108
0.818962615408509
0.777615405635479
0.784790235048997
0.772735685685974
0.773747829402135
0.750719921674696
0.765624533378234
0.773736581766004
0.775419030313312
0.771715434430981
0.756057992910699
0.767973618897825
0.747388965374034
0.735857248403916
0.755694026324399
0.742257794661874
0.742387036586648
0.731297771332229
0.752987971024987
0.738075898595274
0.740436729927721
0.70374100206773
0.723945731711181
0.710945943820275
0.703636243959851
0.706709230086195
0.724332823342111
0.710509646937261
0.701946746932657
0.695148867505313
0.695763911076594
0.681256573253476
0.690750172210098
0.6845968153733
0.694946644920709
0.683347414316573
0.694294844133559
0.672089329399797
0.675750336461726
0.680466396486334
0.681887713599204
0.657140568791299
0.659440203518192
0.674622944875788
0.667635957498168
0.662426621328212
0.649595226424789
0.641482892491094
0.662338119722448
0.641974335106313
0.662745265797331
0.625349238997082
0.633020375930395
0.632182678602987
0.620520558253449
0.618442384936614
0.622216885954606
0.608010833833536
0.612302676677072
0.603108378558577
0.604678258811639
0.591897027032176
0.602779456211021
0.60217981416483
0.60702240025372
0.588233809411229
0.597700031760666
0.589162956784195
0.598014389215227
0.599399185362359
0.599014113472559
0.578785190901512
0.564210521296104
0.563029202002909
0.573091023540483
0.569886372475762
0.55911321519303
0.562452568152033
0.558374219732165
0.551588264914002
0.555980900875629
0.544875202927797
0.550553118518623
0.540658904291718
0.537448322457754
0.529023722771426
0.526830253910493
0.525628178626319
0.538578523492275
0.518023039254914
0.518609326533452
0.519096809788477
0.515954135951686
0.509252306407629
0.512055792666368
0.500029041705161
0.506749527947902
0.507675264066315
0.50654933569669
0.491604271401355
0.502467677643707
0.495317309341145
0.488300921486563
0.478393812029772
0.490754762992607
0.488966105056329
0.483914371130991
0.478911471766503
0.486090562923473
0.476481962320473
0.476058886201362
0.475681083682766
0.465193352874733
0.457083955425972
0.46491207071876
0.456085188328384
0.460614512130088
0.4562861537668
0.459749322376898
0.449573246129636
0.440483292024239
0.442667713906225
0.441492071618652
0.45082510271723
0.442318771886089
0.432305453252539
0.443095203700638
0.42687218379889
0.427939708565816
0.434541606799139
0.426408162294737
0.420424426803011
0.423903497452305
0.42204715244441
0.424726660916074
0.421164936290637
0.418550545115611
0.412461643124588
0.415014531327186
0.405576587852006
0.405045406568868
0.405011643939298
0.401801754890442
0.397480765600983
0.395294476698727
0.393504823906162
0.397307633919459
0.393910855815379
0.395510986381497
0.389473150611122
0.394038247529845
0.38090700843752
0.378513292370574
0.377200078016926
0.376751729744333
0.367517659139384
0.370857591277548
0.377630155074284
0.376822509433596
0.365959051215263
0.370009462278196
0.365761524909723
0.365656085705159
0.361253301460034
0.359537913505307
0.356020653669213
0.353023060508088
0.36209075894739
0.356786286372114
0.34356683924192
0.350101758301465
0.351937303485195
0.344222870548831
0.338091585835042
0.343114175149428
0.335376565605784
0.336124541681855
0.33816664883109
0.337384887344962
0.330074825223543
0.329728533086357
0.322853182665832
0.323722921520633
0.323067662903207
0.328692659833316
0.32350694590568
0.320100878496121
0.319106796536387
0.318326049633959
0.320695681352572
0.315224496229356
0.310288730887897
0.311447856141579
0.304084902046545
0.307427728247252
0.302620651435275
0.30464521459459
0.300861110784707
0.298990357141105
0.298674293280337
0.298268964673073
0.294825327087836
0.293649351087657
0.295882602231158
0.296173481383965
0.286167957015929
0.288274038418766
0.285155330752636
0.285449303705394
0.280575307145026
0.284558109979897
0.283408851712371
0.277155966581167
0.270981307059807
0.270862825308112
0.277121954451386
0.277307986685143
0.275284410446116
0.277843269616925
0.270272702770152
0.270609362199713
0.2723989072748
0.275391958552164
0.265503693417746
0.266886522581927
0.267301188319121
0.269513376283142
0.264551930391926
0.260250862478864
0.266936642683505
0.265693234529193
0.25957508129482
0.264613648302574
0.262583764798161
0.264292026943605
0.260583679795198
0.261406102811828
0.265278984065062
0.265239451716779
0.25986381658506
0.262675188668096
0.26360493110991
0.261191979196634
0.264491160226519
0.269747986216197
0.270499753121998
0.273888584041642
0.267258570732783
0.269795435187851
0.267688832322807
0.272513490533414
0.272776896687023
0.273474478194659
0.274854994488676
0.27603123119578
0.279506578610455
0.283438815457608
0.285126780439868
0.284932302257347
0.283471197875341
0.286628341967646
0.291230769999643
0.292230460616846
0.2911307693727
0.299269225113313
0.29829520510946
0.297108485929715
0.3054617166451
0.304927106097105
0.293512425595532
0.306560372176755
0.312734387070295
0.310469397695169
0.31027352499803
0.314628528714953
0.316025733551889
0.315171460556191
0.319973499732334
0.326878387382411
0.321890017071266
0.322236443341112
0.325590506316468
0.330986076090933
0.33384188308563
0.329296660986246
0.334556283262678
0.335351889407929
0.332193337952772
0.339787414529953
0.341562128888666
0.345582986051797
0.351869220013445
0.354420006356352
0.3543820887356
0.362578210412866
0.368579760195875
0.361922775997871
0.363099135047275
0.372451394189484
0.367540785984214
0.375833226398377
0.378791766184455
0.377331856935662
0.376948220951874
0.381743273878863
0.382314392545901
0.380102952627731
0.382158148081824
0.384862993123395
0.378735044236963
0.38198598274204
0.3898197280815
0.386834932046737
0.382115959780917
0.379155022128109
0.381454023512845
0.383307698798857
0.382669672988194
0.381602328345634
0.374691688523145
0.379870519429052
0.382454466191054
0.379592995222896
0.370792151899878
0.373677865702982
0.380034141432334
0.376961585269179
0.372656351273601
0.370590021760995
0.376156260006448
0.381057392623148
0.378112653379316
0.37391819316569
0.372007036939714
0.377530585982409
0.373384253463778
0.38023722674882
0.374260024377768
0.375355612441618
0.375489439143972
0.371714989409244
0.377524586639887
0.376397893595095
0.375532284801842
0.379454536236605
0.38365193097889
0.374806920069071
0.373216095366801
0.370273872848424
0.370178726433559
0.375907503796164
0.376932071246545
0.374317668895223
0.368998378612083
0.376755398673923
0.376816021100874
0.370676247933321
0.371752928059404
0.372966187497963
0.368960604925361
0.357638944666574
0.360461149627619
0.364910035324621
0.366408963878325
0.35943851096097
0.359938098013304
0.361435637724723
0.353481255031788
0.349901566283826
0.348454774158738
0.348686729505964
0.348222414843781
0.34991455456908
0.340488652362618
0.333698040717859
0.341142141555275
0.33897530243425
0.336546606384781
0.333279657663387
0.329125300799204
0.328279989248541
0.315547067210011
0.316450001717193
0.318458830299961
0.31515774161952
0.303529159662919
0.301678841935324
0.302417008275883
0.306424937395655
0.30285355690795
0.304259374051734
0.297872825362406
0.289942175080355
0.288663785688991
0.284704936478546
0.289304284005272
0.285050701031297
0.280141640700264
0.278004356385623
0.272377774795902
0.272000765602439
0.26908233668139
0.268514792219386
0.270651884107071
0.266639290087174
0.262498491153714
0.263216419871507
0.265557744393018
0.260041175684609
0.260375658433501
0.257752247366497
0.254767677719017
0.252078475795323
0.246769422210257
0.250074936669336
0.252396837047043
0.246183723455288
0.243730769463316
0.246799526852038
0.241547542512708
0.245804296671868
0.242121825285402
0.23846355689968
0.238924101318081
0.239002993156462
0.238858940035272
0.229683068662669
0.228702246227339
0.230279934864605
0.22692077652584
0.229731564780933
0.227397374491288
0.226018494314648
0.227111085616698
0.223249740212067
0.224672952656187
0.219045247381566
0.217707857835203
0.2132087330984
0.217761289194364
0.220340890543819
0.217831106758779
0.218341019569954
0.215060193230725
0.212923783794252
0.213904036920955
0.218762210791266
0.213996175032779
0.209022532205427
0.210378114983907
0.212584594912124
0.206400054237026
0.206232040818925
0.211055415672874
0.207339914175923
0.20372963764598
0.207682694650187
0.20032577688107
0.199830732376341
0.200714632122227
0.200847796230259
0.199442091713745
0.197001647554215
0.199137521014084
0.201557852965923
0.196411364491245
0.197509536452126
0.197764988367134
0.194489702407085
0.199246744227696
0.193299502702592
0.195158543407633
0.195288205511825
0.190117104348401
0.191886984696365
0.191838178743815
0.192305553131328
0.190988487098815
0.187149926241225
0.187899026175253
0.186858011026828
0.191487768594218
0.188717571758444
0.186599142007415
0.185742478302774
0.185063277839578
0.184366697875228
0.18123609822128
0.181253198953637
0.186834273200971
0.18282126365381
0.181141005112027
0.180065592961488
0.179490649621213
0.184877887096399
0.180455069403893
0.180783980980811
0.182058856646378
0.178722586646301
0.178508944513874
0.178757251318119
0.178757238746114
0.176022097016666
0.174699723981688
0.172921713009009
0.174728235002298
0.177907731102741
0.176981646345684
0.172621984565578
0.176020408395006
0.172433047805604
0.175277125335759
0.175364028325114
0.170454608159611
0.171802490852051
0.176115656221912
0.171149498428543
0.170443558145292
0.175456877952145
0.174915855466041
0.17337368805383
0.170448624702328
0.168081661217905
0.172055479634177
0.169038160813221
0.167814033013447
0.172605257690981
0.173124105587861
0.169569358710775
0.165018411234635
0.166671724083921
0.167419293092521
0.166499543829696
0.166944760607313
0.164246295727558
0.164835759500767
0.16507799427929
0.161208007026427
0.162284853623305
0.161376258773151
0.163106586876529
0.165238784829314
0.162920454904417
0.162226094945088
0.162709505473928
0.160586675530308
0.160530218529971
0.162077842956162
0.160089818752747
0.161127833070574
0.161096160200596
0.161426615823319
0.156845754067403
0.156256671721125
0.159128397547983
0.158710798043321
0.154437783487057
0.15625960731347
0.153578648090103
0.157189142405385
0.154636514818026
0.15780020840706
0.153199009323963
0.153741252504088
0.152341357451625
0.151706178882071
0.15034100795008
0.15157750795084
0.150099834340397
0.152813629623573
0.14934325602631
0.150240810564166
0.151386066806069
0.146572423534532
0.148039776586343
0.151139954822198
0.149864177878868
0.147260000789931
0.144489761611441
0.144455744735422
0.141269617766907
0.141766892410373
0.145874493061204
0.142625941708332
0.143562684213533
0.14643251415857
0.14296048151071
0.140615808822
0.143859819221153
0.14261490535376
0.139382170113822
0.138752256630442
0.135701394843524
0.135758427794149
0.1362602770953
0.136990556864551
0.132483468572662
0.133457716775073
0.138267527347139
0.131825638546256
0.132914790740901
0.132310555319961
0.131212659625379
0.129647113860542
0.135071227271092
0.133819976219052
0.132368414033906
0.130378781933642
0.129715379937548
0.129026626705481
0.130203437915944
0.12665475183016
0.128884680430986
0.127535966885147
0.125291643827805
0.123083083164214
0.125043000050194
0.121046882449336
0.119963114824165
0.124618042839409
0.121495714758656
0.119308932935257
0.119494019813015
0.119368528653334
0.119073304406391
0.117663213572685
0.116059311308745
0.115135872580314
0.114750511796465
0.116489530788582
0.115602331570988
0.118647659753113
0.112873796270002
0.112788682223472
0.114327044972131
0.113997014413853
0.112465332126219
0.115579343178572
0.112085099956502
0.113781204533392
0.111584695653858
0.110148007946137
0.11065635625984
0.107507875856097
0.104532986666489
0.108312147405507
0.107379305820695
0.107762458457514
0.106951530318302
0.106509821611187
0.106454872057422
0.107157304856677
0.107324934704156
0.108069037963277
0.103444738494122
0.101810769450107
0.103079686823651
0.101353869981185
0.103650222032834
0.101850161158277
0.0975294786548318
0.100818138153768
0.100617952965433
0.101430082845697
0.0977045333451324
0.0996365823569245
0.0977507303528203
0.102254472910438
0.0992245113657181
0.096517250509628
0.0968800936165639
0.0977807204433029
0.0954552677375473
0.0993016529020074
0.0951554982205314
0.0960215652240957
0.0965518251726961
0.0944849496917583
0.0953541223039974
0.0958566831855524
0.0969859185919026
0.0949005058468172
0.0934077057168224
0.0939875007704414
0.0928104582377822
0.0900579020913778
0.0933901069277056
0.0924622089926377
0.0897287355911982
0.0962695811013591
0.0941061071649589
0.0938651262996415
0.0916329050546996
0.0917400003989906
0.0903316611637054
0.0937688947196007
0.092312379662852
0.0921223957143491
0.0905081240487824
0.0891367583533769
0.0931355010493494
0.0936071673725922
0.0889762710155949
0.0869912463604406
0.084370570004148
0.0888738121521597
0.090136897148596
0.0899673610348516
0.0882057902971193
0.0865567978205594
0.0847363190438364
0.0890817140688814
0.0882898584865364
0.0879636786060327
0.0868629638040044
0.0846340379326541
0.0838204436520713
0.0854741414604325
0.0840939299966145
0.0862692706737029
0.0833771406285532
0.0810375381372324
0.0810165294975815
0.082470403314833
0.0816496560179766
0.084174150107473
0.0852457131978928
0.0834466478118731
0.084107459954047
0.0824019982625227
0.0824389514854096
0.0875640531254872
0.0859956601268992
0.0810114872423565
0.0813540491724024
0.0812412655882057
0.0822238357005975
0.0814857752639402
0.0802037277801645
0.0830987866525981
0.0817222086402062
0.0819614469684864
0.0819003710038414
0.0813829315429124
0.0765555788428732
0.0788998934447656
0.0804826772351917
0.0823024927891916
0.0814857597817289
0.0767086644771708
0.0791350021064275
0.0807100109976308
0.0804109260619595
0.0779630304610626
0.0744472694584002
0.0771007440606789
0.0790096201781053
0.0805948666655991
0.0750775137131925
0.076792943395452
0.0758725192327977
0.0785153092802917
0.0793133656562671
0.0750746634955422
0.076340160579954
0.074063361655295
0.0750574607454044
0.0769354460523753
0.0722924334091154
0.0723600472896759
0.0716627343741276
0.0799850049159889
0.0741560911040311
0.0771112160736531
0.0731702424113497
0.0771243783033243
0.0710239728980769
0.0772890903880378
0.0725070961265471
0.0730689405962148
0.0736704573846338
0.0718561745448938
0.0701512410059278
0.0721133468276043
0.0683010006720081
0.0711249953576426
0.0726165495644851
0.0700391162846422
0.0694910594867735
0.0688777074893217
0.0695258752556819
0.0685070624048079
0.0698384771231129
0.0686767017844754
0.0698212026429004
0.071735710813889
0.0660622711581251
0.0669213501082456
0.0669394146013526
0.0639770834790384
0.0654388102694113
0.0661335959807132
0.0673221141496559
0.0667821480947158
0.0640073060383766
0.0633082954781472
0.0610674261585517
0.0661217506796948
0.0650868628252322
0.0638973413573381
0.0631486815634422
0.0642678411154276
0.065437294886441
0.0589487419595116
0.0612886529491997
0.0622220532656676
0.0628794797598705
0.0604504844506633
0.0603737563301046
0.0620639935177057
0.0603328136079478
0.0629408767244802
0.0608889360673341
0.0617628659330633
0.0595541052834496
0.0602917338637383
0.0593712956658104
0.0572848092732586
0.0597936071586337
0.0593236834702695
0.0591143357763001
0.0553171798685235
0.0557406159959861
0.0563516669180445
0.0589538479515304
0.0570714789901069
0.0564680044810845
0.055897336873768
0.0539858608676749
0.055698157823146
0.0540058249605432
0.0574396760990758
0.056541050644531
0.0548578635841301
0.0536205827966055
0.0522090502352132
0.0550236245954145
0.0520085501033048
0.0524260191569495
0.054844590638714
0.0517613463197696
0.0565095072196282
0.0517267160479129
0.0523616468372156
0.0539469150245634
0.0520809603473605
0.0494522628578005
0.0523488229509139
0.051990694396148
0.0503003067727468
0.0485017132418662
0.0524466067435866
0.0501682851170443
0.0471276244968358
0.0505624307379791
0.0473418637425141
0.0505040628934162
0.0481011240162306
0.0517551165964619
0.0500218803148202
0.0510201874823416
0.0489110078942087
0.0476108541921114
0.0489869053993615
0.0487231302207794
0.0466631051555857
0.0483415942109769
0.0476269209743753
0.0478165180149424
0.0486838721359458
0.0480699919191453
0.0464567693864393
0.0461868303874485
0.0456303224733823
0.0451206053437887
0.0457240442816775
0.0465137690830994
0.0438689274944201
0.0472447016770023
0.0468691715389503
0.0474380710982788
0.0475321121861718
0.0486188155291239
0.0457645186850176
0.0460007766663979
0.0454505889220411
0.041990681186992
0.0441788008999714
0.0407042388544704
0.0426116348444361
0.043698498037814
0.0467199275252315
0.0407006290497309
0.0445992513492903
0.0376790259832881
0.0447786526460628
0.0421872080429453
0.0439021067109911
0.0383338104020697
0.0426427421239593
0.0401310724049524
0.0455813270442676
0.040121815001082
0.0470562421681903
0.0430793108094846
0.0455513922542367
0.0336659037056508
0.0404544649926041
0.039081328909808
0.0423200740543859
0.0389168549652756
0.0430986254666654
0.0342376937252605
0.0409988024552082
0.0386786497319922
0.0436875866260772
0.0373425982305269
0.0437662600405343
0.0385515891635759
0.0390039289404512
0.0394112445453517
0.0410400822299598
0.0391171949765186
0.0403136559933053
0.040174288577204
0.0394484581441789
0.0360841058291052
0.0393724656436186
0.0423910280905838
0.0376897675948626
0.0356378896129602
0.0407826452232561
0.0408030472443543
0.0423575444879526
0.0402604267195448
0.0381972118913784
0.0376485756660717
0.0364136526094173
0.0405957076294818
0.0389773251240879
0.0398375260618541
0.0323787862371022
0.0423648251875912
0.0353766216204429
0.04443075821766
0.0319038000263831
0.0475986494776891
0.0308886608873435
0.0460053038200848
0.0308152663517151
0.0478123888767953
0.0296814654121312
0.0458917106550303
0.0344520689068492
0.0418771042974173
0.0335923055505553
0.0428454651357477
0.0342962253049607
0.0390792898231245
0.0398132127201358
0.0365927097284912
0.0378034121492346
0.0391686172228347
0.0396758879576567
0.0380170571978209
0.0371118193820321
0.0378425606835984
0.0346033235168937
0.0375717095559834
0.0365477243211725
0.0380596574612224
0.0386229846623447
0.0394003017634462
0.0360294939181379
0.0385732312157252
0.0380404502620885
0.0368773256901809
0.0366631481174406
0.0387058609612547
0.036943193098562
0.036307536266824
0.0375551249288714
0.0362475951612589
0.0349414895780358
0.0373635100619986
0.0375643786553703
0.0373327710402553
0.0364317021801197
0.0360793959327853
0.0348542523529422
0.0344379033051689
0.0366687401381126
0.0390662694284009
0.0352542905080127
0.0375617764763714
0.0382199413055499
0.0382315032285557
0.0358823427981238
0.0373616960471037
0.0347598099797242
0.0379503401860647
0.0378701591950187
0.0356684256316144
0.0378147590869385
0.0378930443745947
0.0385776654751515
0.0379224685453008
0.038980220232604
0.0374433963709133
0.035606553454643
0.0361997491422098
0.0392298503075278
0.0356690451779729
0.0376841847311114
0.0357594566077532
0.0372012117963534
0.0363363083571396
0.0373727808320368
0.0387291833365525
0.0358251509481657
0.0362543065008616
0.0348157527659194
0.0383515359851379
0.0361713153483736
0.0346848170032791
0.0384113667680625
0.0374565664610706
0.034653402547991
0.0362510399907528
0.036648409436934
0.0384908745101857
0.03735683138775
0.0375997091528551
0.0386603898604938
0.0337721452412868
0.0356995570993001
0.0367878153167509
0.037816074277651
0.0372003169516417
0.0363385992551731
0.0359439166504941
0.0392519392059242
0.0397421669708382
0.0408174682717396
0.0370069247858177
0.0366504723748054
0.0377823224776831
0.0367126248649901
0.0382304810946163
0.0365943764526441
0.0357601691217847
0.03640148142275
0.0367205489271856
0.0369123017013135
0.0373303775619678
0.0381375499204504
0.0355384464199633
0.0416589107454159
0.0388789183996616
0.0371996787132804
0.0378740261876652
0.0382585341359947
0.0385725100820412
0.036413710096006
0.0395300163891772
0.0373644236636168
0.037961927213971
0.0383880798613238
0.0366865674185005
0.0356332491898098
0.03964045674712
0.0376848482803713
0.0409273287211559
0.0402250568759633
0.0377927232191146
0.0389869091442547
0.0398058905123019
0.0378590137693752
0.0398851824674213
0.0416321980793814
0.0399432453308241
0.0391403766995667
0.0385683145105509
0.0380425622841338
0.0398501959726041
0.0390300874681817
0.03786114879181
0.0404076249590071
0.0402293243910663
0.0410853893366546
0.0373424492925859
0.0412945109581403
0.0393441721547629
0.0407798040689456
0.039060319056868
0.0403387423086747
0.0400867326272554
0.0399615569744502
0.0389807556721269
0.0405884319322544
0.0414599089680479
0.0385217115779165
0.042301429200076
0.0403834430444752
0.0382005917699779
0.0401542609481027
0.0394200059790868
0.0402386437944707
0.0413318921902631
0.0402345709000494
0.037832159242973
0.041236817719873
0.0415870405389172
0.0420016118524975
0.0387649539227984
0.0418638383574558
0.0395175038918623
0.0422639261297613
0.0415443666805502
0.0407085968685766
0.0427798095957363
0.0399343605969267
0.0415485807706813
0.041621201127781
0.0407908307728858
0.0416282068577295
0.0427532634023751
0.0420970422262957
0.0433877809047572
0.043342856273531
0.0396248011467775
0.0415506149127982
0.0443381889518017
0.0428920116444501
0.0409416714992943
0.0409995025226963
0.0430288564963712
0.0416886026708129
0.0440657459730315
0.0412869048139168
0.0402442819787813
0.0422053873770321
0.04187809808579
0.0410233056389405
0.0400601866106888
0.0404637314235102
0.0406631834713913
0.0399599862564748
0.0409488611027337
0.0403312378441764
0.0398042405636674
0.0413092068939333
0.0401596701922176
0.0412796041882154
0.0393337609869586
0.0418214122782863
0.0393155873736251
0.0398433461953563
0.0416390655011597
0.0415177290451632
0.0407724969162696
0.0400335077211181
0.0390066195616347
0.0402940597345504
0.040058988293488
0.0384927210528457
0.038946192782426
0.0401197742129057
0.0420101631697852
0.0402009603613796
0.0413842097326136
0.0422629460151138
0.0391049695727833
0.0392510910609795
0.0397502309431127
0.0393263347290851
0.0391282316623882
0.0393909414478398
0.0378152545145233
0.0399257886891545
0.0397949020387029
0.0398741500073563
0.0387816417499676
0.037787681795104
0.0383377592379419
0.0395323545681341
0.0383401135537431
0.0386578219273425
0.0394660213894556
0.0394941922795187
0.0392980617565502
0.0387606706118066
0.0368662894481203
0.0366835514545678
0.0368129758590766
0.0390188135371401
0.0389828028975979
0.0364553172517847
0.0365218270923702
0.0390647612097425
0.0376095367543867
0.0379876999821896
0.0379643897466854
0.0411574814364431
0.0378079629399921
0.0355432868778492
0.0379830839137071
0.0381699851491723
0.0380103761378636
0.0397504642846337
0.0387322858807464
0.0373059064417919
0.0394714437859603
0.0381487953165022
0.0382820276723824
0.0387853320802348
0.0359976757881145
0.036855251056743
0.0361772972072363
0.0361047240991751
0.0377852655431353
0.0375723526702844
0.0377465003029028
0.0420599207103187
0.0368733993696261
0.0381371510002494
0.040028810741719
0.0365019914379558
0.0384791662611841
0.0378527274131378
0.0375782838063099
0.038460531129529
0.0366024270052767
0.0362765573469047
0.0364033491841139
0.0376475696937508
0.0375898582390424
0.0368891821211482
0.036223979854054
0.0388388520184472
0.0357961189167847
0.0362563470532743
0.0378433822797196
0.0338743093621135
0.0356802081707923
0.0353391002612728
0.0366525530138061
0.0354836509107182
0.0367704756498653
0.0385645544353388
0.0360699730986119
0.0369001140818083
0.0355502345087385
0.034799671809259
0.0368248444041648
0.0378377225036269
0.0366039813869953
0.0363126604248335
0.034915564983607
0.0352167054795856
0.036062391318675
0.035635955963019
0.035177121088046
0.0353373755671728
0.0359532232369583
0.0352251627362731
0.0330150391990304
0.0343804110013882
0.0333876859634564
0.0342319243824539
0.0329241845714888
0.0351589855540731
0.0334434127567575
0.0338161555551016
0.0338538736957699
0.035489302960528
0.0329488527582837
0.0328959395067747
0.0323628199107105
0.0319108016673868
0.0342475340700208
0.0335274626702963
0.0331560729675578
0.0342517767170385
0.0327337483083946
0.0311617164792919
0.0310604396032596
0.0331977335445138
0.033093048329458
0.0328087302197951
0.0300915824483636
0.0333286695022735
0.032154002602542
0.0320285272553776
0.0310833663328709
0.0302159301295782
0.0285879589254869
0.0308868449585515
0.031032703296354
0.0336130462236634
0.0308120268460504
0.0281262123682589
0.0306301533576706
0.0288161972069376
0.0316135251251429
0.0323076033783224
0.0310412772012706
0.0294797359146324
0.0308442956526417
0.0326730026421457
0.0302592536764131
0.0292210552195453
0.0325675216685187
0.0316420370622673
0.0295546218884814
0.0297580379453083
0.0280910835914168
0.0305723143603816
0.02796810269633
0.0310525999006294
0.0317821273208075
0.0306406536103429
0.0293992005433232
0.0276843987554274
0.0285119441010963
0.0291626762807781
0.0299416360658884
0.0294435785357398
0.0293118457364984
0.0306158546982608
0.0303255070549421
0.0287928853543844
0.0294709076474596
0.0301955563152798
0.0294148245686339
0.0281058526738184
0.0298182516798342
0.0293795240444915
0.0288976782250469
0.0305421398595685
0.0285125622952303
0.030684176994539
0.028619011999047
0.0281256535528672
0.0282649494174678
0.0266139434055852
0.0299740938053473
0.028801097488997
0.0288983896279639
0.0285138147443177
0.0293765821188074
0.0280468829448793
0.0279676742208702
0.0297029078513859
0.0290606059488937
0.0310754551157282
0.0266906001181064
0.0307321386852971
0.0288967488546231
0.0280789486679872
0.0283149394993112
0.0294939110131307
0.0282286948033412
0.0287226793289436
0.0267843009807232
0.0268191963204411
0.0274627970495701
0.0271756577531369
0.0267290327196414
0.0289136499880656
0.0282554892429556
0.0298726405013381
0.0252757134048762
0.0284031752689616
0.0275367168160176
0.0274675681945434
0.0287424224676641
0.0287250344156076
0.0261555942962471
0.0305134946030173
0.0258968117451144
0.0271062578573212
0.0292187464622728
0.0291409051559697
0.0274493604281314
0.0264366329823413
0.0270941899135703
0.0274139304998306
0.0269030817616567
0.0294682733290251
0.0306769677204931
0.0256335950093153
0.0278442162377052
0.0276561175531905
0.0266226679682888
0.0263039918743783
0.0283365431732984
0.0287801239965098
0.0270550682542096
0.0267371846330849
0.0279577469652377
0.0269561195635276
0.0272457220005159
0.0294254156287886
0.0288105117181415
0.0281146442544861
0.0283712226774478
0.0262686159211799
0.0257267131410354
0.0262727638680257
0.0286454603349643
0.026023647575241
0.0296902250212047
0.0261467952274979
0.0281298673424857
0.0277179642719708
0.0307555993803981
0.0286330405201935
0.0285084655277934
0.0295229172687308
0.028992674447723
0.0280753309131138
0.028621653777911
0.0292288778148881
0.0275720475286171
0.0271935352176041
0.0270679986368076
0.0284112722726414
0.0260951355648473
0.0261362512953614
0.0259039192129844
0.0292067192895845
0.0272089356090154
0.0295419958692349
0.0282600496400432
0.0256858005803764
0.0286734766847688
0.0251480806592983
0.0284353470826371
0.0264768377265591
0.027466695189956
0.0259383750302335
0.0281509092516298
0.0264471107375795
0.0280745164250744
0.0277758418531738
0.0289086382872059
0.0278241375629535
0.0276917211757038
0.0281080468392657
0.0298286505544433
0.027080345788931
0.0308374931777099
0.0291368689792958
0.0287939355365433
0.0268550218306284
0.0306699396511617
0.0272283792828362
0.0269294371608754
0.0274926096184809
0.0300659904579159
0.0340218833848235
0.025708590470565
0.031169876026825
0.0284546732920553
0.0290317593152171
0.0278272063351007
0.0292410565200378
0.0288628954254679
0.0284931278166186
0.0294697809769996
0.0283947660011456
0.0256292420612442
0.0276215587687307
0.0291223728574594
0.0293226908865237
0.0316068229637629
0.0296656277481933
0.0294419800610129
0.0309256734647929
0.026691114745275
0.0333007401362683
0.0282245833708287
0.0303364800999415
0.0295146003560089
0.0287487710828066
0.0308231013890497
0.0310327243798283
0.0302329595076467
0.0319978885633231
0.0313099933521691
0.0285607324182663
0.0305365857737645
0.0284214218284807
0.0298057555726643
0.0318349552125729
0.0303249759096609
0.0327519480891497
0.0312294026607173
0.0306730070249246
0.0323504817639075
0.0312629882981875
0.0317111377591028
0.0312185334002786
0.0320899839951733
0.0310460132643409
0.0343644573588548
0.0341837062206133
0.0319334096914654
0.032985139276649
0.0332420212122998
0.031222484143867
0.0316125775679585
0.0333634468329703
0.035343154341197
0.0273115905814475
0.0379467122154501
0.0353166367193077
0.0392149320197074
0.0317447498313237
0.0345913670469713
0.0319280052456272
0.0351033443928028
0.0332235592455755
0.0333618136273658
0.0343014551577443
0.0365745526723201
0.037449928306518
0.0331992850710583
0.0376371927031783
0.033697274466759
0.0373838363432638
0.0363055627573894
0.036230318669129
0.0346708483502125
0.0386558089814906
0.0361559893952703
0.0408845165684961
0.0350804949018589
0.0346058961246995
0.0392478731575371
0.0367554298484834
0.0413443396103507
0.0385979152281238
0.0388098204097568
0.0387116645579321
0.0362576313471114
0.0407587108807352
0.0354714352753321
0.0423793721708253
0.0423400292353306
0.0396969258343737
0.0417353969356877
0.0396447209196635
0.0419333828442325
0.0438017454647069
0.0425237132647133
0.0448804776714441
0.0448274447134141
0.04520115192076
0.0427350261368343
0.0500019896660025
0.0419272660869705
0.0518966569480891
0.0462518828021471
0.0524781164251895
0.0468569826775678
0.0497515493911572
0.0490434679521168
0.0534826251578535
0.0478466949436055
0.0539334139697607
0.0487889168842431
0.0580284446767298
0.0518687003049384
0.0545770374666183
0.0551382841378561
0.0542858178660085
0.0588498099177771
0.0608246633530658
0.0568096298404146
0.061262055626894
0.059521108837322
0.0654479753932269
0.0621165589918373
0.0611976252598293
0.0641051316903863
0.0639680089634705
0.0675683251958454
0.0663919296173634
0.0661544429249761
0.0689787166321596
0.0656190838542073
0.0685124670150941
0.0679761589597638
0.076265952492768
0.0700402412952399
0.0763437722906349
0.0746964816144752
0.0764206907588772
0.0777274658661413
0.0761412340023588
0.0758302919590855
0.0773676824897001
0.0808857981753131
0.081193834970421
0.0814612642516133
0.0832251438778161
0.0835480863526923
0.089967909143953
0.083488498350035
0.0947848054293768
0.0906854965757079
0.0953250418140428
0.0866939823360663
0.105387437352428
0.113442909930014
0.105781904924173
0.114911127213131
0.109316265735414
0.130205825498236
0.126722584480516
0.134867706650478
0.137377687924683
0.139242186420345
0.144179406555908
0.15452754454569
0.157504258977266
0.167016690683103
0.169910513450985
0.171308539087647
0.173281991240171
0.197888379873584
0.193007182669851
0.202751177430361
0.202348892604423
0.211177620325281
0.221001111897899
0.227499260842813
0.226137145803455
0.236424843309504
0.232406514573057
0.262048519106561
0.252984795292039
0.262858654790304
0.267553108940177
0.280253823843575
0.282821333333819
0.282121970811338
0.295491276343848
0.290594179387552
0.305668314931329
0.308858211785541
0.317823192595409
0.322052063797721
0.331186325398962
0.33709405386825
0.342462300569862
0.349339120616901
0.348121198468133
0.35331828301288
0.355443168962379
0.359260857153883
0.366575075083113
0.376003887764643
0.38896847751602
0.396230090270319
0.378748029743118
0.369120702979398
0.3726554359045
0.367238446359826
0.381120681854064
0.379637585995513
0.363765523409113
0.372326616475876
0.366568304507684
0.370664049386193
0.370487564890404
0.374022426973215
0.372779716338372
0.375078283788082
0.370674956976135
0.376324753231841
0.378828947515429
0.359605020545195
0.398877731850431
0.3707872828662
0.363944694688795
0.358889188989372
0.364158711352924
0.362570015642559
0.362594922999722
0.362361315065959
0.362852774932596
0.348135877329249
0.347446888682101
0.343813565826569
0.33970078692173
0.344158911562593
0.326432700459589
0.324925488212998
0.318755782735308
0.313401461663147
0.30732492159875
0.30551692754074
0.319686262197003
0.307943394376628
0.300923914222866
0.301061814797362
0.291539625799143
0.287872233864579
0.289754062336324
0.289261571527537
0.28215788863558
0.279323305230898
0.277951887942065
0.273737713734003
0.267757562490955
0.27135147521187
0.267295688444971
0.268390245629232
0.270504163714161
0.267282555012425
0.264325462421825
0.262900542118375
0.260839933861966
0.259712146241454
0.261365431097225
0.262342776790113
0.255176314699806
0.258359188831922
0.255656875997046
0.259158514052453
0.256786195594878
0.256738962694568
0.250578803967061
0.254150691983924
0.254482055965264
0.256659681759947
0.253316962497959
0.254097097762085
0.255568009452004
0.252893554631056
0.24816233422765
0.253939912167951
0.252363380258103
0.251304865156354
0.247559788190189
0.260738364637098
0.256011083214263
0.250750913439707
0.253987093919137
0.250849886936401
0.248514051501628
0.243761605524963
0.247736942480286
0.251116147284644
0.244879835769362
0.247752228454678
0.244796048377811
0.238728871327687
0.245557653741279
0.244457935203875
0.241892552715131
0.241922343602683
0.244435525825463
0.256092580944441
0.2317004958697
0.256778962302297
0.245679692074784
0.245297175132234
0.251813999441875
0.257127582248948
0.24491942558994
0.243033857777519
0.251935901832984
0.240671814582416
0.246668057959087
0.249334804549475
0.24840371774681
0.246950714018581
0.247229568927298
0.248241190173569
0.246720797457502
0.243648629303382
0.247802149600662
0.245175388081243
0.238718064825424
0.254495665481351
0.239474715103028
0.237765358229944
0.230953985447652
0.228693629826012
0.229981097272507
0.232300968870617
0.231179757713301
0.225259688944069
0.222737242934485
0.219618303178803
0.220404552319395
0.220478721067776
0.218812662370428
0.212888881043255
0.216367798238444
0.213609724378407
0.200548284463476
0.209208910221218
0.211179071192232
0.219492512979638
0.203118950998128
0.205120467631018
0.199680466704894
0.204046569986874
0.198296374474928
0.193538514074224
0.193589490029452
0.191840729582195
0.190371559989035
0.189118835886175
0.181250122033047
0.185178198160715
0.184629982846783
0.180995767929181
0.191196700001075
0.178598894300287
0.173054275166833
0.172895291548295
0.168463497746848
0.171634292260657
0.166421559193855
0.169404328954767
0.164972417422324
0.169197275994593
0.163078143907688
0.174802413040562
0.168734775684224
0.167553420947037
0.166774946426383
0.168850168358601
0.165226343550738
0.179593081004655
0.166987101444203
0.175474406035812
0.173413675146375
0.17659599125054
0.181298509500667
0.182683040702667
0.181821510153062
0.180674254565407
0.187251891700364
0.194095269964005
0.198204952786245
0.196621381248405
0.205481687791793
0.211676893513462
0.208190847440068
0.218966863405268
0.221809205703185
0.225330885453255
0.238371876275293
0.230543049764613
0.243082714177896
0.24990427612095
0.250919064822621
0.255231664977631
0.254507280060229
0.262156643321229
0.265010962177509
0.27269893223136
0.2766569542813
0.277949785648528
0.279795099601896
0.285211142770726
0.287811802065528
0.292529362145577
0.300531410408052
0.284288228758034
0.303732980652428
0.305888982763403
0.304050497292857
0.304218840728133
0.301968781541594
0.307592838428282
0.307530563239026
0.310491179105292
0.312217299444124
0.323608353351995
0.313567900396099
0.321798966840996
0.322762306013691
0.3174514902659
0.323514699977159
0.325208625290416
0.324994162360965
0.327098363171603
0.328561589396908
0.333183066751493
0.333108442727612
0.348746507134551
0.339091802491337
0.338097983909726
0.344075150353557
0.340457978859883
0.343758679597631
0.350412176170816
0.357359245715013
0.35114465781561
0.353515172927725
0.35717957021934
0.355846571708765
0.361725788026455
0.362807382394294
0.366776680121257
0.366265072699369
0.365364313739571
0.372980546232085
0.373486291304326
0.3786774010301
0.380408447903383
0.378504197457647
0.380080525569267
0.380944955964394
0.382231075874993
0.382439779279852
0.3851288803899
0.385210705440882
0.38622111014156
0.388589188206326
0.387145371154404
0.384660067654499
0.383751797115046
0.38866599733712
0.395947588495204
0.382605551710136
0.383119138848825
0.385319295180113
0.383288193761613
0.379453282638686
0.385882372887809
0.389714719910439
0.38589951933184
0.378900998797931
0.389352540370445
0.381308270372109
0.377376186537712
0.379604668240526
0.382284237944738
0.382114726839242
0.38318889290339
0.382890624639421
0.384125113441778
0.388847581336651
0.386829068289392
0.385592297343213
0.394669476941427
0.391370810162405
0.390182902128825
0.391736532492874
0.39419331383546
0.396446113894621
0.404258741949864
0.396583532364527
0.398158122257959
0.393271341692312
0.399393326481796
0.397798316844552
0.393798667559593
0.393682869509027
0.396238385358847
0.388033784541057
0.396214936510821
0.39151839163656
0.391667101204654
0.384595123981643
0.384225734471324
0.37744230371466
0.381769788588566
0.379354909725116
0.371421453744931
0.368888691307997
0.368123224012137
0.365811577932678
0.359267354546537
0.358421806965341
0.35622503807509
0.355645746800613
0.353932152536307
0.351951306598316
0.346893657387794
0.346740872481824
0.349170412295656
0.34576376118539
0.344437627528645
0.340433262799244
0.346452376112643
0.34210868407468
0.345822128783243
0.340258805885272
0.341904788162193
0.341213943756974
0.341746850613384
0.341096688379312
0.343614447663561
0.338983376846335
0.341056474140498
0.344046372652512
0.340121650188575
0.339965335563156
0.340243474795495
0.336652568934233
0.338395285297871
0.339266028298741
0.338920593497982
0.336201331743861
0.337464080451896
0.338459469832431
0.339646140672335
0.337488018127122
0.332670658568337
0.337519868147178
0.333007852269049
0.336541446199788
0.337468932777031
0.335801860875935
0.336594800327278
0.33287353544613
0.334338450358099
0.33526836378191
0.33776738635029
0.333567764228107
0.334353416206377
0.336870132585631
0.336015097026475
0.333694155416089
0.336412227836709
0.332966382575262
0.335164985055425
0.332979261648121
0.330654089240153
0.336045850548966
0.329973220178025
0.32465015889764
0.327436504769579
0.321979427661957
0.321613923160118
0.316044204688791
0.317513758816364
0.31114648690446
0.315693255997733
0.308125446708862
0.308582802097595
0.306074315332445
0.306690628722921
0.303010377580033
0.300117369626275
0.298461367882348
0.297352120153225
0.293630137381217
0.290037039916727
0.293271886427777
0.289245338975018
0.289394675134526
0.289103713641924
0.28630315335863
0.288303537811746
0.286270305418027
0.288462955502392
0.285562430083797
0.286138414708473
0.289159065305048
0.289443344130357
0.289412329407368
0.28997667484863
0.291654109810598
0.293969100139287
0.293351685073341
0.292851920283185
0.292806351053666
0.298564318352928
0.296487496674205
0.299959659163768
0.301159241503525
0.3017123820652
0.304236428842587
0.304214447485151
0.30512954028228
0.305892934125081
0.307482465690888
0.305956922361396
0.308494354320207
0.307848355611782
0.308909686640895
0.306935105737599
0.306014845964051
0.306068987970238
0.309320683975199
0.307138273866875
0.304664689268263
0.304860445530956
0.307534265174031
0.305783597143347
0.30379963929937
0.303618790849734
0.301946445308484
0.304794390972616
0.30070627895549
0.302170846830658
0.30155681590282
0.297337831823664
0.297872164765444
0.297193416134081
0.297242788170329
0.296182770602295
0.293717074607669
0.296739955891432
0.293223292242568
0.290705953139465
0.290217302860897
0.290606327747544
0.289600123907904
0.289372934528887
0.285065784054698
0.288335401834055
0.285491284655249
0.284685514699175
0.282918444908817
0.280030640535473
0.282873599573646
0.280778505817455
0.277228274609374
0.27571041209375
0.275558530793648
0.273027652163617
0.271060520022525
0.272483013460359
0.265302945748312
0.266544257237788
0.262429258619359
0.264092253825682
0.260028327757978
0.260807052021134
0.255097917729748
0.254562691989281
0.255977990380528
0.251473570402122
0.252675047963853
0.251214818087757
0.248343865016754
0.251073333725835
0.250911409255451
0.249960883654094
0.250724020664229
0.248378260926276
0.246722063274189
0.24588894685025
0.245121980592383
0.24482163603529
0.241918818945282
0.237498745523859
0.234183188794425
0.234003239376692
0.230160851772398
0.227683476280412
0.225703863192811
0.224775054199962
0.220203292570174
0.219544965732596
0.218459665723782
0.219202853854403
0.225017227313842
0.224225679477091
0.227102163184177
0.234075897630427
0.24133740804503
0.244804563443899
0.25218539173863
0.262074967592103
0.270550192263124
0.28136460698818
0.290104936608864
0.303573385885815
0.31385182493826
0.323352281864317
0.337264718592935
0.349958041122077
0.362750125340468
0.3737810722495
0.386071821157602
0.396089865732633
0.40536043418595
0.41715488307014
0.428363986914744
0.440338222708734
0.449856660911119
0.45603677341211
0.469240685166556
0.475816787876706
0.485287378330759
0.494231343093436
0.500022091618777
0.507896520595737
0.51071470916593
0.523070421923037
0.522321782333518
0.524383649057535
0.531887557407066
0.532159336495289
0.533966034778845
0.533036715777159
0.534150390182791
0.534966003263594
0.532974923964334
0.53453559947688
0.530236580317939
0.531453446674465
0.532153368456321
0.535022966814276
0.531223920282446
0.537856453126873
0.537115049980078
0.541385554226714
0.544515024643378
0.54435504069835
0.549275636847681
0.54964509328846
0.555035941469699
0.560498424394397
0.567565723759288
0.57187539944906
0.580256269143802
0.578967095062437
0.585624397741051
0.5982927058513
0.605136372019272
0.614070184205796
0.617079419798994
0.627110414850505
0.635317616704119
0.642979932552336
0.642929546738364
0.654414971109673
0.654717769258445
0.656259985467752
0.657280020589567
0.664384928875497
0.666695740007786
0.661769078019864
0.661718503229202
0.661741520571611
0.659420533603963
0.662818486968634
0.657129046860745
0.655306154734721
0.661955769408156
0.660733328790581
0.666037057466751
0.676789225226597
0.679826465987551
0.690895986666826
0.704739418208778
0.711136726778981
0.717854299284151
0.726397871930805
0.739552408921643
0.746785612284549
0.757537708339125
0.76950851441642
0.782540056868678
0.784207424652587
0.805599155196224
0.820375763525657
0.827523323820481
0.833736723882942
0.851499236941806
0.865013936517099
0.872074773361254
0.896133700932695
0.892703056582664
0.92237945085586
0.94660533461149
0.946306703197182
0.962657182229839
0.972766094029256
0.991562935983718
0.998619715014837
1.0011349816047
1.02552802705151
1.03310369766173
1.03729546888762
1.04447518598697
1.05161546045355
1.04840407309033
1.05273121180505
1.05730903941701
1.05772126265952
1.07059752242521
1.04472007387033
1.04542198276478
1.0506005998851
1.04860509165716
1.03390563331536
1.03656219587295
1.03569096196322
1.03413998315248
1.04018448674695
1.03141472500857
1.0326496269231
1.03765505441358
1.05079433340407
1.06539531845798
1.07116396332393
1.08373807040197
1.09234691916724
1.10023073611
1.0945991721071
1.11082827539607
1.10680229103264
1.11506157762829
1.13355466113726
1.11892657655434
1.13953239598488
1.13421554198017
1.1432240773859
1.18058975846003
1.18981019728366
1.17480649852995
1.14827212690545
1.20280654407229
1.15196614104753
1.17112650744778
1.1669026530596
1.1795905279631
1.16846001972993
1.16423425323977
1.18297492096099
1.17807216283929
1.18664248653119
1.17021583989484
1.1697624153837
1.17452830932516
1.16615534142427
1.15637877745356
1.16029470222098
1.15803758016016
1.15409557444745
1.15800305664156
1.13681640347741
1.13128347761013
1.10650048931122
1.1014149419871
1.0854405745566
1.06525723256214
1.04361592800306
1.01150005109708
0.987501585075694
0.962536012333294
0.940858150701873
0.919517754439793
0.886171308951553
0.844521944699614
0.826333684308876
0.800016582507242
0.779824723351275
0.765092016063387
0.748990637543432
0.741788958908867
0.729543546221919
0.719341444823401
0.722802502248852
0.705992775506083
0.7044393370315
0.691011890154375
0.683048599511492
0.684020054205735
0.675886980757703
0.666091162564361
0.652394431294761
0.646084007287088
0.623505740500917
0.616461555931718
0.606718232978831
0.601556537713689
0.578499481044683
0.561862907541512
0.54298310286512
0.528576512612926
0.509467839582424
0.492576997470327
0.475272061115155
0.454562733145463
0.435050568307019
0.414622403294249
0.39519770207501
0.378562944092755
0.361944237265947
0.343824587812446
0.333414132839766
0.320089404748265
0.302861973613187
0.294330791194049
0.280499280447447
0.269514305841988
0.261449486371125
0.25308271846991
0.245402806148381
0.236299378174937
0.23232517464805
0.227816670200497
0.222261051831146
0.221074862690389
0.217525814094
0.212124955423861
0.21103055863713
0.209980050655424
0.210373043633624
0.211007014908521
0.21042660675431
0.212047257926172
0.212827447535547
0.213649775247618
0.213447525769995
0.218813095111344
0.219703403732949
0.219013773896289
0.222380173880251
0.217482774326376
0.218250523374703
0.216994242398134
0.218615879250773
0.218234350477595
0.216774693162814
0.219355437119131
0.214952349783186
0.214504770546238
0.212430084918952
0.210967566534718
0.208051573469849
0.204461230513025
0.206854048532333
0.211412246964015
0.211043128607178
0.216944273170486
0.212639705605435
0.215968653117988
0.212648827254313
0.217907178776216
0.220915433434656
0.225677565102476
0.224598935182199
0.226468533007908
0.225355897720895
0.22458579831197
0.229024869340771
0.233166457482776
0.229555963412857
0.235849583183337
0.23241201518613
0.236609772530267
0.235018375221221
0.238873726366241
0.234119831237227
0.230639871368461
0.238585903050012
0.237249033340583
0.244807924721267
0.238054081061678
0.24403701110578
0.24533352497257
0.247564123442232
0.250963070996248
0.253212186555442
0.261629518447508
0.263407711409275
0.266342974747313
0.274138055426832
0.287099503493439
0.29305673818258
0.302078058062498
0.302025976184475
0.311683255077143
0.319390814345553
0.316488896821641
0.315615537470485
0.312185760913079
0.311765496105561
0.305771445456303
0.295977398972425
0.299926104507177
0.292744402585062
0.28609398680122
0.277400029206339
0.277894437404778
0.273005940985214
0.281027000841855
0.272740919999989
0.271239803552299
0.274943664990928
0.274670746983299
0.276870719105693
0.271071210033389
0.277050374969739
0.274090699731197
0.2783337331614
0.26782615380295
0.270285512303756
0.26241233629806
0.2701954708257
0.258216891796913
0.260428726199242
0.251912562946945
0.251915470331364
0.254193821159281
0.251207902976047
0.248771823259903
0.246397921676246
0.246756956723157
0.246241938092843
0.24687310908376
0.24276831099549
0.243822806913015
0.239400570781654
0.23881105728973
0.237976070505144
0.240003117399636
0.240249136656492
0.2210711076273
0.232095851672953
0.230102510396598
0.224486055318147
0.229463287087957
0.223585715997476
0.222450948967541
0.232170666557878
0.223185286939375
0.212624256042299
0.224858514344631
0.21902337015705
0.216879316015369
0.219181640993019
0.225071506828969
0.216909713094449
0.218299998698371
0.212575136085831
0.212060476457561
0.204812400327318
0.210452800583953
0.206288432844002
0.206295842978022
0.198519275059169
0.196133596229586
0.204392360627885
0.212846226777799
0.207190859201127
0.208106898490363
0.208293576264662
0.207902210236153
0.212541567871763
0.205988221911251
0.210867770037182
0.21184684077305
0.205483811987395
0.222857847827662
0.216951235005512
0.217631739716155
0.214948697114152
0.215384766396263
0.216882819012316
0.227928705835978
0.23256216651136
0.225080368621585
0.21858231887777
0.221611965678836
0.234650650589305
0.23735281651071
0.225111838925802
0.241928907404744
0.238769998823133
0.243774451325711
0.249750139036322
0.253041913296567
0.261157374720267
0.262283499729452
0.252406998045344
0.27721983227867
0.285008502403551
0.276639232838388
0.295269249388808
0.305467662070412
0.30417937898185
0.318183653924905
0.32463829417922
0.342245470853043
0.343626317526527
0.351935922980836
0.36368064396935
0.374280610018555
0.379550530245468
0.388113893528672
0.372258236347372
0.37814512200273
0.405357786751291
0.393150937331055
0.364962159322134
0.373809665297075
0.370094868433749
0.376134402277609
0.389445529610392
0.368060794439915
0.358060987168691
0.371575028362845
0.360038318214867
0.360255545417963
0.371582354316749
0.36324845334263
0.36461562934398
0.368271614222638
0.367588402521311
0.363026211283581
0.3470153550201
0.356589900521154
0.350274095005947
0.358411901648188
0.329772326452383
0.330680120142227
0.349074801779657
0.335740574241811
0.33538709859518
0.333184881240492
0.330430648490977
0.340248227389051
0.326819730752878
0.332945329819413
0.312668706361103
0.320993639654482
0.32974321418055
0.334732663572058
0.330382952961105
0.320172876514135
0.326824972005569
0.338525653101925
0.306982862441111
0.323619967228857
0.318887701889166
0.332578880746238
0.336827653329726
0.343757575350676
0.33871130859624
0.330643409811768
0.329321720143235
0.361642415009136
0.351984803385885
0.346532154470538
0.368084260289421
0.343918997275431
0.33892595235192
0.324765214018985
0.323084672838212
0.334657579868841
0.338148907258083
0.384153728755613
0.368970953917345
0.362619478451257
0.341930396952197
0.346125073085005
0.373519217922312
0.376735725866616
0.363769252300086
0.368597960680282
0.376705668767568
0.396806067241958
0.404623663605086
0.426035685667317
0.373713333438823
0.401019024493242
0.416491808792555
0.405508787220146
0.428367076109993
0.463429338766898
0.442776361520239
0.449106305276029
0.471911440582196
0.460161464532108
0.472203314332008
0.473967945199509
0.449647665269104
0.479592153500025
0.45983768136092
0.408633818557128
0.430418842040547
0.457808815967168
0.426704377121518
0.468161019320629
0.458580303275417
0.434787883835435
0.436282513076265
0.460669199220152
0.442017659494456
0.428290344238548
0.455321523038488
0.52648566853026
0.395550481651195
0.379798263047761
0.479214482419644
0.432941559896945
0.427629993139235
0.436138000886042
0.452944320757272
0.42250476662227
0.377787192599419
0.415749123214548
0.441853737921177
0.438638723672969
0.458526704081474
0.432986764375033
0.456089912717429
0.460952167098427
0.551723968848507
0.438885032465239
0.443808125280491
0.659408060970375
0.46274960069096
0.467633844437251
0.559682213461758
0.713646025024264
0.475216924236219
0.387619740783538
0.390671342830353
0.49409105007601
0.507412339090681
0.536842086140092
0.561082167134397
0.505912192964165
0.45299372718135
0.409492031554752
0.476268990247935
0.473913857623727
0.329969069370493
0.53521841648996
0.64096500232223
0.557666730215639
0.394346175125911
0.214555621061765
0.512460982541252
