3596
4000.36533379555
650.420452594757
1
2
2
0.0441151668233251
0.0269326440491241
0.0377028306898082
0.0317094716369879
0.0438249613911911
0.0321066300074682
0.0378384586617726
0.0370668345447033
0.0425168832411229
0.0268216898828906
0.0311056448814733
0.0351285240139296
0.0411128520580817
0.0319695524580386
0.0338122584274497
0.0258760156969487
0.033424217839008
0.0374317753197687
0.0382611164908249
0.0368459939937498
0.0396471041920708
0.0299334236272392
0.0416791312076122
0.0280239419283065
0.0333658810317085
0.0375035820615436
0.0410638486413053
0.0372990128405026
0.0419871760591857
0.0274172282241552
0.0410256445959688
0.038643629175983
0.0329139819454145
0.0396011579255096
0.0365664488497586
0.0258720398793901
0.0303886837784624
0.0357347250127698
0.0428913070212789
0.0302374153230753
0.036027957589159
0.0375155514053925
0.0336930232535053
0.0315439831561505
0.0349170905242633
0.028906836820503
0.0291422511572237
0.0265030523471651
0.0342922673262861
0.0281089989127296
0.0341822740560834
0.0343421772543426
0.0397906703024929
0.0392619288948367
0.0264145311271288
0.0250875524504263
0.0292807617269086
0.0323054645940039
0.0320267624425018
0.0365069290507569
0.0336363788471633
0.0324748393275166
0.0359060102779037
0.0236284834818699
0.0334277491164443
0.0293076011210145
0.0346763432080313
0.034513076543435
0.0348554023751448
0.0336133582706708
0.032859776186424
0.0248486949287755
0.0329033953607077
0.0200301210424187
0.0424692872176284
0.0280559866723947
0.0323571612351223
0.0275538572552589
0.0284508894378468
0.0226708798518277
0.0393491453642157
0.0202104904763043
0.0340212301862008
0.0247479712375602
0.0261285815696393
0.0202131224768079
0.0370129081901873
0.0155857557847826
0.0416255518589336
0.0278131027246031
0.0321036760689868
0.0257180735019052
0.0342304748743444
0.0289184636753517
0.028313247945655
0.0241854569830724
0.0336428748847232
0.0203545698126711
0.0307397048469776
0.0192104431768573
0.0366208437378696
0.0286575200818038
0.033686726671501
0.0238299866798271
0.0116965936356085
0.0329236274858186
0.0144583131904369
0.0416743102521812
0.0388951958920646
0.0283355442250349
0.032113141894623
0.0213350319795217
0.0265154862727487
0.0192952129358279
0.0363125093649763
0.0199699307179567
0.0343646482443099
0.0244398065256138
0.029985304493607
0.0253992269694168
0.035220282141968
0.0147474812977802
0.0476480488592671
0.0189061067799476
0.0325114468781455
0.0297978680889047
0.0303632729612813
0.0187890150167333
0.0255733720691537
0.0213737118327014
0.0303818251711826
0.0220446527544803
0.0245462223278484
0.0179555371319365
0.0397557431403834
0.0247790990983328
0.0267079027865123
0.0247079379845457
0.0206013224502161
0.0120392441507299
0.0237034763079604
0.0198286174584827
0.0287270643938128
0.0297126132056769
0.0348755093818141
0.0132812935086541
0.0276166213956336
0.0261704596213665
0.0239369931276749
0.0160438757498243
0.0204128494695646
0.0233823658315035
0.0259958461298003
0.0194925056561979
0.0421617809480022
0.0115839446394269
0.0484186454705461
0.0310556777446052
0.0290206030366782
0.0283942149992124
0.0181406702911187
0.0232395050641192
0.0201060582388495
0.0285685522887623
0.022022307997578
0.0299486972536428
0.0277779051399491
0.0239141508340678
0.0317234442911529
0.0247928218434833
0.0281879097498577
0.0267591671772933
0.0311278550550863
0.00959629532646173
0.0296871868858929
0.0129138767051521
0.0329534752973992
0.0206312978145482
0.0255585092597611
0.0179717087840759
0.024851962352734
0.028203212976392
0.0239282098197791
0.0235590281299124
0.0302628410673406
0.0190290252510656
0.0292161414466378
0.0179156807273443
0.0331077983393344
0.0267146287798525
0.0311196311674158
0.0137006861981033
0.0255124682916355
0.0228262512378554
0.0266042185046406
0.0288807582895782
0.0168001089834882
0.0278504555478526
0.01996671268457
0.022766022843601
0.0227082445288872
0.0178951822535485
0.0290167720088455
0.0244689429449332
0.0201948072525956
0.0267770576747293
0.0195549748558687
0.0255156329702604
0.0238289816059964
0.0252569546620236
0.0281491230012195
0.0274418476026041
0.0254617856791102
0.0313188500804089
0.0223143263196695
0.0244950644168733
0.0202088889314011
0.0255931373333757
0.0274403447452872
0.0273291365916597
0.0224873587939043
0.022615761769488
0.0351185472385919
0.0308965650753052
0.0283645203522099
0.0277884505294527
0.0250818531394164
0.023170230646914
0.0247479497909699
0.0287718640340504
0.022846637650346
0.0260457242745639
0.0318433273708991
0.0272324087688831
0.0347006131938581
0.0286127285387568
0.0300870074481424
0.0214563239164191
0.0268935192258764
0.0262672676281131
0.027686689429538
0.0258653021635486
0.0246427946437322
0.0264293825623347
0.0255573962320017
0.0387108846421861
0.0180671522956291
0.0336892667507138
0.0196433922404928
0.0435350918533642
0.0285830733201614
0.0384008208415284
0.02162073193625
0.0288486938414842
0.0286031536380403
0.0391390085956109
0.0337571712054503
0.0353586974804698
0.0328515151944664
0.0360218112114478
0.0245216381800156
0.0294941974652506
0.0330610567361161
0.0300109510989784
0.0449114865714158
0.024516205964675
0.042535799670129
0.0284870532386355
0.0242936936085075
0.0362374668537481
0.0366088053754255
0.0356816408966129
0.0383311173019064
0.0218374280090945
0.037624736076974
0.0295157481233954
0.0345697289653609
0.0251200653300315
0.0345864452283683
0.0309656958575675
0.0392461524949441
0.0392027498047865
0.041129244431522
0.0518337871583189
0.0151867212473092
0.0507309031226441
0.0252448647395623
0.0306106575329244
0.0210275949899613
0.0352135434528628
0.0336011168854536
0.0423228984214345
0.0279229644677447
0.035753432424502
0.0310580257936716
0.0375106258576804
0.0366190456987832
0.0364747619394431
0.0389144958064898
0.0372291479168041
0.042966695437919
0.0364533673776589
0.0407180477343964
0.0371552322341049
0.0436112996601738
0.0395334069492353
0.0476166623762058
0.0444141077111077
0.0429708793561186
0.0481923247243426
0.0417182208958085
0.0293747854215065
0.0458038216642377
0.0438315703280299
0.043076295124953
0.0397389424762817
0.0471849046148034
0.0369729636561174
0.0535789864710489
0.0356237498493677
0.041457385956711
0.0506378892634029
0.0473965355000563
0.04752258136658
0.0454685200113336
0.0453639546128073
0.0477785050897295
0.0441370820329385
0.0452439593747236
0.0608473995164494
0.0555416914788728
0.0411738247252407
0.0639186250724856
0.0505479688048542
0.0539967652661284
0.0571411622093134
0.0560842793066035
0.0590666132786181
0.0481573755276507
0.0564986011065692
0.052689469574678
0.0596276310988549
0.0604785084981085
0.0568029250351089
0.0558348518443281
0.0700095535537005
0.071624443806501
0.0825491728704839
0.044580242354003
0.0740947330388279
0.0609905129788366
0.0810820254110027
0.0497091375836403
0.0693121899958747
0.0797265198951928
0.0599941205736752
0.0813839278910401
0.0693884684568599
0.0800776168516707
0.0756775655357247
0.0827645210091565
0.0716992808926566
0.0816472568951187
0.0823098588648926
0.0899744197130568
0.0883003477575705
0.0873817230803312
0.0942055764357913
0.0835319903419285
0.0898924441279126
0.101301450317036
0.091653394284843
0.102219855201787
0.10300376236385
0.109549681142523
0.107419428431528
0.106178966869544
0.128911477646548
0.097521200249006
0.114830666548196
0.0998065408551824
0.117662690256858
0.121990518550012
0.121818898571256
0.11937072715479
0.130961278367992
0.121767243082232
0.13258337167432
0.118102714417464
0.136996290157626
0.127910092514181
0.152978297600621
0.133634346332959
0.141743747660735
0.135530832866272
0.149114396209401
0.143028687528035
0.162622173794561
0.153061724538781
0.148071649124003
0.157160428387034
0.159075714157934
0.15905078967457
0.160767316836911
0.173763935805627
0.168620795224361
0.18294506311599
0.194698346812258
0.169468041752661
0.19525031354616
0.181278580241311
0.190965869088897
0.182316358092909
0.191800567460203
0.207831869213581
0.207236298874126
0.199639929054965
0.207925767207848
0.20736076004832
0.204052603553372
0.218085781360873
0.199144393454136
0.221965597253141
0.231189357267185
0.224179486924624
0.221967146412147
0.226343234768483
0.234554240866874
0.23212467531811
0.244787715638117
0.243598796248059
0.252063738966901
0.25397660100501
0.271818753895677
0.25451344858499
0.262771580323851
0.23790161123995
0.272988638862827
0.265024965460208
0.284988191410067
0.282612027152161
0.271498952103108
0.296647759886958
0.272680212445334
0.274106942442234
0.287098870478869
0.273215251898292
0.292423411733066
0.302652569473732
0.322576588050728
0.320522711131927
0.323985202306895
0.330001255045422
0.313815394143112
0.334325411317379
0.329806166912085
0.343858349578896
0.356278068425919
0.329790378788093
0.345674716185806
0.35297807970615
0.374329218185995
0.367725932486556
0.386456374626958
0.387371940396305
0.36619647055425
0.359211026561497
0.373041335484073
0.361371151940728
0.38453206285365
0.395595070605578
0.40622464268483
0.388747428511081
0.401241790737087
0.406729499217526
0.420945886088699
0.394303026926482
0.438360193739849
0.40917900247683
0.445448794556499
0.429251939235038
0.446311731442256
0.430849267061457
0.467691785268455
0.467948187780734
0.462863850843591
0.444361683985715
0.521920722807706
0.463157292215207
0.505648599595145
0.453592001479953
0.509668614828265
0.484090098838437
0.498757161336754
0.47399211865781
0.509787128358936
0.475834015875792
0.530987112007209
0.509765185779941
0.559878831854536
0.50823834771444
0.556412523897936
0.535452159712905
0.557352036584963
0.546100739246491
0.552086516321316
0.559526571657645
0.562648147199671
0.542087818382923
0.571285485123311
0.559927624772746
0.609588681272732
0.61593051973164
0.629992556106963
0.572979369241936
0.595191692481355
0.597733486443952
0.63306427686843
0.584329458878783
0.626224395138886
0.602247550261672
0.63924837690218
0.586435098068069
0.665287762292638
0.654097357969204
0.661820392677443
0.63289502785788
0.706118808819866
0.639821422817483
0.666604972323881
0.651283951306222
0.699515235018703
0.649233002277828
0.702915814701849
0.695441600363362
0.716718576837895
0.690110593684511
0.760127410218796
0.682071265034741
0.696680536037411
0.663108080623547
0.766004310245601
0.734228247384413
0.802101452611806
0.727810317291695
0.811388954945958
0.733768232974879
0.803611498226001
0.691011201102905
0.807497124601474
0.736461785933951
0.819815093981126
0.766933616443032
0.796599301288559
0.803314930908877
0.850804368621402
0.755600145736382
0.772571391283515
0.848399254762052
0.831088931789967
0.756347401427824
0.868248774553255
0.809509273239664
0.933859207784545
0.789652335967453
0.883884169620014
0.786620872320278
0.871588947643711
0.792879068294495
0.873178402708299
0.846971829986757
0.929564817322457
0.860534211431663
0.912527431402945
0.823937846838662
0.940078990727652
0.905669770305277
0.915111035863915
0.891062630212981
0.99228089541495
0.914304005570569
0.97796911489598
0.910803266274858
0.95957800621093
0.929094473471457
1.02180600160795
0.889371696793295
1.0350426036551
0.990724242916629
0.976418757631705
0.886080049313443
1.09085273470084
0.955816042157999
1.02154306792381
1.03083044019847
1.05463091103333
0.992783444990975
1.09076597202555
0.929458139479019
1.04543641240302
1.00492261650793
1.08573230313981
0.927092731371147
1.07566749196633
0.964262712383774
1.07656944621138
0.956071877073772
1.0756351004878
1.04266699357619
1.10444784714108
0.989663468634489
1.1451393304317
0.999445093699115
1.14429090140306
1.05992611003961
1.07613501508619
1.03217597540125
1.08727749457495
1.05051357261719
1.19575605473509
1.02231756268571
1.13929470814856
1.08682240235774
1.14992949419238
1.11996183806322
1.19546152435079
1.11439954205691
1.19143122435866
1.11252899144915
1.14946849898658
1.10052210688594
1.21606057757742
1.14157017999531
1.17205653817572
1.17579688222118
1.34561964432776
1.1167996997062
1.31390842619564
1.16306201032771
1.21027064646218
1.15660084640545
1.25255143697703
1.21225589982991
1.24879504125178
1.16005913392238
1.31308138279408
1.15992819812404
1.34851298838787
1.14401529954676
1.20236335130907
1.26601209653031
1.24223542464723
1.15625257237809
1.27997480174414
1.28459652264546
1.2948017054107
1.15001341858412
1.31977173249015
1.25402910252692
1.33111604034418
1.31326214055837
1.34669769810548
1.29096320823885
1.36910902033552
1.3055423695393
1.37573249637058
1.25075481582334
1.50222376101322
1.24373210942509
1.47607775120959
1.16048819921614
1.33010990659179
1.243125656084
1.30014965767557
1.30222677335077
1.36263978177102
1.30799322398563
1.29535948690778
1.17073809112148
1.40179750325066
1.35887986872703
1.46780387416931
1.32993388669144
1.32877253182197
1.21686701142103
1.36865580428805
1.24480546374885
1.41625136900992
1.30976066381452
1.56850337849955
1.29331117093068
1.40286895748008
1.24394997420829
1.47525341501252
1.35893080488477
1.39486317010735
1.21992134244415
1.51615804432909
1.33763855224985
1.38390774011577
1.33029502817909
1.49202684431016
1.40833772812465
1.33502904528055
1.24440401666812
1.57943207797963
1.3013988439935
1.4394985500431
1.25618695179497
1.38079738879508
1.2489914644258
1.44962185680724
1.3641560851926
1.3477775201558
1.35222763704191
1.4571538640312
1.34425838028042
1.35883234506651
1.27010193916122
1.42812754432842
1.36626265861889
1.5129378749635
1.32472000093681
1.40657781188865
1.35478679368777
1.53082698860018
1.35454606504415
1.39243648774747
1.30885500091729
1.60845167937385
1.41238760741478
1.55092333224333
1.20622181232363
1.38894231233216
1.36504240396723
1.3984812790364
1.28707439621557
1.44056823256232
1.29664583188521
1.31933938387891
1.35358848997471
1.40217347940882
1.32509540897793
1.38559159074739
1.47591957162045
1.45583331910857
1.42692563997893
1.5844769597874
1.45942439882588
1.32577984201768
1.30905959592155
1.42688843847419
1.3729948955104
1.43290395025781
1.30524068895185
1.5807800897898
1.35189118386109
1.48038314383654
1.31328416177892
1.39980253688582
1.37496329196837
1.7110737490061
1.38505477209934
1.44885672231832
1.32731957691817
1.50009265647543
1.28703428043062
1.40640688004092
1.40003941105698
1.45826624403875
1.32885801493682
1.47014859126184
1.34746577362315
1.51547792022464
1.29009541132683
1.46071976696018
1.43881466071826
1.51783532186739
1.31597037430439
1.32079203738663
1.31413724346994
1.40554000639147
1.334101701227
1.4608795919255
1.36409800246481
1.50129342074104
1.28127039494149
1.38095165960143
1.3797915698502
1.47714541398722
1.28734881350932
1.40864049311977
1.36185398378258
1.4776083076036
1.30216629497393
1.33557687713903
1.29499210028936
1.40931613110463
1.47034929452804
1.3917795999866
1.3061223552701
1.31508563804585
1.38339996179925
1.38201541048989
1.28709269128315
1.39696140067604
1.32751542669374
1.37964574958383
1.31000197748623
1.34611384668701
1.34204688296975
1.25503750493995
1.21387061896918
1.41646065323047
1.31946013068173
1.37445887050253
1.23707579293095
1.38602352935034
1.33154001437338
1.42793491538723
1.2209256432214
1.31492220523377
1.23124223512466
1.2566460389101
1.23507012124006
1.37811224730362
1.21615681532969
1.25490566345913
1.27541604146597
1.34467805323184
1.24557324019109
1.3420646114738
1.28453223629483
1.26643697064164
1.26605074199195
1.302839833546
1.19623584427762
1.30626712246281
1.16690804561326
1.26931623658568
1.19816811302499
1.32465060235111
1.25143486225138
1.27938641372988
1.1970244238287
1.23806660622129
1.19951445555213
1.19435664551324
1.24312782019129
1.23701692856178
1.2997407338379
1.30050431175329
1.18381336121143
1.20835981650105
1.19485222057012
1.25648788938348
1.20064741995684
1.24201309887702
1.16719955695206
1.16409097635071
1.13177239503768
1.21639425918742
1.13154304506489
1.16728920468497
1.14047725485427
1.17636490769749
1.1430372832543
1.1482501461371
1.06284966690792
1.10766722322613
1.10653158705497
1.10613420753132
1.11588622105461
1.14553550181285
1.08630939029984
1.17266852011126
1.12560301237417
1.09125938612788
1.08443759725861
1.1886743236391
1.08615596623717
1.11386532001895
1.07651143807876
1.09039529017108
1.04301711546247
1.07554356983738
1.03452374366961
1.08007447648834
1.054520601712
1.0694323444158
1.04180492662272
1.02595893050615
1.02117789336304
1.02531560965546
1.01942890841644
1.02059991969178
0.993517310743103
0.996253153961721
0.992407150307189
0.981727185802304
0.9632288300053
0.996926564203939
0.956089305993617
0.991329917675109
0.959020130806135
1.01249194720156
0.97361337738598
0.98073615565314
0.96168379955157
0.982017571367416
0.936756694975062
0.989344924929983
0.995111143069714
0.953501202960018
0.922347118872597
0.933137469945612
0.918295574268312
0.944370617151513
0.91492149350066
0.92117259347115
0.894018438878421
0.89732531876241
0.860245266509336
0.905144804834017
0.931119320028563
0.880990662658374
0.856014208590581
0.883500253895152
0.851644914509771
0.8573025296038
0.844164243104535
0.869294730287968
0.839474952760073
0.873325175096338
0.862901099360539
0.842758685056803
0.843522689949992
0.854076369388331
0.796190657139045
0.830679613515976
0.815387113392742
0.828524116663365
0.817454484824709
0.816561643443302
0.791453724952272
0.806527389198297
0.80293069170415
0.791421917235031
0.785314863394348
0.779082844527486
0.784353375441851
0.79731134317886
0.764431566671402
0.777105078781711
0.770045255148883
0.777345498775213
0.745191514640642
0.758244343337711
0.72237804510965
0.74708547036334
0.723208852909275
0.730663395713561
0.723374810114414
0.735039298744605
0.724094461055926
0.730492455211779
0.729745032089153
0.726277276548968
0.707471144782856
0.709785063511057
0.688799709784633
0.705227449271898
0.69569795056881
0.701643481971612
0.688643049638435
0.699531084361287
0.680951707319861
0.682402216966924
0.687896560854164
0.688623760617471
0.671461919521796
0.675773308361071
0.660599919185991
0.669263949670068
0.654041024234821
0.649724292638316
0.647052907442153
0.657091334977508
0.637491116112281
0.648849868294659
0.638899379004171
0.641392795311535
0.634436611527476
0.632332286532982
0.610483309977381
0.622437463524066
0.607189499810348
0.621662163050792
0.616505887010524
0.617117748542185
0.614871622284105
0.61207527736445
0.595293364646408
0.592821781532505
0.59211601386291
0.593844022572712
0.58462725083544
0.590380756033051
0.581808279685834
0.583357983721117
0.571407969535329
0.582425849984784
0.561517400705233
0.572556726630007
0.56563630187757
0.56224571027701
0.554310634178273
0.564708928810138
0.559847447951048
0.550084110392043
0.556056646444843
0.54908780393457
0.533616353142182
0.537919774684919
0.529689057922675
0.537832971750382
0.530569565423039
0.522809133002912
0.516034861863371
0.518520790043378
0.517503636755882
0.522014271994106
0.521394788697453
0.520855850322252
0.513801919618594
0.518606551858257
0.501643120803867
0.510179907186108
0.507343650173675
0.506000509100807
0.499418610120378
0.495536558422868
0.48580014951959
0.496637475800109
0.486378937285824
0.483751753832159
0.484141632341744
0.484380486718918
0.479760781242176
0.472304139840183
0.469912314592894
0.473886031272217
0.465437871803162
0.469959653369461
0.464189919314826
0.461162988560326
0.462278071372611
0.465117005787995
0.459842707580032
0.467509819830442
0.451702819056156
0.456328574681111
0.452110018693331
0.455611709019326
0.453297300462736
0.455065551395074
0.441460741498264
0.446652718040423
0.446105615895256
0.44616733400104
0.444747804304862
0.446042605488275
0.438604188326868
0.434973275196269
0.435984265798105
0.44246471589796
0.4353559952813
0.436548607226057
0.438998940151374
0.433315714198364
0.430882946071287
0.444734717283105
0.42640083449131
0.434375320315124
0.441520290181572
0.436718863854519
0.432845922318325
0.435231759590587
0.439062667341075
0.449455767298857
0.43449643581169
0.439977745347325
0.444229129830605
0.458696230230862
0.454284362691577
0.449678879505973
0.454317836054504
0.455099965847207
0.451670173943953
0.460528882028252
0.456696620828773
0.460237158661657
0.454184301270719
0.459261342546385
0.458369256368167
0.468556597393067
0.471126581213097
0.473406641373994
0.467339922147753
0.474942834418365
0.47773621451149
0.476359270903062
0.476178366191093
0.485809347719041
0.478164004084774
0.488367449878992
0.490410387014853
0.497918545342254
0.500990680358011
0.499933288986585
0.507187723977487
0.50362055397646
0.494767243289587
0.505695963834867
0.511488665453989
0.515776708292514
0.511760641260006
0.519666379658517
0.522222091046807
0.526517875028676
0.531205768294233
0.535767967299207
0.536324411475851
0.545133126482758
0.550969090439336
0.555750259823908
0.552519858079858
0.561936783877614
0.556396987471113
0.56392728853334
0.575479346904109
0.577897760340027
0.56421775518991
0.570594857111043
0.580831195148534
0.592340386008248
0.586497414011904
0.584659405512089
0.58464724615395
0.585298636472871
0.594163410636644
0.606952526620853
0.598581132661134
0.592088321564272
0.595015476872686
0.600063183456003
0.58691007060177
0.590284943269005
0.592774130870811
0.593598029746977
0.585300936014993
0.588736033526424
0.585744993510738
0.585666641857697
0.591320928460016
0.591024863134061
0.581720351940834
0.592446976990285
0.590969111944409
0.585855511319406
0.57887725075762
0.580585213785024
0.583045734235723
0.576243387692014
0.573419682370548
0.57935176933399
0.586965613739505
0.590157257867416
0.58295061666127
0.58435822444824
0.588432156378078
0.590222334062804
0.575247979784291
0.594881598047164
0.600934392642828
0.579071937466345
0.578775898309012
0.590021740124496
0.585422147304528
0.581624269266205
0.579460911971507
0.580231736793126
0.586303398315923
0.588305858501729
0.587167709211754
0.580970486386185
0.57480937761772
0.581412792150959
0.581251787641966
0.581499521701117
0.575340234479805
0.57986140234049
0.579370027289192
0.562525611918208
0.561996978782076
0.563969714314131
0.559725320719485
0.564744580025471
0.563911100438343
0.562997077554258
0.55970734659773
0.551592162593239
0.551536602760594
0.545788111313161
0.547399546302869
0.540430733735264
0.530618920744627
0.532611683636441
0.52981937504583
0.535763136052238
0.523332028065147
0.516001304119613
0.510566361209373
0.517405599978599
0.510785979223194
0.513533466052327
0.508316904512324
0.501047352651191
0.495157344992833
0.489987528929102
0.491476908199316
0.494651809246507
0.491524488385313
0.483360984028364
0.476697922960246
0.474077887416352
0.467624221026939
0.46729176468819
0.466974076224225
0.460472049017902
0.461227630490528
0.454677568149781
0.452288134053292
0.44871693264883
0.445829700157785
0.449112392314232
0.44670755518188
0.440121732758053
0.431133928492775
0.436822295069853
0.434253461459919
0.428771513847219
0.43216878449449
0.429372378470374
0.42357168569564
0.420747915033109
0.414524293345623
0.415967479594583
0.41559738764149
0.412352058294989
0.41462659451609
0.411767395095963
0.407809949426998
0.408536235726012
0.401696170265256
0.399591940926293
0.399342935703734
0.400093029973098
0.400575221023069
0.392954637359343
0.393493849492823
0.395073391197491
0.393327066083194
0.389712391058551
0.383613218308329
0.383927504306536
0.382150760902636
0.380531321478425
0.389944111853955
0.386012536042013
0.379993036049968
0.380512736565281
0.377824244487192
0.379452867560113
0.374236572126126
0.371897963961871
0.375738847445118
0.374641603577449
0.372649943656034
0.369247386892219
0.36092221650588
0.36452698906276
0.365044122037637
0.363185050261305
0.363701998010142
0.364402585610335
0.365171874034687
0.359796627994004
0.356503209361921
0.355604344588506
0.352237655555894
0.355555477429949
0.353999699265101
0.351108008833669
0.345993909303852
0.345604330036409
0.35296781302058
0.351104419549309
0.345845108226279
0.347718425381577
0.349609766492484
0.348397850381341
0.343263285478159
0.344157060124688
0.344644397098501
0.343935276185121
0.342215105664081
0.341396028804526
0.346828471778437
0.337986896284217
0.332208038114084
0.333526477979371
0.335717377640015
0.335189598324941
0.343128318624779
0.336418456754637
0.328359184835168
0.331538715233969
0.33115401094493
0.328989057415048
0.331743336598076
0.334683569810466
0.326544442258356
0.323695154439569
0.328960379988899
0.323991495066526
0.322259091757943
0.32732019382576
0.331707088494988
0.33131652088243
0.330703654569763
0.32219019295713
0.319490745022598
0.324917451106291
0.323033803784585
0.318927485731491
0.318686703702772
0.312827887066337
0.318826973102909
0.320201873088357
0.322684416495303
0.321269472307605
0.321861446869143
0.315344915463132
0.317623517670061
0.318991945666377
0.320012181950946
0.316287611498183
0.320811045627814
0.318779468467187
0.316273764539658
0.313915058813194
0.31559493331011
0.314173200554178
0.313026310500193
0.311141549530235
0.318807168456
0.31369604868605
0.311874354973302
0.313230442633885
0.310648040562018
0.308246222417625
0.31109328283444
0.30627876236464
0.312061784496133
0.309076204099141
0.307245113700038
0.305669163376477
0.304121454894551
0.306008595647093
0.305344923892033
0.301410872227293
0.300752916339714
0.300223361683258
0.301949290086303
0.305197228427845
0.302724033234241
0.302537004389194
0.298135430657316
0.29436366580322
0.298000186564559
0.298989320915201
0.297351336139866
0.294464324766875
0.300008148651512
0.291030375882893
0.294931824905556
0.296934557411217
0.297689790107577
0.290889251104991
0.296742631616517
0.292955685209852
0.290157539300703
0.28957212737353
0.287763563364649
0.291868819881868
0.28944029065885
0.286421057152063
0.28919718350533
0.286747281427193
0.290789806507309
0.290377317220274
0.28877797824015
0.283600925605016
0.293034603270062
0.285874325471996
0.277238915898444
0.280630795025921
0.28477010480631
0.288573652337551
0.280423715217564
0.281124218553193
0.283696019963084
0.278161628709269
0.275294421089422
0.274419972584518
0.278918520808345
0.279624585507455
0.278545096375423
0.275578468669299
0.274034974871916
0.273679030569144
0.273856388814207
0.269591762643437
0.267846935076834
0.269748565900277
0.269013995005318
0.267064891310468
0.267217909018735
0.26597516058201
0.26656240965375
0.266610076371158
0.263077452057154
0.264078500551259
0.265943539062206
0.26243975636912
0.258127292450491
0.258685193413126
0.261465567604505
0.258501265861221
0.258117982932371
0.254684928961286
0.256457044197548
0.260599818343575
0.25165921915475
0.254143097121211
0.252968994688934
0.251863282444808
0.252470964417077
0.251106407752631
0.249829080315941
0.248067714821156
0.250267986719273
0.246532495681037
0.248537970953709
0.243928859751627
0.244888261404837
0.24655775876338
0.240397615260103
0.241460661628601
0.238312565496192
0.237638033252651
0.240598247324251
0.238662146710385
0.23794052335202
0.234180759113595
0.236547283393846
0.237399090198489
0.235803808577017
0.235690904380221
0.23617054042268
0.233846306789448
0.232244990927956
0.232122139925243
0.234421267008638
0.227180877801879
0.22580525545979
0.227731081451672
0.231926600919524
0.227523787610222
0.227998983989844
0.232140146264716
0.227266614090779
0.228959571833807
0.226297185502142
0.223440514149758
0.223477943038195
0.222735967713179
0.220437510716659
0.221224591380053
0.220005863530264
0.218719276685695
0.223076586088189
0.214505914856632
0.217232498664248
0.217383060636862
0.216878252677615
0.213638785132103
0.217922956894618
0.213472388412994
0.216009532750134
0.218882395138253
0.213233112397517
0.212829320187536
0.215764379079982
0.210732767765147
0.211733143665292
0.208224372335775
0.211658187768249
0.210638162036146
0.208872421926451
0.209044927648558
0.209283088950093
0.209824468735825
0.210279528040599
0.206982827226752
0.205037570441613
0.205911477232611
0.206268279725524
0.206340980758281
0.207389558101821
0.206660762077001
0.20344676836677
0.20346133603631
0.203849079881597
0.202889439209854
0.202728556022981
0.20439224682717
0.205831733467086
0.204449819418902
0.20487659915817
0.202831812351266
0.201074834030827
0.205856760847503
0.203182855804428
0.201954392818717
0.200068702761232
0.196605145089511
0.197921082306952
0.19993344039888
0.198991759823177
0.196208679793125
0.195874314518974
0.196602538767231
0.202247055721246
0.197382126160009
0.197034569555251
0.195060328979794
0.197931494094157
0.193057376959302
0.195447751283161
0.192687992886731
0.195711075118951
0.193493845643354
0.192086108413012
0.19012848017891
0.192056705053097
0.191086690854649
0.193402774004647
0.18972057946843
0.191521782059685
0.192920022263995
0.188910796864016
0.189675156721026
0.18975871139512
0.187492838014227
0.188105520942429
0.188589490457885
0.189189781999703
0.187966170255822
0.182270580989442
0.185988998647878
0.187477624084892
0.187055621988182
0.185673238378934
0.188190105965565
0.18927689573352
0.182076176120289
0.182422174751279
0.183908888078901
0.185435279240594
0.181417155133811
0.181507110164248
0.180916351836409
0.185625817685432
0.185048137290981
0.182258693664106
0.180194110541057
0.180898828087174
0.181421455422817
0.181729126262359
0.179708469031662
0.178700137691177
0.179708262042438
0.18009120618811
0.178782754973278
0.179456467002924
0.177002497030468
0.177500339655084
0.177946812438125
0.179827516359972
0.173749501566539
0.172498027270305
0.173947503568464
0.179223283879813
0.173052009618312
0.178630389220548
0.172642703460331
0.1749393036883
0.170461520382462
0.173801515266967
0.176825866908008
0.170343647250813
0.174759220448309
0.171527748200556
0.169509364078575
0.170907691238754
0.16585349399935
0.172590574245435
0.170096574166147
0.169980393144185
0.166164801777117
0.163748790228569
0.163724001093771
0.16464424546559
0.16576355926176
0.168426647796404
0.162405618435212
0.167293776871228
0.161977135854015
0.164668778671008
0.15966990918736
0.159962885016742
0.160007406266913
0.159308254855515
0.160167412657767
0.165394967270235
0.157186109465339
0.155689967049586
0.154591763242333
0.160533683644236
0.156788391861066
0.158858277001077
0.153182822939062
0.154861863345451
0.155196282956985
0.151266063359135
0.151979508459802
0.156010884082541
0.153399233722111
0.151350547483163
0.154213204278063
0.154983347922023
0.14877909137177
0.153133126143756
0.145807465304606
0.151809210932803
0.144305062182063
0.150704486299649
0.144224311489804
0.146336603185866
0.145765240962473
0.148527202017595
0.14512799459824
0.142997115985954
0.142828464310997
0.142426078738554
0.14571897813942
0.14414218611849
0.143358091913641
0.140153879707137
0.14133594121282
0.141906946032666
0.139451315873183
0.140206331540976
0.137683053622327
0.138277772593311
0.134736222475915
0.137786347451252
0.135795452618243
0.135435535450755
0.13333523043381
0.138989047307715
0.13649005053485
0.138827906040044
0.132442090067393
0.133373191585264
0.13329830682706
0.13346515926986
0.12858178794198
0.134305275204635
0.131162008901521
0.128048362135032
0.127973868822902
0.132324075284145
0.129038390752865
0.130610629085404
0.125502425788151
0.127212914355587
0.131137182488716
0.129862316045759
0.125335069971887
0.126774053226647
0.126407832410333
0.128448579438836
0.123114857669003
0.124685199841476
0.123825982344478
0.124862038337137
0.122953011010467
0.12514894205695
0.123193312214594
0.12475445925888
0.123843983801275
0.120994410710294
0.121445969890973
0.120268977796325
0.119869373636239
0.121455016354299
0.117116199147944
0.119901895869156
0.117862285567848
0.121520862761985
0.119259390167611
0.122366530755515
0.121283488795157
0.121908245269649
0.11670943307429
0.11951031047326
0.116096820003874
0.118616923436957
0.112718357050125
0.114666279649502
0.112334211847518
0.119489654088066
0.110852027250517
0.117608551798831
0.107906279646047
0.117483667956307
0.113017082250899
0.114227392289227
0.110783969482342
0.11537011611358
0.106250464112325
0.11722446231051
0.115988695362736
0.117181492851953
0.114169936910243
0.110633067462294
0.107422744586834
0.112434783271195
0.104050149862381
0.110933553694654
0.105067366099819
0.110847588582308
0.103159563944291
0.110388699876127
0.105748113505763
0.112647814530254
0.101611559866566
0.111936767421787
0.10578306071909
0.110095710171649
0.101666918614915
0.109813191494697
0.101833474254831
0.107428027074792
0.104502745126937
0.109022993229999
0.101630936439535
0.103726812113053
0.100988130869742
0.105584258775652
0.106727039640967
0.110561236710835
0.106057745329061
0.109914951476156
0.10673966174452
0.110092770125692
0.101366479629503
0.105295584532732
0.10544005096933
0.106543349016966
0.109287997559947
0.0958299786039733
0.102626860084031
0.0984188220216384
0.114153608049526
0.0985491677328137
0.112129341426815
0.0928759027576604
0.116814236990391
0.0919359370831975
0.119483807135866
0.0900392792334753
0.113203298485183
0.0906886931944673
0.105948684680704
0.0935742051483171
0.1082256541025
0.0928695671816805
0.105510812164884
0.0984632468505865
0.101217901221184
0.101669526865169
0.101106541828521
0.106703032982355
0.101348173251157
0.100211979420045
0.098197942568039
0.0986437388183528
0.10168549106644
0.0992064878903993
0.102812606366999
0.0996541011113851
0.100593499195958
0.0964057529167068
0.101951959677137
0.0980703446333623
0.0982481966292559
0.101195091843243
0.101605819799753
0.0995206568291172
0.0996328562267615
0.0993028918795038
0.100319919073793
0.0959194474210482
0.0999626883695073
0.099180864579267
0.101240910016981
0.098972103636342
0.0984371359337709
0.0968216266508266
0.0995178402195386
0.0992042511992086
0.0992234840769363
0.0997891607779932
0.0997934269795719
0.0982572906746031
0.0991550496345534
0.0967114499415154
0.10020990865474
0.0970183955354291
0.102139758320317
0.100450247174757
0.0994424640533047
0.0986101499460049
0.0998650858576989
0.0989297185881614
0.0995716679778194
0.100793632457684
0.098644029444444
0.0976588884530652
0.0993960743941621
0.0980116865647711
0.0966137756702801
0.0993526112961461
0.097597369285793
0.0958610545349819
0.0985752179696422
0.0980703676208983
0.0994391434242287
0.0995971448782553
0.0985094225904952
0.0972727166972083
0.101608744164046
0.0995058782543879
0.0992375901060949
0.100783570119169
0.0994661156781816
0.0973531562215331
0.0995136567041925
0.0994306443733966
0.10082216778044
0.0982313951550863
0.102261873271064
0.100423266029234
0.100083713899995
0.0995001427359231
0.0989352928231038
0.097512030176811
0.0977271273702042
0.0988440965815594
0.0990729726625013
0.100236592440297
0.101326102760941
0.100737344392599
0.0994666685393423
0.101036175895976
0.0986226683285832
0.0987804735686626
0.0987005121154649
0.0981531972699238
0.0981651930957105
0.098822907528145
0.101955049940917
0.100284696010682
0.0975109700739454
0.0992488662185113
0.100122199348638
0.103951598222695
0.101600090118021
0.102237800300435
0.100163312196664
0.100594493364332
0.100216959390106
0.101701550698878
0.0989285896505182
0.102319153809914
0.0999352346323173
0.102908839312594
0.101292561738537
0.10133183825781
0.101723700485748
0.100382377920552
0.101940013289303
0.103611717815208
0.101899437041227
0.106077008693513
0.102763204337753
0.100117430679068
0.104765093812863
0.104674990351971
0.103779441613811
0.102739374286426
0.101347221636882
0.100524323376159
0.104561979169287
0.101499396954973
0.102873722984695
0.102815432018983
0.1028816954541
0.10312680314967
0.102636252855007
0.105729340713646
0.103313911311967
0.104918727840218
0.103118626052008
0.10554283467758
0.105555227902877
0.106918814540777
0.103532412559001
0.104114931787352
0.105340000475116
0.104973932914725
0.106570216276406
0.105730144605096
0.103845982525009
0.104621256139525
0.104808223936804
0.106708805041447
0.105108873591509
0.107177532679736
0.105486631363835
0.104308173844019
0.105053626700068
0.108436148127379
0.106191628942583
0.109191903323036
0.108383778761953
0.107713280980973
0.108834014071663
0.110378635991896
0.109306246196428
0.105958692863233
0.10893123684062
0.108223036721869
0.108694034722007
0.109690306298089
0.109649107465209
0.108323222030381
0.112377734285632
0.108894129097713
0.109285837567996
0.108029724561394
0.111887553395542
0.109831830795937
0.107504064936746
0.109461567139995
0.109741474407496
0.109157297421585
0.108337102411429
0.107364674362375
0.105924534677072
0.108116444139214
0.109613773066663
0.10853161378173
0.109273129228563
0.105248369314222
0.108242357132935
0.106967822438712
0.105698437095764
0.104460602219521
0.104833634296682
0.106066694334591
0.105452622476491
0.107187223091329
0.10408246443018
0.106578020039529
0.106078018448451
0.104577211905354
0.104248652468728
0.107401624192427
0.102938910153596
0.105243988397851
0.105308818801923
0.102934571571259
0.104119092057526
0.105692476061186
0.104162572612244
0.103366558522885
0.104248430467241
0.105210352060852
0.104502521538752
0.105055797456717
0.103684222299595
0.105134094262116
0.104376052841819
0.102210199723016
0.100751586626019
0.103525217308624
0.104204158976552
0.104162970934603
0.10181659372552
0.103305511419886
0.100926483417059
0.102860433705359
0.102356156320264
0.102583032009245
0.101396789048693
0.10025267405586
0.101767436736474
0.101592396333141
0.102155180673693
0.102286002113518
0.0987747704008085
0.100799078329545
0.0989561747023488
0.101028277117112
0.0999431014393012
0.0999077353244634
0.0988459583647391
0.10076963143543
0.10052824883321
0.100102488444444
0.100298721618684
0.101280425895776
0.0988283249296429
0.0982688129177537
0.0984582090752639
0.0996995236358867
0.0998099379353449
0.102025023486615
0.0989735503938567
0.0981690723488323
0.098938516013657
0.0990201323058148
0.0977853769555273
0.100155209636696
0.0993773096057734
0.0984276522216188
0.0975989834763699
0.0989657780571741
0.0979199847560256
0.0970049429161768
0.0968656004043859
0.100857836026776
0.0974158225683922
0.096868679333435
0.0993796284492657
0.0973489605977999
0.0970328996616891
0.0984796478375646
0.0983329585659924
0.0975226984324135
0.0971178462514939
0.0974089767555158
0.0949717206001475
0.0972409586074836
0.0969379781156626
0.09554713969558
0.0966105284754838
0.0971635755508792
0.0949972186675458
0.0954730740433164
0.0943989652049991
0.0940957554054748
0.094849066236076
0.093788289989259
0.0941516807060401
0.0954630349620631
0.0962003708138573
0.0972334523014759
0.0939420247899281
0.0962301980058032
0.0929874802471192
0.0925097360706444
0.0940495632758177
0.0947300621613211
0.0932169512949905
0.091762091850793
0.0919029166596806
0.0911972084233431
0.0909482823082429
0.0906363980702466
0.0906246717438093
0.0914509488193296
0.0898288258057579
0.0889337899264826
0.0891604986279458
0.0892224139571175
0.0874357056455494
0.0891133387538046
0.085933646023868
0.0883540973892113
0.0873306466778225
0.0886391179950317
0.0858007055126307
0.0873516921763482
0.0871459072939176
0.0867456242084496
0.0856600652607999
0.0856052782351922
0.0863858796441708
0.0858068923987459
0.0866581295251098
0.0868308868060213
0.0868448029716819
0.083822159032155
0.0819349658534008
0.0830361777720076
0.0816798295400384
0.0827943084323861
0.0811682212049147
0.084435199943051
0.081920639915214
0.0819686704046165
0.0816938183764572
0.0812341943411172
0.0801999369333246
0.0812598463898955
0.0802338257865618
0.0827450899323247
0.0803797965026846
0.080854823436443
0.0801494813479828
0.0810934325176942
0.0810471148249454
0.0802609719802415
0.0809739354729816
0.0796306721232168
0.0778822452353806
0.0807270165386158
0.079348036557415
0.0773131310755634
0.0793608448129987
0.0794389451360142
0.0766892317207798
0.0776082765542246
0.0787544789811736
0.078570294342561
0.0794341956961816
0.0787689164000152
0.0767516925423503
0.0780972802763761
0.078413347108211
0.077336658215646
0.0773821578652794
0.077446622137612
0.0766824939845849
0.0745518502736991
0.0778580415933728
0.0781206381951542
0.077454508798927
0.0763124190695104
0.0748652646538047
0.0741179359206249
0.0762190339052219
0.0746847058785974
0.0756225972692357
0.0778236560361388
0.0743490661398069
0.0757350432557709
0.0768533445744219
0.0770879293375974
0.0731745957991865
0.072791534069231
0.0741189060069943
0.0745457496275088
0.0742721343601234
0.0751924546784312
0.0746075666300987
0.0735824608716577
0.0740510697414126
0.0737809235198475
0.0726972772175894
0.0740957248784878
0.0752177010037809
0.0764717086296329
0.0712821711415043
0.0757399903265248
0.0717898132430297
0.0731024501593528
0.0731285018768485
0.0734888644351452
0.0713140477224676
0.0752643255662934
0.0732836005439508
0.0710299455534193
0.0696252525637212
0.0717698437686487
0.0704046665915265
0.0720022581727135
0.072886464435603
0.0733975726008877
0.0678971897493596
0.0722591491965326
0.0704499275228198
0.0710497250128996
0.0726045777156487
0.0727141346261602
0.0705389434875018
0.074566343998563
0.0694504305932295
0.0744013294121407
0.0685930745000021
0.0708772579548719
0.0709124060764665
0.0721526894141711
0.0715142045025284
0.0726521980709433
0.0734972981799951
0.0711012133176647
0.0744528943652985
0.0706601587370556
0.0705460119606001
0.0684646107992159
0.0712712155157531
0.071035294475742
0.0702122561033944
0.0701254588156708
0.0697441839248902
0.0711784625930222
0.0690779561692486
0.070578765982582
0.0718930229616381
0.0723287987643705
0.0719114870523467
0.0727111574199807
0.0719867581105341
0.0696075823829107
0.0687565909419426
0.0688040327109786
0.0705033060989034
0.0719612863380132
0.0751935567506681
0.0684152253747851
0.0715369978322081
0.0688254413313888
0.0713475343080699
0.0701524996699797
0.0706744793400914
0.0699072534688837
0.0687203593597663
0.0704820541378398
0.07194980406056
0.0709550779318802
0.0686766031478736
0.0683104456708392
0.0702175442641923
0.0704300968403722
0.0669000378831836
0.0693381234463724
0.0682533427591167
0.0710940491098016
0.068819126784054
0.0726873058179462
0.0728860047633104
0.0675042681895238
0.071453955762135
0.0666423156543214
0.0705585187599751
0.0694001770202916
0.0719222581296144
0.0675484760531781
0.0690840765351299
0.0674764035009184
0.0706605924604015
0.0701005676248866
0.0702609723915121
0.0690652449899893
0.0718305872868564
0.0695621237366348
0.0706214310358113
0.0680019878432571
0.0729590041688347
0.0688582616296583
0.0714748252695973
0.0690362705086207
0.0756372442138356
0.0700956345070774
0.0710423203169176
0.0704956254253513
0.0726516702732594
0.0756436194369912
0.0676434080222451
0.0752101399671625
0.0700776523659249
0.0715676450038348
0.0687894087417305
0.0721475526380741
0.0736381578429387
0.0718780320099554
0.0715408477945609
0.0732359538933011
0.070634727582697
0.0714566282893663
0.0708158809670826
0.0737290257806607
0.077155207163353
0.0717726937207506
0.0721109348022542
0.0740840562452382
0.0686478728710625
0.0794704908858347
0.0717060630347406
0.0751671420086645
0.0743116321553003
0.0732496099117014
0.0764291099400156
0.0754641790624278
0.0748293961393266
0.0778985950954469
0.0755361472940245
0.0711998127508749
0.0749292889273943
0.0745593185547768
0.0746088712569189
0.0760306816755848
0.0765163952480495
0.0790320344197743
0.0770477561686145
0.0775387575617929
0.0774251633179162
0.07604581243769
0.0782243635218866
0.0768916588742186
0.0785195642417271
0.0789145284999764
0.0798463136894167
0.0779575496562145
0.0807490081765149
0.0806274310406751
0.0791726734821834
0.0790857606281332
0.0806707230961639
0.0784166407226123
0.0821449626774352
0.0791728196542012
0.0897864755706698
0.0805935667274614
0.0884482597504879
0.0793047296880877
0.082569576890243
0.0776031013150801
0.0832648999431569
0.0791765800556213
0.0838558819535895
0.0839680523036173
0.0826401217556062
0.0858677748491024
0.084243350179208
0.0890329859122899
0.0850004660719287
0.0876205897421742
0.0854627247206261
0.0870877991763759
0.0855967989840101
0.091116526848266
0.0847635155952737
0.0946797861404891
0.0874652987180731
0.084412837587697
0.0899505953132785
0.088556270240373
0.0972002242732866
0.0926662817173933
0.0910466680062206
0.090755930572194
0.0893041253947834
0.0950833407660564
0.0913159230203836
0.0989507348949123
0.0955254832150638
0.0930433250985634
0.0964362150478303
0.095589391563531
0.0997847927415317
0.100131438625457
0.0972308055718551
0.0973244486204711
0.0998720051427135
0.100617999895479
0.0994573398671079
0.108516309437048
0.0979874076586123
0.115891985335319
0.103208346249392
0.111058958013257
0.105086996276515
0.112177589390865
0.112848171777655
0.115793459772448
0.107586395976704
0.117401712356652
0.112105733564461
0.123117024278054
0.113671075219597
0.120231378801535
0.120790715649307
0.121949821480177
0.13012207708117
0.13156829263665
0.125688855491216
0.130916092697994
0.126695813968919
0.134837201356626
0.13256185942776
0.134493675782041
0.136081717767431
0.135406737435033
0.13978440190564
0.140473022693203
0.140405887544222
0.143825922945052
0.142954498919923
0.149323817420769
0.145993413849696
0.159196796484958
0.1535942570373
0.159693827648626
0.156442122034578
0.158530604782098
0.157371751637876
0.158390444836178
0.159741386209229
0.159271561878025
0.163210012587537
0.168806491161289
0.166587028416549
0.166769156323301
0.171347153637359
0.177863392806459
0.174338604967305
0.186398236320101
0.175550949229731
0.187052535475244
0.188274694515334
0.220737625520841
0.20245242543599
0.197215660974686
0.214455942506557
0.204241904913325
0.236584655466536
0.224503529858419
0.229629158923134
0.23413368393075
0.24432999090445
0.251718115541085
0.258097297543249
0.263972597676277
0.2745340880144
0.273756343431126
0.278892664892271
0.287448240239435
0.319860569126559
0.313612734815843
0.319887728076052
0.31570003393658
0.331930866279971
0.343808218569954
0.347230509343576
0.347437093168128
0.36061124003609
0.355645613258286
0.401044279517462
0.38267432084021
0.397471974310998
0.398979904235476
0.414294234865755
0.417628421932737
0.431822945164181
0.452644975125286
0.443748440787952
0.455274203429002
0.45807191620682
0.473717284371916
0.469301895211312
0.502255198062569
0.505489528269894
0.500819058330631
0.510069084851209
0.5136511591465
0.525907593822877
0.529574429863054
0.536217244669681
0.534827475949417
0.551368650791891
0.567537810546462
0.579567568246049
0.560950333719283
0.548374469908359
0.555155963657275
0.543497736461025
0.576815372352625
0.567435674852175
0.58426161244359
0.596205793045646
0.56634986235468
0.570307883752698
0.564557494424992
0.57270558658741
0.563149773904469
0.580031656905311
0.583277875269576
0.577915116563993
0.580955721019014
0.576318620678539
0.61068611574673
0.568929968708063
0.569613672590944
0.56694783234924
0.570415272137448
0.568494073376363
0.571961833187248
0.559147302737886
0.574520073877843
0.556384009841628
0.549594036789491
0.545635362178532
0.54016561815505
0.558904757020926
0.529901164248002
0.529636214141864
0.526329326742699
0.515671504371059
0.502964417450149
0.51073989739712
0.542821080207663
0.498809161333043
0.492761967555372
0.495246140775941
0.47987967360016
0.480974279759918
0.477297740319247
0.473001491803585
0.470707857126463
0.464474273053815
0.455982889736357
0.459787290864638
0.45497999657611
0.45074112080427
0.446636049617948
0.45276919474627
0.439369827214422
0.440412560366627
0.43619260805565
0.440311140855382
0.434184878436997
0.434953387835428
0.434797660150677
0.433534158245854
0.435459890866198
0.436726445444715
0.426708013276507
0.426681290309974
0.426243724491232
0.428001421648356
0.422251939986689
0.422099239201824
0.420643156892752
0.421561360976929
0.418791671106764
0.423601990291909
0.417074182369892
0.419290904149348
0.414651630506189
0.416323215733368
0.408205526128305
0.408468091999338
0.40604940994785
0.418577421663347
0.416546987400699
0.39693017672814
0.400921830191481
0.403917524036154
0.409042192042034
0.398643394685681
0.403296446899895
0.403972978830499
0.389394056162895
0.398257376582503
0.397080777412099
0.391914632778843
0.389334555609978
0.387201223633067
0.38218399729908
0.385655107151191
0.394089935594223
0.412925392372685
0.395501158489931
0.41268701784649
0.383903527223368
0.37823125924308
0.378929540782246
0.398137581372409
0.380965338078403
0.37794381220537
0.380340792816615
0.37438192337239
0.383657369140877
0.375117934022646
0.37893447193857
0.370406913797274
0.371085286479636
0.381943303513589
0.366825762337761
0.378473261877637
0.379264470353892
0.366969911574981
0.369981342503682
0.393580878106232
0.368308789743963
0.357441682887937
0.353703945576687
0.352235233334872
0.35027732057255
0.360191799561343
0.353990146590301
0.347503029843872
0.338435710910152
0.335794093962052
0.344546413332549
0.339929541209504
0.338959553059506
0.333005329338701
0.329713925442644
0.328488725574146
0.318836113168359
0.332659592178725
0.32143903444334
0.338234169650098
0.318920056784929
0.317104473269587
0.316352504798265
0.329977651282125
0.317613565106956
0.311956968231691
0.303679339465328
0.303240479108269
0.308347050292327
0.302970510864724
0.29719342308915
0.301003836761275
0.294234815790211
0.301883374900106
0.305978472396741
0.298097953826221
0.291013660417653
0.288001806221726
0.28626003105634
0.291619120309069
0.283089158453294
0.286998437864366
0.282755142168273
0.29146136010334
0.280333913636233
0.290224784277322
0.290764877283394
0.287181245408989
0.287834009303232
0.292597457189101
0.292099114214263
0.310898435335806
0.299271025026035
0.304202638417868
0.296099109911769
0.313163088469192
0.309337962462017
0.314358126499902
0.31953325870833
0.326800420946757
0.326671562792084
0.336461045382636
0.343328815243245
0.343521853636821
0.347967186416579
0.358468036210641
0.359541811383938
0.376211212973885
0.375330671437366
0.380922140780319
0.40686817809015
0.407172438756291
0.418903230566545
0.413181366473728
0.419766811592107
0.429022379963569
0.431991881452238
0.437147706139973
0.440392125761216
0.465816716653462
0.459067286873646
0.466165899559197
0.472971802807164
0.472655436785883
0.473315800759192
0.485337811024576
0.492229249075938
0.496800791978032
0.503579874975094
0.504704767010015
0.504040948591463
0.504973164976375
0.500959310544423
0.518462664011658
0.510265823710239
0.516066517218144
0.510232668083017
0.524848813405454
0.518215492665222
0.530440129280787
0.526664302626842
0.527485317056321
0.53053137827295
0.538011725090281
0.538288551122351
0.540077774844695
0.540071683966449
0.549446303570146
0.54499852374297
0.578543547061885
0.563038579534357
0.560941218022257
0.565003330863656
0.571656185506456
0.576422357805474
0.576770229349425
0.583890454401829
0.591650878487217
0.583181942073799
0.58632262893704
0.594949175728313
0.598523487022435
0.600105686293064
0.604816458748543
0.599701412323594
0.603793576415861
0.609602496869884
0.630668001110543
0.633711023549141
0.630866251787381
0.627477564911952
0.630357267089546
0.625602527389727
0.628050856942077
0.630812919277969
0.631158914078289
0.634874766175224
0.642141218837145
0.638686268260064
0.63967495081176
0.641019050032299
0.637566295349176
0.639669919668153
0.646723192366899
0.639709205159494
0.633679876834922
0.630587768765248
0.63483119035648
0.625223598345791
0.632047757086406
0.643770186527774
0.632122612910893
0.625244347462074
0.629873449094625
0.639795853297167
0.641055550104815
0.628094236681099
0.631021978493814
0.625328466738979
0.637410571061656
0.631727184815283
0.63326999367861
0.655293327359978
0.639697730374464
0.646238251217128
0.650046504225839
0.649968254243186
0.652741625816378
0.648944151696672
0.664894705798906
0.670607655484105
0.658668777372823
0.666672751111178
0.673198250462443
0.671041169920466
0.672136331318225
0.673699193467324
0.680714606971849
0.665800083097953
0.674839424126628
0.666825820135226
0.676301208772379
0.675266230228827
0.667972850171028
0.660635951360825
0.665987528824679
0.649478657513132
0.65418542591973
0.666648066717879
0.649577614976829
0.654198197369495
0.640195693243293
0.638606015494018
0.632100447422971
0.631305738196139
0.629992028122454
0.624398506496346
0.624210201382172
0.617522550208691
0.616193701367128
0.608433452087779
0.614207357437288
0.613259379932556
0.604757012873882
0.605102290892413
0.60813470866325
0.605446312128498
0.604499712147426
0.607725247432985
0.601641844918486
0.602703689850489
0.600219649823186
0.606149868456087
0.610280839827485
0.601122624569304
0.603642436151034
0.606740805330023
0.60533909527731
0.601750087322016
0.59890944405889
0.604145207835603
0.598473337864927
0.604876230789809
0.597257784509024
0.597890413973919
0.601200853288274
0.598186362229693
0.597662012334964
0.589834184434176
0.594200421982745
0.59124568366643
0.596472778664179
0.599258937313663
0.594321704313198
0.58934698034075
0.589581457080461
0.589240823731754
0.596770011713306
0.583185380080941
0.587727456927768
0.589708745794082
0.592903851907264
0.588258664284394
0.588016398733028
0.582990165066393
0.587249535213817
0.584541935407956
0.586094361716555
0.585486321325104
0.591924591631239
0.586253836784648
0.582420868413892
0.583016096813352
0.575431940520677
0.567458731048484
0.576627239124806
0.571699340491318
0.565581475630663
0.560000905149463
0.556740880007405
0.550665170041071
0.552158257213584
0.546075224178944
0.538494628780989
0.534820925263676
0.533932714565025
0.527884433415631
0.524882854599585
0.526358286523134
0.521944902535525
0.522460963192951
0.515203109480275
0.514055622982637
0.515482555427098
0.512296012774901
0.516829540754342
0.513375874444077
0.511722222103655
0.514691612063894
0.51273769804166
0.51162225234636
0.514569660638666
0.517158940026241
0.516738169067458
0.518354051568578
0.5221957719154
0.520429467099567
0.521052478756417
0.524849665560654
0.52369051898917
0.525941640238873
0.528702976650567
0.532547344383084
0.534656398229997
0.538659051701539
0.540004819017287
0.540535723413616
0.539581507310316
0.538079938623793
0.54338117118691
0.53746184647875
0.54176479817977
0.541857905232292
0.54552645617578
0.545099280234692
0.543305872293704
0.542993712479709
0.542004484688765
0.54401708626398
0.539919354312545
0.54364141715566
0.541043898746066
0.533639063203118
0.535129138757966
0.532798462067731
0.530863857597349
0.528681025658198
0.532573196824889
0.531499243050465
0.528346991324457
0.528475266253679
0.525866432430004
0.521510024550191
0.523795946042536
0.521119618269907
0.522724120548731
0.519578044938927
0.519477904308582
0.514255422824367
0.510367986127924
0.512198023341674
0.508489519971158
0.509762987550408
0.50651859876885
0.503986825958099
0.505614448761023
0.501671221943497
0.502794715963085
0.499062745198267
0.496328426167875
0.494444873705414
0.492468214310326
0.487998025171434
0.485586204127584
0.483713369329028
0.481959703926844
0.479724922615142
0.471574455480802
0.471070798471975
0.468195773093582
0.468124973017147
0.459855847738763
0.456253273260279
0.460886448187941
0.455023879398946
0.449761842362339
0.452892686854981
0.447794575262332
0.45059854568621
0.44866954303088
0.44756231665787
0.443689003717304
0.445863163117918
0.442148083589471
0.442461239389642
0.438124798934214
0.434944822253942
0.430059468538295
0.428194561506288
0.42515001827606
0.417657047324354
0.415104463364785
0.407303856939978
0.404900583010117
0.398380618247651
0.393528967202542
0.387093388087578
0.388160909086859
0.385446216733519
0.385211365863517
0.386767074992018
0.389986050017948
0.391472091574697
0.401836719713211
0.404579392327134
0.413695322830221
0.423027361673719
0.435663196477208
0.447819757932134
0.463772326812888
0.478275822463037
0.496998362625137
0.512050273364464
0.527144126103654
0.544942244812031
0.559288136662824
0.577028359539184
0.591175460232588
0.613715291271139
0.626969463619582
0.64715701144795
0.666202300880114
0.679636275609387
0.703629375974213
0.717357535354114
0.737535838425212
0.752243925374728
0.771767286935303
0.782687301877979
0.797513841879244
0.813395413059142
0.824709777243767
0.835399228253254
0.841790534610014
0.84758372439502
0.860509098043357
0.863280992859334
0.878283321947896
0.875840323559265
0.874329904890028
0.875388659184812
0.883056416555856
0.879167335525097
0.872116076389072
0.877984872369129
0.878286422817086
0.873664400501023
0.87661809940573
0.875936061382833
0.87013314220064
0.876877213957152
0.869177205090247
0.873893284302196
0.882506070115779
0.882198502186557
0.880537197301163
0.8964641811543
0.892583034911899
0.900096586526932
0.903467957760042
0.915178326849857
0.925813633699733
0.9371778484887
0.944057057717553
0.953238348462239
0.967452143400484
0.981770140040599
0.987771693567058
0.997615411083072
1.00669430699815
1.01749928115641
1.02714432120365
1.03901430487941
1.03815233614187
1.05962786184816
1.05265469604284
1.04696960097718
1.05783287488989
1.0577640170032
1.03661795587221
1.03312860849071
1.04299852146166
1.04829615105412
1.02588995744531
1.0411691501397
1.04548210426377
1.05874147935056
1.06455907509996
1.06818892410714
1.07438910935372
1.09139550660469
1.10527030582616
1.09301319537789
1.12017375367926
1.12828653012006
1.15297216913276
1.14471149039259
1.16179701784488
1.19172575910639
1.2000469252121
1.22099917483838
1.22034668016116
1.26017007558453
1.25405730190277
1.25922765245915
1.28155445830072
1.30524344129999
1.33677487379605
1.36281776448194
1.38295535513062
1.40367093071129
1.4238289437667
1.46843966501044
1.49030343374829
1.50426048170472
1.52109126152855
1.57249532101414
1.51378375908286
1.56360259150392
1.56300838356925
1.56533246947886
1.61951659832598
1.653338076176
1.63891178533983
1.64256945912172
1.65869632336187
1.61728851478427
1.64596174601021
1.6561745997347
1.65747092965708
1.61760754956283
1.61569590852768
1.65404226964735
1.5910526419084
1.61718260698158
1.61483550255504
1.61189706031429
1.65560664933801
1.68260016270854
1.5983153663125
1.61472562732798
1.63936434907573
1.71795182884599
1.70049169969749
1.77429713088676
1.76919573026977
1.74596933912495
1.7255388497233
1.71620725115143
1.7543951800068
1.86641102592757
1.80355137888895
1.9936633041124
1.84938675470896
1.81464221732783
1.91900003051572
2.04611723378319
1.98517841996567
1.89789095294672
1.95002710656389
1.9167080684555
1.91673122470814
2.05091640767782
2.01575900805076
2.05976632032831
1.90816999140894
2.22681377274214
1.95834128043018
2.04768443286036
2.00024042057794
2.37921076946013
2.0649827982102
2.28717013436848
1.87854331339621
2.15443715714772
2.14585240934841
2.55024843401937
2.08692309462927
2.45259588395496
1.97872598061468
2.16235738135639
2.19005817832151
2.19744618425298
2.08480741325897
2.02795167224417
2.10692543161999
2.10203956998317
1.95507266821072
2.27589982301079
1.94369637936368
1.96584536495404
1.72970534985628
1.94710149849132
1.8437923796157
1.80417907271523
1.69648706789568
1.72868571691113
1.62248750755756
1.76156994390663
1.66100100871961
1.72504238788826
1.64791004277476
1.73198521807034
1.63331434163252
1.67952343875207
1.70517747568017
1.57209859028161
1.61568447824454
1.62454728613077
1.58003865207094
1.59571002289048
1.53800266184605
1.59037253429709
1.49489379416966
1.53977835825221
1.42761100041769
1.43633741010538
1.3930517955131
1.40294046129357
1.33272092698679
1.30186977376993
1.26546728369404
1.25020332075121
1.18889845846761
1.14402123560099
1.09037348514885
1.03646681446122
0.994617825968568
0.967913679440741
0.910973538799856
0.891885309602973
0.872204127672968
0.843841081680803
0.806431658281337
0.776490754659955
0.762581304552755
0.741201532804194
0.703207301018585
0.694606123661335
0.683036796569454
0.670642470274333
0.654635830172434
0.650222486793911
0.643485879936497
0.64477536162497
0.624389434930306
0.626247661253798
0.6243139850203
0.621893647078715
0.61878390684697
0.613906815416346
0.620146999369647
0.619791270524341
0.616566822007894
0.623361300202077
0.625836685108379
0.626866053476276
0.620660668817444
0.634992584691363
0.625215755902518
0.614922006415021
0.608960290628582
0.612052121772708
0.613105231547966
0.612669318249172
0.611006719272401
0.608495162269951
0.602317482235711
0.598837542656773
0.600090638943373
0.599178442976975
0.596225003525926
0.607162862500956
0.595744813717273
0.601246177186682
0.598989913909963
0.606105213135164
0.606749213565663
0.616512044325291
0.611339336069468
0.615640525747151
0.61820054266813
0.615388946488676
0.609527290588028
0.62164163137695
0.623817276900948
0.62699415663067
0.622776033492833
0.628265891891029
0.616818324453279
0.632583935816473
0.610618176217724
0.617938053961834
0.625880300058881
0.623051990997612
0.614330660451289
0.618122941989506
0.63064299815026
0.630606567073246
0.6363755085252
0.633346195123845
0.640891539742716
0.650190703167685
0.648534920516712
0.671116104706997
0.67830162128919
0.684692398175724
0.715330207294149
0.731896188178411
0.74613516037751
0.765193056222103
0.752524769073221
0.773669508248854
0.763030366277733
0.772740624616518
0.757637683044179
0.746023214347766
0.733365387693517
0.743737751829647
0.736901945628049
0.717987396529911
0.71916401410619
0.697955413951756
0.694428550082769
0.697664416774792
0.682012739185841
0.698904092731452
0.688663475994435
0.697711902813539
0.6975865290789
0.706632507643697
0.695856419264442
0.706974655121384
0.697178819389496
0.692139810111077
0.684517833037179
0.680903636413495
0.68225284873599
0.667421447388386
0.662177832032937
0.671875670308235
0.653738999651101
0.67553784242977
0.656700290171164
0.655841024538207
0.63172082869894
0.637051615721361
0.641063099251676
0.651155026158164
0.644741071822785
0.656354417243123
0.629043544011874
0.631719671026941
0.624752090509458
0.634494753301674
0.626623777847756
0.631715844709862
0.606146192612713
0.638439632945647
0.618134412223598
0.617118216201235
0.612869804968942
0.620510819574945
0.618952594141837
0.60229570546559
0.603399816212583
0.616964979619074
0.597605850910513
0.604143195815663
0.592496242164313
0.584272071232624
0.576697139896172
0.581537970088218
0.573054344642205
0.584868505806584
0.585744961043961
0.580878565621446
0.568462376591772
0.568695494139601
0.569274695073454
0.592535325038624
0.565739209742433
0.553232053043057
0.562053156064876
0.570598983046634
0.553426138247377
0.577800625863982
0.563266369520937
0.559252709517565
0.571181060388874
0.590123072916921
0.581199206964177
0.580012422977897
0.570936079084506
0.57586615273547
0.569669763697323
0.60297893170402
0.569151784525139
0.586330649977457
0.584513699680135
0.585761980301899
0.572570009032659
0.587654906512161
0.599806790622495
0.617921898863386
0.582817323348314
0.613271295681404
0.619131373931377
0.631571055520197
0.637966277436534
0.641861540559568
0.620428068214285
0.654483460576171
0.642821528830044
0.668515254356302
0.679190039514443
0.678865847076796
0.694723322061104
0.735062305902202
0.745253248150894
0.807994940559922
0.801959316259873
0.794835957196086
0.797651686885924
0.846728401732
0.8214473388086
0.877971908087116
0.848346477693789
0.894832574358057
0.899923099639897
0.920386635800463
0.905783435936737
0.92427904433643
0.90229925963008
0.922565616924062
0.880626516047358
0.922977030071192
0.911530668318891
0.863026043007045
0.902075679363607
0.89508249765724
0.890572502223692
0.985613749679626
0.890222143280846
0.936844040280719
0.908547372895311
0.904365707035387
0.860965438593983
0.847160568513456
0.930564802019493
0.9788640139753
0.915609140724107
0.859059383751869
0.863408270368888
0.882133271248092
0.879916405939983
0.877110600464964
0.866441133277743
0.939991455467167
0.878182700285294
0.92845245993
0.903431662614207
0.846169326527789
0.777780536546364
0.826437998717089
0.87994968961577
0.860568751522613
0.841594516474509
0.8490388158356
0.849530322856307
0.876741697549704
0.895664326030636
0.858378528948289
0.80184685068853
0.914181164762213
0.916027660411411
0.855140723403342
0.859199641498364
0.904704555686075
0.850223744698143
0.930860997433402
0.797100244772142
0.899259131915067
0.892827669582392
0.910877735451472
0.966465868719534
0.893489432178748
0.890044598161765
0.851465256177012
0.88372096197933
0.930676473999455
0.90713342934864
0.855907625102796
0.82437398208388
0.890670192404018
0.95553485812389
1.00981222686795
0.868518388413396
0.996340551630657
0.922811387592322
0.921433741422599
0.976008870244322
1.01163355472568
0.898180967367661
1.0197551904871
0.977267040090118
0.91407626869391
0.970590872112594
1.16536357136439
1.06018598579878
1.19204824389644
1.10785502587984
1.05719481019504
1.17919599741795
1.12765762318391
1.01113680457136
1.13591600357665
1.04805377370157
1.13456303582243
1.07304062998275
1.20882595122608
1.10149471945313
1.36969665338281
1.0448472231435
0.988561855228612
1.13814421779531
1.45131730510276
1.09333586106513
1.08110228577707
1.02716045811256
1.3588111896318
1.19805870375154
1.15650457450007
1.06028761879104
0.812256913424689
0.890045566022212
0.983772931066387
1.08962968739242
1.480297811232
1.09348143369171
0.970604449299777
0.979610113164828
1.84916113985102
2.21148011676143
1.40052518166868
0.913311265519332
1.03534985292257
0.99184430934903
0.868169992389286
1.51045188026874
5
0.910741277080131
0.842326861363534
0.925580507154863
1.52690365419231
1.1319259510228
1.25327756702679
0.894209119474368
1.02194508506464
0.776606393305196
1.02817619389868
5
1.06593120521306
0.974562560307586
1.44323877769078
0.710963988804282
5
5
5
5
1.24348851791846
1.76929461072085
0.636892719644677
0.557628022558226
