3596
4000.36533379555
650.420452594757
1
2
2
0.0276019757702063
0.01939248107102
0.0257454420256463
0.0154601913669956
0.0205832141418665
0.0147054082041469
0.0213538085203019
0.0208145624139168
0.0267937589825561
0.0080226538458575
0.0159842765006169
0.0151155104118438
0.0262684473701095
0.0163824319406452
0.0186612966427127
0.019484290296587
0.0216649051604045
0.0177006340414266
0.0245674885082274
0.0248151995167123
0.0285293155389222
0.00808958864953032
0.0309853988957526
0.0218021744892687
0.0177636720038097
0.011788717992008
0.0172755708300141
0.0164805863667586
0.021381000034857
0.0187145413394644
0.0226287227091744
0.0146011264258168
0.0184669533651695
0.0230328096795549
0.02263369999965
0.0157673162326808
0.0196087662072134
0.0221579847518268
0.0302948194297549
0.0170381385218433
0.0238830534862554
0.0145135932923741
0.0233371087628014
0.0237895380002141
0.0232039863419174
0.0180673635170975
0.0139885663703962
0.0157084088068032
0.0270888927260919
0.0182070673056794
0.0256848529702125
0.0171192749880992
0.0176736364702951
0.0277023327748469
0.0164510843700931
0.0148787730157136
0.0164686163262181
0.0120048474640977
0.0123288525226154
0.016646869229923
0.02577441100884
0.023205840895992
0.0186106778490849
0.0124272077938356
0.0187986870413366
0.0129895111459321
0.0198571951370417
0.012985899170941
0.0196671271365919
0.0190583964315959
0.02022886801254
0.0158336667350567
0.0237700311636662
0.00695674632794709
0.0268504733704151
0.0146958508478837
0.0213910086624716
0.0145271634206
0.0179803163662859
0.00518346289001977
0.0263291208538804
0.00733597128945203
0.0222480775124092
0.0123659991114645
0.0175735603491412
0.0154780804267803
0.0224160262223852
0.00378319842583329
0.0320570154561968
0.0123760110923796
0.0196091629656787
0.0115285402674449
0.0162532837717811
0.0118507032165812
0.0227771483676353
0.011257880742553
0.0159834487671482
0.00817589475740694
0.0240641014900402
0.0023093703505546
0.0270982273043666
0.00994582421860986
0.0290697674645012
0.0173654714331623
0.000487256083742279
0.0313751343991534
0.0043723840458171
0.0206405252116315
0.0224403010334346
0.0165788685224122
0.0220142087604763
0.00674151923493101
0.0143374399432804
0.00565929590821342
0.0232252421939756
0.0167864839346831
0.0309767033633287
0.0130802132866596
0.0159984422116039
0.00749418397334362
0.0241384544041961
-0.00796206184624164
0.0371018266970689
0.0106755690631372
0.0197426426139797
0.0150103018828715
0.0195861758886175
0.00800432955047438
0.0283565533971357
0.0122029106497972
0.0140493343412664
0.00932468150190348
0.0189208365615893
0.0112056827502715
0.0305186034052698
0.0143658885163377
0.0175779393408375
0.0154725544506188
0.0025879234149787
0.0060609011473618
0.0180990873954334
0.00678656028507565
0.0208714699096655
0.0187608592861558
0.0320154945840952
0.00720624386463622
0.0237199796834263
0.0168505458428935
0.0122058229011859
0.00442352289479035
0.0179043146635661
0.0155536006598557
0.00976226691544622
0.0108965701673913
0.0270456758401141
-0.0100698905257691
0.0458795359094335
0.00973378666889077
0.0170614930403289
0.0176866951723873
0.00800073086897395
0.0111849947619361
0.0055476170362058
0.0192930768201188
0.00735513143255386
0.0168940368005813
0.0134798535769886
0.0197667013200691
0.0211458207306419
0.0168310224230211
0.018609464440786
0.0127432974008945
0.0254709705701884
0.000703956566378571
0.024036595699297
0.00434690915976147
0.0201904666827238
0.00930942197376148
0.018756760362348
0.00266134152113943
0.0106074592434977
0.00954862999062762
0.00853212387999521
0.00706738305581566
0.0204579607512221
0.00353766724184873
0.0184307015922138
0.0075003118787431
0.0148925308210658
0.0186701767915613
0.02981684884466
0.013613929226551
0.0212109270512891
0.0130423587013621
0.0101651733506548
0.0185329851698987
0.00261795912933397
0.0140528205888952
0.0120368515396402
0.0129117518272142
0.0110928079783824
0.00699793756690716
0.0121362063918253
0.0127265397810052
0.0102193802802862
0.0061939977749749
0.0125831519414629
0.0172720650764807
0.0126779159267717
0.0156551351828401
0.0130158876557926
0.00801660621269445
0.0154952149177032
0.0229570763948229
0.0172923496342682
0.013522585718214
0.0163027540482633
0.0110856572841854
0.0136652239908708
0.0125013972128357
0.0151627737297828
0.00880230720555555
0.0220460763123749
0.0131198896103606
0.015238651948712
0.0137069029597703
0.0108262573480188
0.0178069617445437
0.0155669944126351
0.0164080753781732
0.0153473536766775
0.0147725896658979
0.0202995721701583
0.00800216307182094
0.0149110387503431
0.0216523638996775
0.0256019700168013
0.0168114939006603
0.0166358317223527
0.00987354485430029
0.0106028490919797
0.00940987297531932
0.0115205986215019
0.0146036587343655
0.0119677996874053
0.0192166260349877
0.00910816428347539
0.0208360742614871
0.00913990621066157
0.0269475350243511
0.00630939052240713
0.0245810596574454
0.0025263734308462
0.0141930181068286
0.0103341902025048
0.0249454964168858
0.0117407253602319
0.0163878571489384
0.0202518987055375
0.0222597653021915
0.0116316219721834
0.0142231059255883
0.0224836133146841
0.0149975291457054
0.027103041044956
0.0176067552716584
0.0319962686407008
0.0142058355398531
0.0199558680004394
0.0187508820510365
0.013966663691707
0.0245481263956168
0.0224024958401949
0.0166290276294081
0.0235815228974796
0.0163263813805082
0.0232019641835605
0.0100467683522811
0.016478994383857
0.00760828673467175
0.02687693203448
0.0243184337238131
0.0207563510982923
0.0272303182655591
0.00632322854509529
0.0321025502692821
0.00236970272346429
0.0213319292106686
0.0058221991046972
0.0194137206377084
0.0177084404311766
0.0258274343450155
0.0123517647196384
0.0207692534915818
0.0144803450903613
0.0240118392504938
0.0194898144968225
0.0139389598027788
0.0187114235605746
0.0113884023180693
0.0239394364823355
0.0195299569554124
0.0249381635512671
0.0178833239495774
0.0221755471057893
0.0175042952771714
0.0247012549475802
0.0177687959356421
0.0183225209297157
0.0236631031007141
0.0234275625158867
0.0136953345000164
0.0222262629085604
0.0213162341568625
0.0210438475927754
0.0224282017883771
0.0234854830351863
0.0165085071197885
0.0250087527949619
0.0170462479701942
0.0234446121123052
0.0249268860098632
0.0261539509955919
0.0239220191244319
0.0198316111226845
0.0243707802130877
0.0262893144577476
0.0255177918363255
0.0187923890743791
0.0326571597917432
0.0294193417511893
0.0233796625323052
0.0393324913351729
0.0187418108557925
0.0329095201072576
0.0247225208682469
0.0293094380707396
0.0337061103608732
0.0211512997700176
0.0255242431353546
0.0302189785147154
0.0333325465243777
0.0333424537681132
0.0251922291367174
0.0339135303039054
0.0421942144284703
0.034417790948113
0.0488492688826165
0.0280814285197868
0.0456936162309194
0.0289724420382111
0.0473587566605229
0.0186053703643356
0.0365633098521485
0.0457100184861341
0.0320367228623527
0.0483411816532911
0.0405852710600712
0.0444107164865237
0.0421332082509175
0.0552824262827978
0.0394782565063811
0.0507532178348877
0.0475404933906816
0.0553621631425039
0.0507834896161977
0.0571148462200467
0.0584489499717422
0.0487212884026558
0.0621255340807346
0.0596852663853833
0.0519685753783146
0.0633256488974657
0.0620604824742094
0.0729233556614499
0.0704991020665261
0.0621574967697506
0.0842902388212924
0.059443489052878
0.0725098229236453
0.0597194651224513
0.0731664766285212
0.0744652188466059
0.0815061718432875
0.0769363159400051
0.0806126329705557
0.0767242023492194
0.0947514820129146
0.0877615501152473
0.0922320048461907
0.0863048993489922
0.108766039059378
0.0881965005239436
0.105526488107834
0.0916294193351669
0.0998913234124939
0.103167589983151
0.136085024885446
0.105313744630557
0.0993261355964315
0.109611363605915
0.110252314823365
0.115945623364606
0.116306226406815
0.119882130356552
0.117620194674107
0.13181372712012
0.133699584723534
0.122297699275453
0.140350917970221
0.133219568438201
0.136137543390432
0.124951316111676
0.142617610105334
0.159373586310558
0.15532863010082
0.136320088719129
0.15964945270238
0.154722835684793
0.15779215096902
0.168519911773697
0.149590482367357
0.167645883487508
0.151659241087292
0.168281253360545
0.170791744565683
0.179519733506653
0.165121236593573
0.174106577990225
0.184908407383701
0.17909022375843
0.178144750150489
0.18254116379681
0.201721686032202
0.184895958147757
0.206652777167939
0.18802611744326
0.219799924566062
0.190218635812498
0.21249316727753
0.226931829060285
0.221803823462094
0.220393873674154
0.200964293316866
0.216359672667693
0.225023526894223
0.229870100016096
0.230825789893426
0.232296057797933
0.246671458041782
0.258922183600438
0.252165002167008
0.251401977553676
0.240238011245952
0.261700592033741
0.2629969478385
0.280473762844667
0.262717017976002
0.251656252680509
0.281467283917583
0.265467174775933
0.287637575488596
0.299031932970454
0.287234945923602
0.31210659934935
0.288746859470099
0.296131577891458
0.303403959755521
0.316652703646462
0.314248155918835
0.310957258326881
0.315486420988724
0.328745060710062
0.335720779244616
0.328275039340524
0.340166231787071
0.340601640626325
0.364423233148504
0.327610235916546
0.372110749524391
0.355207513356085
0.356595829231322
0.369585456538955
0.362361294117955
0.367335844370722
0.373364165666285
0.342034620360703
0.403498642272099
0.39112684152444
0.395781639802196
0.390314855876786
0.419320022277736
0.397348707988119
0.395673483092948
0.401731976744805
0.432347959221529
0.405912576952356
0.45312630693815
0.42521432674609
0.450013920760466
0.447978878778883
0.454855523664393
0.444995728460143
0.475328713992282
0.447899482032645
0.474128494517195
0.484753211403149
0.480637461486501
0.486238193522808
0.471610605636203
0.462688462583871
0.528083176430769
0.504927007610175
0.523200816515546
0.493085452389259
0.542782120422617
0.504766605021668
0.529761689255426
0.517324176029353
0.528914633191998
0.50070183174955
0.556124165770098
0.52935670304655
0.59221613675596
0.546791147600241
0.588499888057988
0.507857283717249
0.579393506352501
0.548913337295634
0.578247194899541
0.589696116377171
0.605805044020004
0.583964571294814
0.611724023662705
0.592105216665802
0.643517062543479
0.59164061334709
0.625009957512099
0.586915661014211
0.654632701148275
0.612087712318267
0.649737945966379
0.647964955372062
0.661392441717989
0.652641088174523
0.676952627687767
0.636051397655528
0.689409168760445
0.679471419554828
0.729962098832284
0.66430791836293
0.689673467695742
0.651881153320687
0.717439385147425
0.714227081524575
0.753645207830385
0.686370266927695
0.728396918806506
0.732740547043039
0.712382646570617
0.731507308111163
0.749807471465696
0.701161061230851
0.764100379021315
0.746154080549971
0.807306898141981
0.770262731986192
0.752225668629088
0.706930968719065
0.812729906470855
0.788039491236851
0.785799158317466
0.778284464786283
0.812135569435573
0.811019758214284
0.872027666501166
0.771257913082658
0.846709689601952
0.792944603253453
0.901463126517244
0.845530559410962
0.862260334940253
0.837754132737889
0.851820069871797
0.829129988172522
0.925736835376615
0.879920560352945
0.912937726637801
0.834782078001792
0.875886746233315
0.818735814643345
0.882271663904647
0.88760824992015
0.957850120241279
0.853004991060984
0.977949928332117
0.873928939661
0.951802620018114
0.915713599803527
0.962124731051951
0.859809393197123
0.891784881665861
0.95198190923797
1.01478597187917
0.901402353001433
0.995122455794386
0.868223074989681
1.0210752145549
0.940277253114492
1.01312193641369
0.913993987836036
1.05011610411339
0.932594672516337
1.04574720965062
0.99415034246087
1.03245305424686
0.958771733229803
0.972866215603076
1.01506321576642
1.04817869292968
0.925379582314545
1.06846191610922
0.96286925238751
1.11137437715433
1.01947482339968
1.00088485772037
0.95737568294387
1.07475135878532
0.940470345223271
1.08350027794111
1.0600859592724
1.12219526678059
1.03088113364342
1.14158686334157
1.03288697668147
1.04589062569326
1.0866209442405
1.09188620703456
0.978246536387119
1.12705005267279
1.01926861733782
1.04794785945076
1.10249451264993
1.13638640742446
1.03976900834622
1.23393644554495
1.05164875157967
1.09266787894312
1.09081712655357
1.24811010435678
1.13176519301672
1.10459841824887
1.06022740826429
1.26647192021061
1.09183431045953
1.18424016791386
1.01278790582607
1.33793262915974
1.10061669013565
1.26127755636483
1.14141229246202
1.32166911221497
1.13553096575305
1.18150437166414
1.10631809868651
1.22138953273304
1.0567559756737
1.26950695840671
1.15811230053082
1.26263608247657
1.13141533608627
1.18767385024345
1.16227594400726
1.17675672351332
1.12974496286379
1.13870168307998
1.09580272979637
1.23378801571184
1.19215420409618
1.30462021633663
1.20643789634206
1.27293241586944
1.14841123961912
1.27862742326233
1.18457936110287
1.27171516143222
1.18472997237756
1.27701392837241
1.16872710196696
1.31050539501136
1.18455126728765
1.23976469434134
1.1984858215212
1.20372841104813
1.22199402302204
1.26321323798026
1.15121430885748
1.33382306843006
1.26526089089456
1.30587938065602
1.22561255285407
1.22837550248322
1.07988761903599
1.24409566939272
1.17400227202658
1.2618230633404
1.21566647270551
1.18571190514808
1.17484785825026
1.27089558743365
1.21632854186933
1.41326701099224
1.21095687113504
1.28921326280602
1.23472208084051
1.25989697143824
1.1402751012604
1.40733734045999
1.25461921586382
1.35677750259247
1.18993890879109
1.26233400975748
1.22286780795615
1.26347635896089
1.18325319650087
1.43539302965868
1.15444422160104
1.34793541669469
1.1879206468861
1.25686913285092
1.18941829812439
1.37069330184054
1.28506664991056
1.26683676520934
1.20506706182599
1.32146926793858
1.19756225567351
1.25164535803762
1.23485859894961
1.26999590922812
1.2248608036353
1.24536568915206
1.22423929517305
1.20753188220164
1.20686393213384
1.2720351481462
1.21638184365629
1.27115988757144
1.1600116186709
1.30928243941273
1.20402591339571
1.37377958111688
1.20384341415201
1.29016394041786
1.22080191330917
1.22243470510632
1.19230374777667
1.2380259760255
1.17208316647541
1.39543172588564
1.22259871351859
1.40853800001829
1.19903470527469
1.20318638642639
1.2289286837749
1.32648259728986
1.21454040314258
1.22047193639016
1.19253699571037
1.3012270874
1.24645030076283
1.25031881096438
1.17951330215174
1.22541057408071
1.21891204870602
1.22899614078664
1.10137175776654
1.26551688538475
1.21492339545819
1.25114999803899
1.22979905731157
1.24814497109578
1.17696330320244
1.18997790068831
1.14147318776965
1.26363623672934
1.21760470756444
1.32632286965053
1.15445737929941
1.2309839130978
1.15824490739858
1.16523953348062
1.18371195552521
1.19292783766938
1.16893574823076
1.23563600094204
1.15501862979783
1.23213039846315
1.14494968022915
1.23975179338723
1.11019399546397
1.15482339621105
1.16010466619924
1.16788169157564
1.127232622076
1.20196868944121
1.16688727441126
1.19030843428636
1.15809209931876
1.18528595513366
1.13212907384994
1.18596680318029
1.06996933741738
1.14837107735052
1.15410986169034
1.08828538907323
1.08699200673808
1.12466317991417
1.08800662207302
1.12832807484687
1.11258408628922
1.18148102046886
1.10196072180066
1.17026638923749
1.04870825231723
1.12426126144391
1.06901578918591
1.12140528869736
1.08310954188881
1.09216832652362
1.05512324913566
1.09702884541931
1.06132547528264
1.08607370213152
1.04144618592022
1.063294026328
1.08585208706116
1.07545185678473
1.02609041670683
1.04150786824871
1.01584561207697
1.07876458044143
1.00106939088063
1.06567294963788
1.04843952304058
1.12615031823735
1.04406778956564
1.02604757488421
1.00929295866412
1.02893322027292
0.989857890843602
1.04503433395762
0.955313576149597
1.02764414378824
0.975476816417999
1.00974728814431
0.971244204243833
1.00762185339807
0.994452725855307
1.01527641778922
0.97225738244358
0.987879379752237
0.949197279560742
0.928179671264846
0.933700088060147
0.986731030127434
0.938801718332915
0.937730573336736
0.912051407399925
0.918664883287517
0.913434460480451
0.928605033585471
0.913952698062364
0.925006748952911
0.8723909059619
0.954616247257695
0.886631108783978
0.899880124072232
0.911482935034326
0.920078706857244
0.888645458031333
0.912495085134228
0.843395207711363
0.88558310484542
0.878176057404081
0.871159919624842
0.865257703153228
0.884695826433214
0.846839622360871
0.875289114533077
0.853732059621301
0.839728427511134
0.82822436110525
0.837914425542434
0.831177966525508
0.842277709568519
0.803636439356105
0.848851822661258
0.809576387253666
0.80179725995002
0.797669769973234
0.826075847931311
0.7857284183063
0.817256264429906
0.780115982625623
0.793955927224836
0.788410516596836
0.790060247347255
0.770284287454875
0.797361842512315
0.761638408168379
0.782803035019362
0.748592097297111
0.767651099785403
0.739908243252345
0.774412076137384
0.749834393771768
0.75598101848123
0.718713590390414
0.735213030087889
0.714513427310984
0.718544514543255
0.709237379443774
0.732532799487631
0.71485988183678
0.720232012273717
0.700899973355733
0.70511879078167
0.694305501115906
0.698789580153303
0.700258799554069
0.708518602797476
0.691977118502414
0.681919101096174
0.679307706877269
0.672581839203439
0.663375375706167
0.663039319436709
0.658288496901048
0.663391627716718
0.632461067084741
0.65135177068884
0.619002264868672
0.64405760761416
0.632817296750871
0.618092785648665
0.633326491382441
0.636496119356134
0.616572248454827
0.621218231504684
0.616650590369236
0.623136155481377
0.612800328937793
0.625264254066878
0.602057343894534
0.602877649658695
0.595337191716535
0.597237536879662
0.604816309630773
0.580619403568152
0.57840872085782
0.579235552116897
0.578865953649671
0.577967533158419
0.564518845460939
0.589456190899006
0.571963757273436
0.560044234700891
0.55573318759466
0.563405963720365
0.543927053265535
0.559903043088485
0.542979837982237
0.552322496391077
0.537734932830595
0.549191324813847
0.529579479551121
0.53591463825539
0.532506354344118
0.53176731023777
0.53041435403052
0.521130875169925
0.515032561788333
0.527849039377665
0.51832049479896
0.515297117176664
0.506976803791501
0.497418911234365
0.496707128601276
0.500842709602247
0.501067363588397
0.511117178723207
0.489164523050229
0.497373662050076
0.488727884799883
0.489521348486414
0.480151189197674
0.476061216337549
0.467505489271258
0.471852343777747
0.461296327317491
0.472694897859823
0.460950883162312
0.473913363475419
0.449982342249393
0.462585434895355
0.467871571581565
0.456992110618507
0.44806234735154
0.453410821208884
0.452231653991532
0.452213092669256
0.437641369453928
0.440173724136528
0.436144273562764
0.433507962821609
0.431637842681336
0.42623380346447
0.419008807015861
0.427281795831036
0.423412555342205
0.420045674108088
0.416465114054939
0.414716685250453
0.410440042309365
0.411194590726114
0.40461517730311
0.408688174074462
0.399796414527781
0.406302988487766
0.394930052220949
0.401205389151961
0.394793703272842
0.394554314127593
0.394063307814855
0.390631943409352
0.380054219382466
0.382711750681538
0.379463845700646
0.377106947160107
0.364891053992302
0.374995478044125
0.367347826336964
0.371678068871366
0.367865017761412
0.36895518673306
0.35902971569498
0.363661372725295
0.358563160357819
0.355781885186469
0.345092589642799
0.357565947765405
0.35393525808771
0.34767785156511
0.347662372829452
0.350773010538881
0.345113896973467
0.344342352174164
0.343741960325561
0.343213818063133
0.335585385661756
0.341211866691633
0.336804232862966
0.341959121786331
0.330598028569832
0.330113664582304
0.336494016492451
0.332133010391221
0.321882346968864
0.331460157585549
0.325979833137963
0.324324578045547
0.322053419834588
0.332928612992306
0.324205043867876
0.330851480150902
0.326619608770499
0.326160162831897
0.319789470606278
0.320771053577993
0.322185832711971
0.327337434114833
0.324301822479259
0.326068672438947
0.32776120430109
0.326660744614247
0.329212707770983
0.329444351615914
0.329968820777388
0.336170995591941
0.324865655765866
0.331569577143101
0.33015149679473
0.329138778004496
0.333532159850979
0.345161720371183
0.343367511582023
0.344575737059422
0.347403357658875
0.353556845548775
0.34446161008852
0.345874562040967
0.355542808425049
0.356161554815476
0.35933431969756
0.361740150504994
0.357679966601005
0.366678348261027
0.360730047722314
0.375245935192959
0.373265247476855
0.374911416814478
0.37193974327709
0.377057696119488
0.379455128388785
0.385947454725805
0.387812560116601
0.384466421329741
0.391998787244564
0.400516393239976
0.396686802796411
0.398513394718836
0.401281946801309
0.403846656880522
0.39737055622184
0.409384062173386
0.419480432721068
0.425515257241867
0.420064362225138
0.429024509123161
0.433438720930641
0.432888884615162
0.435882100580005
0.440265887223661
0.445778242389411
0.456424047432419
0.460716599809019
0.462128251911974
0.460185225885555
0.465314258158822
0.461650806352446
0.473718894518102
0.478437831642717
0.476481169842477
0.479629398670708
0.492779642327619
0.484855825575145
0.487705639218759
0.48844082527195
0.492995188759767
0.496158188401595
0.497768853741113
0.502625797689471
0.495982139011352
0.492571616392152
0.495418271195286
0.480684944839352
0.493735059543262
0.495866630121939
0.48908798329377
0.4955127536983
0.490852012332472
0.480310674005833
0.483426955458194
0.483598982636971
0.487107620350066
0.478414977423172
0.482600549330651
0.482501080483929
0.494217314724301
0.48833628960206
0.482763011748098
0.47266054547857
0.475924826323481
0.477308150314403
0.480915241170104
0.483881504213648
0.477992301960411
0.473269139244177
0.477181140778554
0.479583638153599
0.478355975766755
0.462768853635323
0.478133214101124
0.479308192283219
0.477233830533367
0.481728866184746
0.48167832685324
0.486867885842368
0.482496153835223
0.479000340690264
0.48335986006724
0.464754827619159
0.479087375164972
0.476662436673414
0.466426943740532
0.469993814856899
0.471634169762281
0.467206552254989
0.468537763827858
0.472483020727142
0.476697595967367
0.471923622013162
0.466938901394279
0.468998629841682
0.465453283850223
0.457757768331182
0.44906618345095
0.450362859805891
0.453823956680012
0.446086855674981
0.444299327292809
0.436262432738375
0.437520903007782
0.436308860799218
0.430339540505446
0.424452971768713
0.427408248715499
0.427303528000425
0.420472776336106
0.411938738631795
0.417516016636561
0.408766108270638
0.407253240674012
0.402145250070848
0.399226920887906
0.39365467569605
0.40100494209925
0.392314990320815
0.382217256353287
0.380648697405003
0.385696860118478
0.380056226240765
0.37400300343069
0.372300511084976
0.369387754719885
0.358285665527428
0.358802974799708
0.358745384213274
0.356558117333273
0.352450322669083
0.347620631833983
0.345690253544796
0.339566730123274
0.334344410415515
0.33764406735032
0.34167486260556
0.338293439794275
0.329284978815491
0.332644211318061
0.32647706774757
0.319856845669632
0.320904923510839
0.320067293186679
0.319452794537679
0.317142399011468
0.309282510082143
0.316202452500012
0.313076055836165
0.304263874992786
0.303969747914106
0.303610207701084
0.30117864764835
0.305835180872212
0.296728187069327
0.297782319567317
0.296133966334196
0.293531405598836
0.296808289574215
0.283781345440421
0.28530721418427
0.293292602378429
0.286666301147833
0.285751339875987
0.278331793196849
0.276445307838293
0.281943820379866
0.281846811749557
0.275872228065008
0.275187651178509
0.26882679810781
0.268017126063943
0.274740397207828
0.272762203153807
0.267275126200461
0.271182521636081
0.26711283576866
0.262109619808419
0.263348673929852
0.26394618884534
0.25860982046674
0.264497053560166
0.261068009258367
0.255533814460582
0.256120660089144
0.255174613845953
0.255108366453521
0.25848747521739
0.252234943880082
0.252529135855352
0.247781223153283
0.249653600582898
0.25103247691318
0.246370137478522
0.2454354682405
0.249105952403523
0.246723781430531
0.243176793716561
0.240772006635828
0.245007009446134
0.243100732020923
0.241503194404496
0.23651230200367
0.237403858764783
0.240560030441486
0.240170988489111
0.232208224813884
0.235667546989929
0.239902314970723
0.233784559677045
0.234002966760137
0.228873822171373
0.227813764885143
0.23272531437694
0.234286604133643
0.231516664427584
0.22572005983891
0.227610876242022
0.228391993147136
0.225177909999517
0.225474834384836
0.227191151189806
0.224803447207514
0.225312349905362
0.224746584041188
0.219931411119795
0.221222063443601
0.225251327176486
0.222852186559505
0.222236567686672
0.223793065588265
0.220939727109324
0.216193644789414
0.217290054593398
0.220549725495762
0.217221159543432
0.214001421916534
0.215288811494134
0.215690542879665
0.215110539787179
0.214336982243996
0.216230985579099
0.21394208668563
0.213382219982037
0.216520796700334
0.210831784396218
0.20755637751862
0.21205925747861
0.21344981671855
0.21084955342423
0.20761118045027
0.208785435653741
0.213498871465858
0.213563345836678
0.207696205839642
0.207550846009112
0.209797013308684
0.205448008318249
0.20698464090428
0.209258876281297
0.21029421796644
0.209633687623204
0.206376544247523
0.200654595344098
0.202605792639741
0.205954169452344
0.202333677975302
0.20238493735384
0.201806536941666
0.200808859891262
0.198057703725798
0.203719205552877
0.19973930056735
0.197251158573354
0.200604811689443
0.198758226048174
0.194596747182876
0.196441416362069
0.195008057132548
0.197307119673819
0.196943295736034
0.1984782528551
0.196696309214578
0.194625823962442
0.195100171000485
0.186466036276468
0.191536577565251
0.192719929479028
0.189950100158325
0.19275016400132
0.190853705852258
0.190522519266851
0.190165439711262
0.188546337483293
0.187681838260766
0.184522379277199
0.187798541159375
0.187669864886163
0.186200985270125
0.185218743232385
0.185701680473149
0.186489329642073
0.183561196761703
0.183053077696676
0.184895791033455
0.181845669651054
0.177793190755512
0.181656214824265
0.178559438141359
0.178747018414743
0.177183072855902
0.174113163631244
0.17927958184004
0.174218975093801
0.173985581698308
0.174531811431022
0.174185287415701
0.1756135578684
0.176955554991948
0.17291022795571
0.168273462097412
0.169224238564965
0.166902828954968
0.167917605034543
0.171454707328072
0.169523986470683
0.16836517252543
0.166654142922358
0.167550263090641
0.16211400051477
0.161502917954404
0.167161435845487
0.163769787629505
0.160866158906527
0.160843097368659
0.158954933780949
0.161071602833081
0.159435974095076
0.155706007628946
0.159431461305695
0.157186463438506
0.154163217032101
0.157049969850341
0.156109951112236
0.152934755166119
0.15446807699595
0.150477347703331
0.148775413181398
0.152269891538283
0.151324385551488
0.150683604044588
0.14970608516245
0.150741221471062
0.14800000436199
0.144151357593045
0.144457038235814
0.145604878756026
0.1468542644247
0.146260344964769
0.142733518527664
0.13986795826862
0.141537057536849
0.140587527868933
0.138017006698994
0.142150262032333
0.139655525779806
0.134956424972034
0.140066504861577
0.13839799855434
0.134191420216219
0.13850585655722
0.137603161434533
0.136149379549314
0.134703857683173
0.132823095658827
0.133342555403017
0.128889220090212
0.129172311349816
0.132686391293479
0.134384944473362
0.12850793043266
0.130107204534077
0.130579283543191
0.130793870895518
0.129503210728083
0.128051114152865
0.1284706498836
0.125443970453531
0.125420949625408
0.124874496859005
0.122823585677688
0.122910298282406
0.124969192697033
0.121644206577879
0.123663566499903
0.117953386825083
0.119887699078746
0.123890306805816
0.121898116305701
0.121023434341704
0.119914140447362
0.121582882529103
0.118037374676173
0.119972981839336
0.120558787142884
0.119757808280489
0.118947659208512
0.118481670876731
0.116629791182125
0.118005991311504
0.116306494235351
0.115305896385646
0.117002342915234
0.115837031101268
0.115996908677592
0.112550902621109
0.114369136308665
0.113479081654039
0.112432463350128
0.115671669927732
0.113791439279619
0.114460190840878
0.113290793252353
0.112025662152246
0.112108288036941
0.110076047185233
0.112661919066531
0.110352346058192
0.114563755586096
0.110624385266711
0.111736813351627
0.109390537330015
0.108566239401312
0.109153886731869
0.109672177673061
0.108506861852587
0.10753769883797
0.105511622746548
0.108345400060602
0.109346064795311
0.110700985810805
0.10657876265042
0.104404571512951
0.105058509496201
0.108891069860632
0.107066304911344
0.109823589356721
0.104087779546858
0.10641017218474
0.106396749801505
0.103792009560624
0.102763637461164
0.105839782763921
0.104875826724809
0.102477506207664
0.10207645234106
0.103040729340226
0.105394827210739
0.1031656526839
0.0995513627524583
0.101634312766487
0.100321983141941
0.101287315104586
0.101404115825624
0.101905749464081
0.103995990998736
0.102792146036036
0.102330164524198
0.102302590895055
0.101301608014727
0.0988963783737453
0.0973241557566189
0.0998403169808963
0.098257373347541
0.100321394651421
0.0990760685212949
0.0982255433984377
0.096783181370439
0.0983499333758591
0.0979066104428923
0.102324143578067
0.0994172491554919
0.0943362891517106
0.0952440385452826
0.0986171811587453
0.0996115448627729
0.0969045367305528
0.0925019886150658
0.094984742280768
0.0966523730449281
0.098004427492726
0.0927561240608197
0.0916923459039837
0.0927522420284217
0.0937341586829558
0.0951504665968074
0.0923366733979627
0.0935363244028468
0.0952105417851653
0.094133381807882
0.093175031000359
0.0903537638822296
0.0909619678347858
0.0892710399668047
0.0946460736323362
0.0920200856739299
0.096922304854711
0.0918585230299377
0.0962798338477625
0.0900717976811571
0.0915902091302417
0.0903351583573526
0.0885585532209244
0.0903590135738157
0.090243155241895
0.0877795566880432
0.0892271022467154
0.0868735831537206
0.0896819607739314
0.0902606283617491
0.0856816366297644
0.0886461312916196
0.0851040172527726
0.0875171985227958
0.0865246516204821
0.0860957560797613
0.0873895979288048
0.0843158841588325
0.0844795755978025
0.0843673695746595
0.0841406253432627
0.0845385030128241
0.0845190143984431
0.0829287226511344
0.0817573769951553
0.0868439374737767
0.0834579810545511
0.0802673788899703
0.0814650264175529
0.0769845170951136
0.0828750041914827
0.0813202937177859
0.0820798454779393
0.0778356673164008
0.0809692085155395
0.0820976657359236
0.0780942143494588
0.0773672382190396
0.0783124124509961
0.0795847860042642
0.0760030744455141
0.0784639246335573
0.0763514541854104
0.0750453372044076
0.0758942537587273
0.0744988282578315
0.0760628795698112
0.0745866362440174
0.076434406579265
0.0719679084501933
0.0726396510108397
0.0720394488819918
0.0770268411406255
0.0727162600624972
0.0710322133141841
0.0727450412008709
0.0709126211199249
0.0734969944603328
0.0719195351950521
0.0728389433146461
0.0692091410070566
0.0706175168696576
0.0718812997978574
0.0697321819105871
0.0701295983343112
0.0692701392056274
0.0689689285648013
0.067492311104131
0.0701087223375252
0.0697023835518958
0.0675149658787317
0.0670072855686729
0.0702810792138674
0.0651375836370206
0.0701570093372354
0.0656380303436679
0.065868239049124
0.0667561193311182
0.0650025509746962
0.0619558380363502
0.0661501110446442
0.0652768474239459
0.0656945777889834
0.0638978263399
0.0674190001164286
0.0656684643872071
0.0653619410228491
0.0633784595083894
0.0598493804363031
0.0627760228086759
0.0623150967467739
0.0620230152144735
0.0637300191664587
0.0634133040011065
0.0601808278889289
0.0610251709635521
0.0614859559394221
0.0612574338607214
0.0632753587499609
0.061191135060523
0.0606790037724107
0.0609286467648966
0.0607593981610714
0.0615631502915194
0.0600851544873275
0.0585332473653378
0.0587760278204424
0.0577053569615975
0.0600348710816445
0.0586502548968062
0.0595207741001587
0.0592366806062672
0.0613956684525348
0.0604902568139159
0.0608232642502197
0.0574516837648564
0.0571136062671536
0.0549363424176999
0.0602795687836174
0.0545852243018381
0.0583379562937478
0.0550744016333349
0.055492120000515
0.0552585237236072
0.0603704213693261
0.0537176367681729
0.0577443169721478
0.0551415481077507
0.0570476842615152
0.0614062914085154
0.0570045003568408
0.0519702831826513
0.0543825542815244
0.0507953708043902
0.061863321341248
0.0531128813881998
0.0576886515156599
0.053176812672987
0.0555698095350002
0.0466727779311406
0.0562726772811549
0.0503986119883791
0.055654650063279
0.052393361816701
0.0532886984609929
0.048548683604272
0.0538578653369218
0.0527827437886061
0.0573262087977498
0.0489924246537026
0.0565984900889103
0.0539027138376673
0.0551995879063255
0.0487480011060767
0.0538048601971082
0.0477212648761961
0.0552968265170989
0.0472731274528653
0.051186881473601
0.0471107575695318
0.0498111746305078
0.0514265689203076
0.0506345039104974
0.0501905883035519
0.0555477838681564
0.0530505284019273
0.0571078393280286
0.0507380651309782
0.0489230425999644
0.0480638073565898
0.049223212413642
0.0491332112050685
0.0504741661448887
0.0565076265045151
0.0473176476947932
0.0543920516399161
0.0450879555504467
0.06301500131077
0.0447472250373707
0.062951403613834
0.0377656472675773
0.0632660482463282
0.0379780256227475
0.0642841177752543
0.0335763300662503
0.0661338254205352
0.0401017133212008
0.0590046193243983
0.0419852987096946
0.0577325463282997
0.0408511512944016
0.0535094129580131
0.0518927948686352
0.0504900650008596
0.0492185690198146
0.0489209223385805
0.0531171465448971
0.0484893915395519
0.0510287277117351
0.0496126158527808
0.048502705939906
0.0523891165288792
0.0457337049090461
0.050815811967986
0.0504655310324361
0.0511460159998788
0.0459169572439817
0.0495832810657197
0.048238433297533
0.0502002630427264
0.050169237313712
0.0513308931259813
0.0499348915377773
0.0485504746156096
0.0508098156382909
0.0503261009490289
0.0481387519459547
0.0513148431912325
0.0509799249892235
0.0494481782643495
0.0478685978607553
0.0506546265372262
0.0491995325915729
0.049669888939271
0.051374367581872
0.0498718503520517
0.0485928294814092
0.0513097891120006
0.0484798386718433
0.0496938492520245
0.0480619504446937
0.0503384496248046
0.0507541271441777
0.0524066445629457
0.0519295886327808
0.0492248203270605
0.0498984740508929
0.0518565823646622
0.0486536163071557
0.0505892210713109
0.0503777366475467
0.0495891645976771
0.050906347476825
0.0505599738847544
0.0489457107559995
0.0476669428274332
0.0501356160362544
0.0497542445903427
0.0493291601818489
0.0521327999704813
0.0474028839283248
0.0499726782866062
0.0492216643095264
0.0503991915734645
0.0497148059335933
0.0520281477690721
0.0496865505845208
0.0517349284329604
0.0529377768352237
0.0502940211905125
0.047596598614191
0.0495410080247484
0.0492352019977931
0.0482505160638421
0.050062554810028
0.0511736206387522
0.0501447149414627
0.050548548077177
0.0489217419463118
0.0501890015098084
0.0502670322633937
0.0504244413026011
0.0490793158759734
0.0513472375237958
0.0511642040664913
0.0531095190167427
0.0514649769037037
0.0517952527238926
0.0526687416714528
0.0505741751645354
0.0506096244193194
0.0507132957057705
0.0495395548712245
0.0507335587278487
0.0505005066491369
0.0519134692657843
0.0507526948324122
0.0503979835286042
0.0532442625061031
0.0501593649494015
0.0514399014296996
0.0512349321349516
0.0509076838236046
0.0524525209668559
0.0511632594445132
0.0521712507156309
0.0521824519714668
0.0507973263062232
0.0541687135170924
0.0530513936962774
0.0545896514176659
0.051506285003219
0.0530177177323484
0.0532489860117037
0.0520548696849873
0.0544579797937765
0.0531432199569497
0.0533760395092799
0.0538971748853331
0.0523000910918626
0.0538680213016807
0.0533589676402324
0.0527873858887739
0.0549924233090829
0.0542562893539779
0.0541281593813836
0.0547114402450588
0.0539734472603061
0.0515504319414483
0.0535006680855129
0.0528959333996309
0.0539690506895138
0.0560975336818451
0.0540678739348109
0.0539590035806783
0.0538685714445486
0.056531405204866
0.0536894421612756
0.0549321176130698
0.0538323918031044
0.0548380514922156
0.0537364074529224
0.0563887664810525
0.0566879439942693
0.0546438313258733
0.0562649661717541
0.0554249089036448
0.0557693357312767
0.0555161888211383
0.0544241078012694
0.0573043154796085
0.0567550128374315
0.0555307814523434
0.0552479718580164
0.0563527777685786
0.0554443433397945
0.0597435287898967
0.0564043780130341
0.0587256948138697
0.0574234693679288
0.0593243407670083
0.0569605371012199
0.0587062148630115
0.0581960272124888
0.0566270989074723
0.0570576730385704
0.0574013830055555
0.0564919112047717
0.0597797080037997
0.0573368346219368
0.0568437203830424
0.0602218909431123
0.0584930769900502
0.0575636005414458
0.0580063117851255
0.0604029045257789
0.0570879218682115
0.0583395690513245
0.0570386646620191
0.0573480333421873
0.0577092547109315
0.0605842634924538
0.0557045068737253
0.0563276399471552
0.0574983947763499
0.0555010781422381
0.0582881652963363
0.0560110465448299
0.0570802370935368
0.058447545342657
0.0572898219746474
0.0563211638835402
0.0558657102586351
0.0554255566966341
0.0559147631946944
0.0562944462740508
0.0572307794682451
0.0540681035933446
0.0565212118680736
0.0570479732860736
0.0545156573203965
0.0572363255781311
0.0589360185894475
0.0568553511676686
0.0570071795283856
0.0533766591800021
0.0544940883339422
0.0559868380059401
0.0570618898331928
0.0559770603104591
0.0552301950352523
0.0554420914500486
0.0590835413048448
0.0560128322764898
0.0586527994980769
0.053380885154125
0.058055398286725
0.0549034395484973
0.0537544448756202
0.0532192894500929
0.056256385893447
0.0557789892535575
0.0538437044043532
0.054525164717642
0.0547118090822975
0.0514711687652187
0.0512022381600223
0.0562881354470895
0.054859806646115
0.0539873748776686
0.053097516248828
0.0538608624851861
0.0543587116586464
0.0570885180956032
0.0550914445830091
0.0523706347825116
0.0544075348089467
0.0518058578046286
0.0553985404202287
0.0542998230401624
0.0526111869932955
0.0530955632848576
0.0546791261979949
0.0516462211776149
0.0557217125987748
0.0534376905996762
0.0557730984407811
0.0515508715029963
0.0527236748372438
0.0540981581503018
0.0543997093106644
0.0527920140609811
0.0542627118242061
0.0532696489445238
0.05287486390828
0.0508994982505554
0.053932942930416
0.0535465864782736
0.0521271452363958
0.0527633206313852
0.053259087977272
0.0503828674169749
0.052104852501402
0.0527590199256493
0.0529977136340578
0.0529053433014436
0.0547737307626459
0.0518101109112597
0.0528388635722846
0.0526569797634861
0.0511608887688636
0.0535167696920854
0.0546030180295755
0.0524834653039905
0.0511252154140808
0.0523059602278123
0.0528156350793772
0.0519147209170946
0.0521156687155853
0.0519788922359637
0.0512513467719522
0.0515185486572412
0.0550195811984844
0.0516254860769727
0.0522573730489199
0.0517869068692641
0.0506500953910853
0.0506238884145523
0.0519773462036102
0.0514648053663039
0.0511395400450064
0.0511110537054019
0.053780533572267
0.0503165464882499
0.0503403159471248
0.0487603478717068
0.0494469528390437
0.0515638558697549
0.0510963685784012
0.0501266009941396
0.0487480885773785
0.0505880005733356
0.0486465375525192
0.0486304851449852
0.048434495567103
0.0482842075600655
0.0499962775285426
0.0506424190383429
0.0489837901371449
0.0472420158513925
0.0476549223178277
0.0484808802654844
0.0471312665005529
0.0440326543867334
0.050321901049604
0.0475382311156818
0.0490254745330033
0.0469925384844746
0.0504908190186481
0.0455208451307838
0.0463596638327546
0.0458188621304291
0.0486578837229893
0.0479593059407412
0.0462920976206481
0.0449017837256336
0.0460833684313064
0.0448999248581994
0.0433141364617407
0.0423242971974178
0.0452165855046104
0.0433815844314906
0.0462737154076842
0.0435830717147877
0.0459664628886119
0.043952235830457
0.0430453591222489
0.0440154631619854
0.0458047846594187
0.0414232897479002
0.0455458136902477
0.044345501967089
0.0434394420259244
0.0436480682799041
0.0411263429574122
0.0450493742701963
0.042976324481797
0.0438165539507869
0.0435717435745691
0.0428275319718859
0.0387950339631724
0.0413359516339943
0.0439815535505135
0.0411715989533607
0.0412749514019415
0.0425112611750619
0.0426311228703447
0.0427743406149339
0.0400823734346887
0.0405158864687106
0.0431956513736479
0.0410825349767031
0.0426220589161708
0.0406940663427958
0.0417901621644761
0.0426243472564125
0.0413332343607072
0.0415093558807997
0.0407027556169396
0.0417922551989452
0.039730812019313
0.0420248199479622
0.0425643950525382
0.0433694786397983
0.0414252570670818
0.0414904121570705
0.040749708709239
0.0415809945793981
0.0410585501328639
0.0404243919485449
0.0407807597091888
0.0398529050630123
0.0442913007931722
0.0424229745525411
0.0407211415046769
0.0394001130349381
0.0400557133530195
0.0399836727332665
0.0393973243011084
0.0399578607743662
0.0371087465088987
0.0385906576676403
0.040155021709372
0.0399074553328847
0.0405432763806208
0.0401156051217338
0.0394685923637907
0.0404141081418399
0.044922497748282
0.037483035244385
0.0434668511372601
0.0385942125238584
0.0404959294759226
0.0379339487085469
0.0409290686563691
0.0375984849901304
0.039513346422799
0.0394905841132233
0.0407340301599255
0.0387029130382721
0.0396174758811984
0.0378479143845123
0.0394460189354604
0.0388163057549301
0.0401018592511485
0.0359653532657985
0.0394437749467985
0.0386884438544474
0.0393927477416606
0.0390731822876047
0.0406369334188381
0.0376282890609758
0.0424596126001177
0.0346270542963929
0.0427166469272397
0.0375173197191461
0.0392584725562689
0.0386479239623072
0.0382642616194498
0.0384266945356603
0.0402298163980409
0.0391955299274612
0.038271121031973
0.042653871691662
0.0373719277869179
0.0389325805707299
0.0374871845417346
0.037979484292283
0.0379456863758805
0.037822767552906
0.0394214118088297
0.0375383227189154
0.0384797980355969
0.0365753858374315
0.0379575352612378
0.0382802953681144
0.0389589043646833
0.0386117296226709
0.0394251512749715
0.0391785780843139
0.0367037324576938
0.0367914487458378
0.0376124411801799
0.0386081340826553
0.0388791196166146
0.0430820881069387
0.0338572590896317
0.0398621116988044
0.0373443943701993
0.0395858608048999
0.0390978057344899
0.0383713881352158
0.0389665554149114
0.0381581944826182
0.0377432960659045
0.0401824642470185
0.0386270930684123
0.0369084767386516
0.037343247855653
0.0385145037544678
0.0397816105630115
0.0357780338551617
0.0368390534540896
0.0357824899747625
0.0388675497444963
0.0380788781856867
0.0419712089586221
0.0412641745551592
0.0366869795992506
0.0392609423171654
0.0358995940584534
0.0376301110948895
0.036407084615914
0.0388766820798428
0.0360220396483006
0.0378258430146934
0.0342410676741148
0.0392905013642494
0.0367143121050606
0.0383060291254159
0.0365940667915137
0.0379031531093541
0.0371003792797589
0.038253656033961
0.0364474965281418
0.0418800453699742
0.0380015199227431
0.0393725304102314
0.0349687845372911
0.040930329354807
0.0378479118212473
0.0387177324775001
0.0342510642115654
0.042640396914122
0.0429997699217391
0.0338741117054031
0.0434784901084282
0.0370367166276837
0.040954813937126
0.0386875323469218
0.0402601281642575
0.0400599354492773
0.0386825722935688
0.0374084824739105
0.0397071095870902
0.0381710763864509
0.0385614549237807
0.0386182089278477
0.0395856426684886
0.0429806466096178
0.0419656036340303
0.0397253487633363
0.0403275548070234
0.035790380371784
0.047749605148663
0.0368111038864255
0.0413064566110479
0.0387296888856887
0.0383032514459821
0.0424191744566136
0.0416176299668561
0.0410373269869702
0.041964111427173
0.0404036923187139
0.0379221266687169
0.0415004476481329
0.0398599026131486
0.0416247103750868
0.0407220719900586
0.0423361113330093
0.043585900616311
0.0404151731533233
0.0422844558821731
0.0439800148734584
0.0407937290717854
0.0418263396375958
0.040451090739284
0.042112421861482
0.0400687180100574
0.0451853770820532
0.0442340428342706
0.0448673886373395
0.0460503200368239
0.0439885645588947
0.0425893892430139
0.0441464277754529
0.0442759729603209
0.0455931657092141
0.0380799677911167
0.0531832828611124
0.0404808428647547
0.0528319892324797
0.0422402708195796
0.046762703308254
0.0419408846051433
0.0469778471032354
0.0411067319013516
0.0463008272699239
0.045051776629381
0.0449103655915341
0.047336906691252
0.0431011137644124
0.0488928284695777
0.0442523794616904
0.0491938091757132
0.0469625309707086
0.0473469799329385
0.0441511009956405
0.0506546581007426
0.0445225230934899
0.0579152531859556
0.0512491385905034
0.0466800451636994
0.0512166922274102
0.0477050269934541
0.0565699367925304
0.0489844868099902
0.0489649357325572
0.0500180117623815
0.0478448342380886
0.0519940250981383
0.0458961422523343
0.0578628010811848
0.053236970882204
0.050495825384382
0.054305980634318
0.0512804627752022
0.0570690535480434
0.0562754268664263
0.0523819534213258
0.0521186977466395
0.0562974641620121
0.0582035089768992
0.0568235849354224
0.0648802622886928
0.0512871304070679
0.0719933291574215
0.058171589269366
0.0660264166278113
0.0567042480434057
0.0632162545111412
0.0602502199965675
0.0692638103130171
0.06038497799453
0.0651144725131134
0.0616018773217471
0.0763424888249418
0.0626917272953959
0.0714297596526282
0.0710741617603649
0.0698187181137482
0.0770895017890884
0.084301403121938
0.0708836092628087
0.0772162167755828
0.0727403268295616
0.0796552219733511
0.0783731381630214
0.0794119108394125
0.0810167608290302
0.081062227965122
0.0848920468714236
0.0847903489721478
0.0838773410191886
0.0863105097784262
0.0836506100177083
0.0904006804325035
0.0856283929002245
0.100555284682974
0.0931730734732731
0.101722512457785
0.092506226785754
0.0982485779116307
0.0961740656373346
0.0942482438922115
0.0957792064568967
0.0960544075809433
0.100885847201008
0.0991606837232972
0.0992309531086785
0.10067584056468
0.104723067311599
0.114191810010685
0.102081595113414
0.119384522129686
0.109782844928873
0.119815028542127
0.113274937549489
0.142208085897556
0.131064795429229
0.122887627542628
0.134847161654661
0.126394068420911
0.15685376987845
0.140895723489409
0.146312810030873
0.152667262841901
0.157520385490204
0.160828102621123
0.170385778116014
0.170967330300053
0.180049958370458
0.180412194263011
0.186252104522083
0.196582475399275
0.227174256848288
0.206621602665602
0.214359785858499
0.213229306140195
0.226613813076131
0.233617906990801
0.237391010926327
0.236780006045805
0.250154851940894
0.239038660602439
0.279026166940493
0.263218399550118
0.273656030507138
0.274072727500897
0.291141424081254
0.294616529442941
0.301540983001566
0.317665817771438
0.298710363283608
0.319811414642371
0.319769024841342
0.332519133023862
0.333960473021802
0.34989343179328
0.35238524780401
0.347315297568728
0.356830915358075
0.361045460750482
0.367674370830255
0.369716579488853
0.376844768260924
0.378660143317083
0.385423911640273
0.418684260181547
0.425544542749111
0.390852242058698
0.377184379341595
0.382663535052098
0.379255208394515
0.401952648998859
0.383663450164401
0.384188911396622
0.397229523246163
0.382942691540128
0.388933887942632
0.388597912755679
0.391851431405389
0.3826442621174
0.391338156269326
0.394124836051104
0.388792475063877
0.398041134167163
0.383546200141352
0.429786744619339
0.391703807573977
0.389806951383412
0.381607910691746
0.384243560917125
0.38334934089032
0.38778179590342
0.378800106553703
0.386388199815212
0.371341605022766
0.367871079887612
0.369124171404104
0.365140038595868
0.369436934296823
0.350822452753614
0.349262821670951
0.347820734014965
0.338610279939268
0.337622692906818
0.337862709159893
0.349253671685886
0.327424469136352
0.322320278646581
0.324105435767934
0.312200062647132
0.310331360271146
0.310874679155734
0.310453706662324
0.304772705636102
0.297353396275357
0.297495957399487
0.296077251238209
0.296940406250076
0.291246114693551
0.286390598892016
0.292157637907072
0.286826640330015
0.284000674892597
0.284463966368805
0.285874437937846
0.277587171463015
0.273747356353475
0.277025943046153
0.282027949847448
0.276991386497212
0.275317163364688
0.275820850947136
0.276858065868161
0.271105389663192
0.270649315907981
0.267512915083859
0.275794189501703
0.267443937808769
0.265812905526435
0.265370241843024
0.271033632008788
0.2650118714295
0.264609625442885
0.261649167264377
0.261343321074038
0.259796338781551
0.263607327976704
0.259606129360704
0.267233909235457
0.268628122449565
0.252829152033846
0.260485735982676
0.252938199405632
0.255897809120083
0.254154243546135
0.25784492077761
0.26051751210117
0.250130083042286
0.252156018263886
0.250604020578912
0.249196772673899
0.253363726370939
0.247052352236199
0.243387748645032
0.250314384558002
0.244346242094794
0.275376931021017
0.250825672463794
0.265690405712095
0.245258255262166
0.244285491280772
0.249399555327441
0.260315650764498
0.243916226913894
0.240782624865309
0.246565237660476
0.241853264340826
0.246977945567042
0.238217156627759
0.240407960060145
0.240795752548148
0.245393498320562
0.245789943123844
0.242952933345049
0.240121712903681
0.239743628121363
0.239061785646379
0.25079585055313
0.271760418516168
0.235804245047013
0.230542481225765
0.221813878125586
0.221747109790358
0.22899224938882
0.231478744287344
0.228515747837874
0.220001003946886
0.220917941569333
0.213776213544856
0.222081935228001
0.216373109743312
0.217139029410797
0.214779564733841
0.214137993757635
0.212957024993441
0.204672045937806
0.220686433385657
0.205623242757993
0.215823280778026
0.204385304256747
0.206111847357268
0.20197512447639
0.212004595827729
0.203031524373114
0.199572567004615
0.19748091690816
0.200241916522358
0.195504845904137
0.196014114884376
0.188826617677115
0.197935700899768
0.190290154338057
0.200142087820788
0.198203821489274
0.195140119528801
0.185203091371959
0.184195416785576
0.182639108054958
0.189093590176032
0.182176040635499
0.188425982067663
0.179767224895816
0.19168513536543
0.187389083073604
0.190890847215963
0.194188796118677
0.189992049637777
0.189579860907029
0.194436952396924
0.193237913506049
0.21001485382893
0.197947739474962
0.204013428309694
0.198617406913987
0.210161752341728
0.209838935008033
0.21137274785285
0.210385456288343
0.216945280325823
0.22037239579392
0.230692456098821
0.236266351849306
0.237310456634375
0.246666513555966
0.25638433333095
0.258438059851297
0.266657154634921
0.267348360109775
0.272636539844418
0.291368870997586
0.286569900765384
0.301297685149353
0.294753623145023
0.300253656579104
0.312280399656317
0.309918327123942
0.317354117464819
0.32396393029777
0.339734854567151
0.339713553250013
0.337874307588561
0.344617986848784
0.34761682789496
0.354152769109307
0.362066130864236
0.376240121062927
0.357944963691825
0.378785881093088
0.371479662970502
0.374415954327928
0.37807224901011
0.374605921021367
0.380849564767844
0.373932728174768
0.378866721608203
0.377952017544352
0.392109947595923
0.389590736935807
0.392064016344463
0.389635202945676
0.390193856564031
0.401230900266169
0.398851553565454
0.400913101831862
0.404089220114772
0.4053454452672
0.408613225851843
0.416182766120097
0.434420663727394
0.423503966713066
0.412818237802512
0.424893609942823
0.425542688938909
0.432107283885216
0.429118472746662
0.438975284524669
0.442307332409196
0.435952550681419
0.44137176039786
0.444563378086513
0.447655966763243
0.453677260480292
0.450070264861055
0.455056698108969
0.448189466913456
0.459879942997973
0.467669905817374
0.467341854335621
0.472140418723813
0.463428899297207
0.471540609003734
0.470415208757062
0.470861924257806
0.466950616947167
0.48443035081898
0.477548760861663
0.484710596892247
0.472586619632929
0.477209169395998
0.472350552092518
0.471032772196585
0.477224526818757
0.482362947130159
0.472429983873486
0.465580658433237
0.468589146687555
0.467900953631238
0.461064809039499
0.472158991340287
0.477975664382972
0.471333224720724
0.460376943160961
0.464716187474611
0.463940331039967
0.463688491492803
0.458516528313975
0.463426524179663
0.461459345704915
0.464462585116608
0.466947809159413
0.468222014749759
0.480759300036055
0.472522101100633
0.468756105325732
0.479372404102161
0.47307463904054
0.481752888203186
0.481600242993244
0.488871630672411
0.487474014737386
0.496918193748658
0.487661893111958
0.495516090050314
0.49003706600732
0.492549243884748
0.49969756775957
0.502114654602637
0.4908768165112
0.489970662523087
0.490155199442111
0.495161035714168
0.497578504793077
0.491468542761475
0.483749913434402
0.486999686020824
0.478218983615157
0.484339580198397
0.480182736829244
0.473246428120217
0.466383439108219
0.474448784532732
0.466916961733182
0.469570170060131
0.463166916490993
0.457445112188168
0.456635230006505
0.456280510147361
0.451513665521368
0.451650777859705
0.448355539087467
0.446834136929439
0.44391183495194
0.442599509637468
0.442456459868993
0.448669570021184
0.444929662492842
0.443723103153316
0.439804390719205
0.44152076807121
0.436112752250832
0.434365294849122
0.438891998060232
0.445693320075202
0.438914884535516
0.442030776790437
0.435510843797356
0.436085285817076
0.438781680381962
0.433739961591411
0.434288171317171
0.436790253283402
0.43661744504157
0.434923857982546
0.432132636237867
0.433245768073348
0.429833699172048
0.431421304287457
0.42722991841906
0.426382106044019
0.43001598912532
0.428155789440146
0.426004808604013
0.424960247911033
0.423079797601351
0.422324807332184
0.422607598413067
0.424612804385441
0.418096740365103
0.421823507026026
0.417203268870269
0.422840046056242
0.418852151733476
0.418553638794484
0.415860070229731
0.417970014252572
0.416379830842304
0.415324520033418
0.417427252992367
0.411155767726665
0.411645179273476
0.410452132893141
0.411267466961796
0.409424662985865
0.406235305967862
0.403953936202702
0.396487144538113
0.395336061808946
0.393566063850301
0.390572781399939
0.38456591688176
0.387938729352817
0.380319650306807
0.378272869788757
0.375154162462211
0.373233852895367
0.368960484314151
0.36638022531406
0.365925675502077
0.365623413035561
0.36186927866035
0.361227117741523
0.359330306236106
0.361409113007821
0.355917146064483
0.359004994095491
0.357008115498837
0.356840296675929
0.355928421832337
0.351755706524117
0.353917887740636
0.357537954164863
0.357233814163309
0.359739581047101
0.36058963564159
0.363708574695061
0.361586181603999
0.366432562899411
0.365305568800003
0.365822821102465
0.367672036392568
0.369642962398886
0.370836804222393
0.375829753799969
0.374650384533696
0.37755994320512
0.37523539662252
0.376224788354497
0.378622629366276
0.381083001803513
0.378889040950741
0.380230926613744
0.379618144340941
0.382729502897219
0.379195713820349
0.382132862880661
0.382049547373488
0.377830308764426
0.376820245653085
0.378294982812984
0.379939138959157
0.378141938168251
0.376007998947766
0.375455977298093
0.374989595710831
0.375150274876364
0.374525551474082
0.372330148506048
0.372894095341288
0.368962107865201
0.369748280309759
0.369897693419499
0.367017062301212
0.366114054162215
0.366259088054898
0.367269976577466
0.363835355302883
0.364860389053622
0.363691107956012
0.359047327671575
0.361384031376978
0.359428043033858
0.354417862126958
0.355261572204961
0.354142087468894
0.351789376758715
0.350315035786923
0.348972174179972
0.34546858847668
0.344761035783891
0.342633222011752
0.342486769583115
0.338299458076356
0.335089603612942
0.336602521508905
0.334108117837126
0.327941439913793
0.329710792123953
0.326112526204427
0.324863646018428
0.321947865892307
0.320241490067094
0.317528774630575
0.319682158645725
0.317719181682018
0.315096134312101
0.318047166543501
0.315932813389135
0.314129691290973
0.313835480836158
0.314773886559813
0.314083228324195
0.314054845452407
0.310482548888623
0.311267242632151
0.305002299560719
0.307100859944191
0.304812286790832
0.302117429975152
0.299078919797038
0.292892697383962
0.290191969906352
0.287007276353757
0.282680575360974
0.278312379105233
0.277259780855364
0.274087001783392
0.272506755585372
0.270000422180756
0.272625392426515
0.273654070890391
0.277483317071706
0.281569353679681
0.284883807822134
0.293336067826854
0.30006659076284
0.307568419656015
0.317741963271788
0.329805299483007
0.34002366066903
0.350040887967488
0.368015823901993
0.379406582682778
0.393944220153985
0.407769862958521
0.422254215334673
0.43828290516403
0.452676088270063
0.470689941070533
0.485596768857882
0.503260903768432
0.515782668386405
0.537255978621821
0.554186831761583
0.572464379722247
0.593245173596268
0.604976216203975
0.618251447095443
0.63294187746542
0.652974947258012
0.655606351318011
0.672640844361158
0.68103079463594
0.694345340977701
0.703819610026452
0.710757246290755
0.712910762864359
0.718485922802659
0.722027786306967
0.71978118572886
0.715905274479492
0.708924819467349
0.716302637488446
0.714500714168228
0.712508866682435
0.717825081405387
0.702769920065179
0.710921944403339
0.704837120205469
0.70212323180484
0.703809805656416
0.702283231585599
0.707037673024423
0.703869708279616
0.710142754980933
0.705020290505521
0.706114743333082
0.715570255991601
0.720184502457329
0.721534229074849
0.731210740475394
0.735175740790731
0.745585030147582
0.760335969477138
0.765184248048605
0.763499428719958
0.786779029332758
0.794419350730332
0.794411664877001
0.807853496891352
0.802920061346089
0.832853627839625
0.820621812139318
0.838792716691958
0.835866928136446
0.847658123296374
0.844249345719707
0.842278795821402
0.84561869310392
0.837637109637263
0.839982195380873
0.842824612939963
0.855686022829527
0.841319379835539
0.84975731920384
0.85440002637448
0.8599815457164
0.863717319703321
0.881658482904849
0.878158546652087
0.89245515755725
0.907874865812309
0.915646547664254
0.910032950951675
0.925825420165036
0.935904730165598
0.943646487720288
0.970524234283931
0.967723293973521
0.996133801338824
1.00691942631914
1.03643390752135
1.02524787269239
1.0536428840252
1.0625960315079
1.09253054596875
1.09463438387032
1.12717403239493
1.16015495748795
1.16285732356539
1.18901105305951
1.22761906526826
1.22600495923838
1.27618667631233
1.27526621937558
1.29808547692383
1.34253556162558
1.35043377523873
1.33259793993009
1.35413727391822
1.36129076413133
1.31884120968
1.38312488862824
1.38124231410513
1.35618996415395
1.37417305820112
1.3374343253062
1.3432938117134
1.33381501500703
1.3594480874285
1.32370692117558
1.34653884723653
1.32755085006227
1.36140956391581
1.32356438979365
1.35599817862531
1.37213877636262
1.38757103310839
1.35077121020844
1.40993393597588
1.39208636275615
1.43489203870427
1.42864893782646
1.44624565500248
1.47090637287024
1.46305524254171
1.4977117136607
1.4729020599931
1.50490025270195
1.52233171930033
1.55740849615742
1.59195754170367
1.61164593216047
1.61166167934419
1.59040004400933
1.56646218296395
1.70156256501272
1.63487725183462
1.63861717784572
1.67592435192934
1.7026736706447
1.74155100666903
1.77468986311686
1.81035332686006
1.75814116505817
1.71037153205178
1.8108474783174
1.69826263887973
1.81970626921661
1.72207146900868
1.86977968136704
1.79628185327979
1.87067912214083
1.81555196598054
1.83949099630992
1.89950274643783
1.77276907542934
1.82024773527479
1.81167204202404
1.81827393302771
1.76914933371777
1.83020298656058
1.75295324103832
1.71091555124656
1.70169096656917
1.67778740451584
1.67238968136433
1.60060805397785
1.54351110393716
1.4791101209171
1.41735167507254
1.45441162127971
1.43888936798553
1.40277876175984
1.33798718967759
1.33631163170403
1.2826911861194
1.29510823285973
1.27775420582193
1.2578240480817
1.20762280254859
1.2196367070034
1.17318880539227
1.17601148027323
1.16110128891271
1.14180646021465
1.11011412951992
1.0748421600314
1.05577460983597
1.05377646178921
1.00272562021839
0.972650574905757
0.953969873545963
0.920634431184264
0.888603179569145
0.852716819706015
0.808842958186489
0.777043279331355
0.744256699677074
0.707712313205413
0.672459294488228
0.640515071304177
0.603855159528916
0.573046067484121
0.544882120108238
0.510332327979099
0.485515303790028
0.461938930529776
0.443126510172076
0.423722536776293
0.406242150667832
0.390724307826548
0.372855417013542
0.359251827697932
0.349032312552602
0.338646403085702
0.333631482676481
0.322359755057734
0.314928543845623
0.306811999509941
0.301059915559413
0.296922221256824
0.295473421295127
0.295648687673083
0.289791940570446
0.287962261633048
0.289920516251536
0.288369592328513
0.292805178551515
0.29239633052564
0.294341212681314
0.293822769466765
0.29619718577635
0.301061707458985
0.302302057965902
0.30980807488934
0.305513187943913
0.310477335026132
0.311291458041175
0.310853959287195
0.316906671654498
0.317424068916738
0.315391399684484
0.319214284777954
0.319178104433664
0.317284601830425
0.320181639136416
0.311311201737974
0.31177448285591
0.316084808734508
0.321577181879234
0.314695671470965
0.320756541125764
0.320508309601378
0.32326729536384
0.32059124108409
0.33008190320678
0.330089115373225
0.332579324898011
0.329443275008583
0.332581514494538
0.331541212737142
0.327707359586423
0.338725809448309
0.33353604888794
0.339566339041248
0.339047775309113
0.336410242005467
0.335679116457284
0.330034472965045
0.329466977780041
0.334921491203649
0.329825660227231
0.32259115596479
0.331050582609265
0.328045166375701
0.330846180976795
0.331508609443395
0.333162824455421
0.33556058363959
0.338933889063309
0.347620390568444
0.352351532145118
0.355814603223482
0.366838002256067
0.371945307410837
0.386930334943415
0.387753464715487
0.394528360243683
0.405656994334629
0.420933789681002
0.413966817261979
0.414423676265253
0.414118062845239
0.41185747169312
0.405470104337381
0.390931585414927
0.387073943396598
0.388577275850205
0.37300931846821
0.371584240333853
0.364352202911301
0.36034011993047
0.351973031499711
0.345779832852833
0.353788445038198
0.348812112400487
0.350934859983144
0.352957349752868
0.353510533819653
0.354724559658815
0.358427884985387
0.35937371004875
0.351659599536978
0.355598671875994
0.352957031366504
0.345381783982798
0.348558070238191
0.344065424854965
0.33901573058922
0.335474068145602
0.342855882053674
0.334146239096755
0.333010024975228
0.331644531770066
0.329582336421438
0.334369004951806
0.332381080908517
0.325962868558833
0.328621929279116
0.335312886033279
0.32396508484925
0.324130571517871
0.31794108199728
0.32593702890377
0.327941089878582
0.310781917729703
0.317947932300454
0.311489645926813
0.309384397283752
0.325261042118528
0.314164577203748
0.314876661547662
0.316815686966527
0.307138525614777
0.297883761628409
0.311442140177304
0.297553035513928
0.300322005565267
0.29175614651774
0.289217118653068
0.300248365053576
0.292181086481208
0.29081048738001
0.281983293212839
0.286472888652998
0.286219170512607
0.273940770497762
0.282341670790922
0.280943516040952
0.282903837207778
0.275584107223664
0.276808022828881
0.270448137552602
0.27307542099921
0.272546473338841
0.283858261975731
0.281547423005773
0.272227870354964
0.273786827262406
0.271637182637356
0.280158408326854
0.283060219048224
0.279836756301588
0.287405066873725
0.28505204722823
0.283063806564493
0.291212240214122
0.287883999042691
0.289146501785132
0.29981966773374
0.282847301502009
0.286812941097392
0.296215536176756
0.299302068982817
0.299606416222999
0.312587471118491
0.315433584834678
0.316989710331373
0.335894009340114
0.34294314991627
0.327779858976313
0.341497329018515
0.341856098043284
0.342885475294134
0.367620803594704
0.37567710227246
0.397729751060717
0.410031751851655
0.39468283716036
0.404220847525283
0.418695365456262
0.424218157903043
0.449539712282683
0.442202778920053
0.453713523714445
0.480114378190977
0.492179938917875
0.489801228345746
0.496424106041953
0.505829587513633
0.519072866540928
0.530728921902586
0.51832835134379
0.502669667501752
0.489762089101179
0.478500800898784
0.481002645549192
0.518790049969728
0.48008684688358
0.494452061991512
0.485102438256039
0.486658936223984
0.502785249070069
0.505345733215664
0.477352163823781
0.486211558480791
0.479444935914063
0.490469361779856
0.493474250467109
0.495397021203589
0.480573912576993
0.500433929745373
0.464870658624267
0.450029713699527
0.467750441257069
0.465330246863815
0.445024801097563
0.454677549752119
0.47016009740362
0.463579600794791
0.46980607197048
0.429332171881145
0.431373954661347
0.452918825262801
0.411841653257095
0.420858831486622
0.464081659704452
0.462088274489913
0.455045225533637
0.451690855366413
0.448676599470272
0.419085525847864
0.432276777524996
0.454488253353332
0.43535043747012
0.45112564896807
0.451215005680488
0.424440123088595
0.392647830566223
0.442773650992241
0.45889554227767
0.446835846233045
0.421094777158372
0.457039267707355
0.449647509863805
0.491604495214315
0.479988693826306
0.505933290923192
0.460511761946863
0.461936926759885
0.453895135438928
0.466648787397187
0.45483469745972
0.464106596709547
0.492021535768378
0.496401868623529
0.470006486517173
0.464312003134646
0.494792779602381
0.557197300004202
0.514634264772245
0.54673170041663
0.564700365120451
0.556497924004845
0.55041972917909
0.558963990073127
0.60250415715367
0.650636703633126
0.569460541229632
0.581943294803781
0.620259061770789
0.612307680440099
0.588845779323733
0.616775216457086
0.598715221711652
0.620354865425239
0.573566622337015
0.573721407023545
0.566850204656213
0.621444626163956
0.608445744037707
0.566751150715605
0.634703668864463
0.631472165862514
0.582938921517343
0.62807123283037
0.572983814661821
0.615285923853263
0.566507540420463
0.609543117167858
0.611585653591613
0.551523299165412
0.537708370133223
0.575386371154811
0.601343722534326
0.63326155514918
0.564803771840778
0.534233337177324
0.597270452707727
0.560395067993854
0.591254365049726
0.601210244323799
0.485247798982596
0.688756895415263
0.595219119551295
0.473010203098272
0.492308356620385
0.531231603993088
0.57068339019999
0.545224434566549
0.476573850609319
0.701390447152508
0.5901993034277
0.584206573730479
0.749942264177828
0.903903697745408
0.478726286632147
0.620815768217382
0.881100446537563
0.831113860427953
0.604573945497056
0.634350478424219
1.04994435865489
0.874267823524256
0.573573838625088
0.696040156019198
0.624017784738935
0.653511765596798
0.429189822118384
0.65596063561499
0.875472552834107
0.525832728162833
0.453771420492908
