3596
4000.36533379555
650.420452594757
1
2
2
0.0326284069698095
0.0235782698575319
0.0345221546022012
0.025426742780422
0.0297386408249753
0.0134872875268738
0.0239948400345793
0.0249479447196567
0.0237030776995067
0.00566482226165843
0.0176493404501834
0.0247651558404414
0.0272142498281284
0.0186386588639823
0.0204758548208369
0.0157475370309572
0.0264512427669701
0.023291789211854
0.0296259294250349
0.0221497178563487
0.0228869350617367
0.0156941583148856
0.0367370070076052
0.01988975406848
0.0258489797993107
0.0206515123016165
0.0233995800360048
0.0214030291518811
0.0205837303574697
0.0187143751365611
0.0339831258464725
0.0192889049325334
0.0214073029699461
0.02653590199901
0.0257807818446864
0.0227136847842644
0.0266644626204154
0.0264294081786561
0.0320216251990194
0.0206114124090747
0.0272749917081171
0.0215084816126758
0.0243342424287392
0.0222933677686222
0.0224934340214906
0.0168148487808062
0.0227852604708711
0.0229545047068743
0.0214200267039572
0.0184093485176142
0.0289823195977528
0.0234142951032461
0.0232689206675079
0.021155775805234
0.0176996168408418
0.0171881468736122
0.0180943949058089
0.0187567978455002
0.0215064278870203
0.0212064842898028
0.0219941194179931
0.0188882531870094
0.0251983186895739
0.021675099165408
0.0233138682881618
0.0158456083217969
0.0297556784145838
0.0217270799999422
0.0296123741413578
0.0270755479900261
0.0210160598615292
0.0152675581714222
0.0271224434776085
0.0153143200543855
0.0294686857358539
0.01854782008838
0.024279364502933
0.0143290542615801
0.0269883952438858
0.0135105258266274
0.023846208567738
0.00667802851554373
0.0186039715137199
0.0181408949288871
0.0281977425651252
0.013655364946777
0.026727320605963
0.00741926966384905
0.0308372022337363
0.0118951315698521
0.0194409652033708
0.0204890545375089
0.0225085329301085
0.0121678792261872
0.0225256153296525
0.0159814643008121
0.0286822435718928
0.0154145580247984
0.0279441586070237
0.0112562675835866
0.0270849152744111
0.0141161228299657
0.0312843232580883
0.0190376797549112
0.00255465048901291
0.0318688654332446
0.0116490553283769
0.0234279385848765
0.0284874457511563
0.0149570474462757
0.0205529229393183
0.0130049306462319
0.0145869442630929
0.00559779047389753
0.0343711168803134
0.0186628267430194
0.0252906570911166
0.0136825574188437
0.022142974991124
0.0103936583764297
0.0326631294499467
0.00979522551834239
0.0315431195828628
0.0107499169877268
0.0222841629601891
0.0121236064523311
0.0276576908959449
0.0103623038870386
0.0214948942396923
0.0135241945344226
0.0205911294332983
0.0106267768019981
0.0273765038221628
0.00959960354037092
0.0269130834688839
0.0173706456255697
0.0195144987012836
0.0249109091407641
0.0118648268040224
0.00128858930220802
0.0159910298124651
0.00591394645156759
0.0252877121386424
0.0218624563383759
0.0211830062260473
0.00184352892289584
0.0244436643154995
0.0165235504404244
0.0177733490191511
0.00985507392569833
0.0173478373958206
0.0150362676628324
0.0108045807839117
0.0129542806201513
0.0337196218689391
-0.00927126120827506
0.0327523834446822
0.0151468011499074
0.0158727213463308
0.016654864242064
0.0102276787221413
0.0177400846432133
0.0100467577146581
0.0201427185454692
0.0121414445774509
0.0183119662462937
0.020463628652166
0.0239540450475982
0.0217656447923792
0.0266661121822387
0.0214198174000526
0.0130964304491576
0.0289533640075671
0.00554513053055427
0.0225355834914167
0.00308323293102627
0.0287073499292571
0.00921077258700465
0.019898660207164
0.0117546130184511
0.0157756576085914
0.017183419844061
0.0146567843433519
0.0147426751756884
0.0209547200508516
0.00929554405250443
0.0283240377281707
0.0185245676620186
0.0176993806759934
0.0192757989155054
0.0355133888679653
0.00988521169475922
0.0210810446219468
0.0147028988193527
0.0172386641973575
0.026221667391954
0.0112341345073263
0.0153754865750479
0.0124814451087651
0.0117405217736692
0.011529352649329
0.0128868226173092
0.0205250178180163
0.0119740243786673
0.0158535546349297
0.0130056932991895
0.00698844498351052
0.0177557342747697
0.0155575928044634
0.0125488785946658
0.0152534710932013
0.0249045421987159
0.0129652070922329
0.0168625928161452
0.0208780688386801
0.0166937018606965
0.0122663107245716
0.023298569141152
0.0161907836553835
0.00818716575588304
0.0169780177773703
0.00978899542341861
0.0245215044233401
0.0204128059342193
0.012489117220852
0.0175139904310471
0.0152607685788433
0.0123400459398787
0.0155374364074929
0.0159969459925139
0.0173857123622946
0.0195342288522048
0.021696221101589
0.00988623711609674
0.0255132271311438
0.0261525750441741
0.0210544376961349
0.0170189970492749
0.0179227223095871
0.00923363038238264
0.0118879859219312
0.01108076637836
0.0159709031623033
0.018286622307072
0.0189581486445522
0.0289496784470644
0.0114405627088593
0.0222153152741197
0.0105207610054561
0.0346429909694232
0.0102735404858173
0.0293084319988295
0.00870302358655688
0.020155188123137
0.0154913793671901
0.0311658549802293
0.0153525715190714
0.0157681377887562
0.0200188336417715
0.02635584314644
0.0095227013547906
0.0205006344869766
0.024531419726294
0.0220133929746367
0.043209306766045
0.00772712686113928
0.0306377781709082
0.0143580089744086
0.00710187546997527
0.0217729205445691
0.0151596199577759
0.0270706094991205
0.0344825853565955
-0.00701454905764702
0.0223237583368771
0.01716072093758
0.0199810693178336
0.013392276708129
0.0274964582380507
0.0133218022450011
0.0266232617983209
0.0307155400816834
0.0394515179623843
0.0410030912724424
-0.000255630889196491
0.0408530427492259
0.0117423207122017
0.0170436487294675
0.00934047058874551
0.0212901742955774
0.0206100504149743
0.027763849937165
0.00893914598857666
0.0272980443383542
0.0154642351025817
0.0213139887153165
0.0306330711216435
0.0211527431208044
0.0234916162552753
0.0125814327637987
0.0300564848584225
0.0253330535734852
0.0263833419518902
0.0217431540336904
0.0254884463318537
0.019290727765635
0.0315526713461087
0.0240694597446316
0.0185370971094555
0.0248422079870251
0.0343989646386793
0.0105810143501973
0.0277011591308898
0.0271184787336701
0.0233753387307993
0.0257536650369963
0.0303442606679255
0.0193704959276805
0.0340406314013931
0.0171496224201274
0.029666255873968
0.0276364950281321
0.0296489485507503
0.0258617383682728
0.0262473486698856
0.0294275299987199
0.0309949831988863
0.0242303259980865
0.0272985056175929
0.0354691812040575
0.0333590678467635
0.0218099004163642
0.0457722142431759
0.0194988264540828
0.0285970767278105
0.0354515416533891
0.0373533499163808
0.0357679375452156
0.0242031264165466
0.0343854624102501
0.0383452132076764
0.0318244693285144
0.0392704983040864
0.0329057666229592
0.037392826937633
0.0455760859991765
0.0486891526716235
0.0576182623378689
0.0256273724476404
0.0473426087065215
0.0393446093402162
0.0584272280670472
0.0304319749317714
0.043841419501575
0.0478057365332715
0.0456408260328331
0.052326628081041
0.0446216423579162
0.0528028342247097
0.0518989344662889
0.0586934389064194
0.043509163797864
0.0523400185172021
0.0496441825617865
0.061207056477367
0.0592638060167278
0.0628637292164944
0.0718304316694985
0.0622474142520712
0.0652328487277467
0.0747367033186891
0.0589761562272451
0.0752950442139421
0.0757029550567589
0.0976218793490105
0.07681667420583
0.0684139836287808
0.0934958322514565
0.0562168460224989
0.0799152980367808
0.0685593577048346
0.0947299668441758
0.0875506403411255
0.085701019553562
0.0851199283293039
0.0937608251191785
0.0829535873486258
0.104551660176141
0.0950514236581463
0.101495434494782
0.0969929212671034
0.118968130410864
0.100016869965957
0.115630552175045
0.101657128079137
0.117280566982256
0.10640972809805
0.150088428721451
0.1019484933167
0.113290299380892
0.110195590602889
0.108804979548902
0.122789729251207
0.122388527055501
0.13363838090778
0.128379360624348
0.143972590415535
0.140524273450744
0.141232802920032
0.151446487748532
0.129852797454457
0.149742967279626
0.140728935182975
0.146652748409804
0.175791350680238
0.165192970954416
0.14467006417281
0.166917953280432
0.159858715176758
0.160421336330773
0.172390477188041
0.155657720025356
0.176711015359881
0.167939928755805
0.180929042339853
0.168451209914611
0.184632416851763
0.181411420703556
0.16901847875009
0.181733858875482
0.190840645885524
0.204249990054764
0.200729862640187
0.204924687304742
0.195112909459559
0.209632035947322
0.196973117192267
0.222974778843901
0.220866753216679
0.227602480927881
0.224572084648264
0.221624281673036
0.240615825369982
0.228289253415342
0.219761452260781
0.238870591635457
0.228530852492892
0.235354361721326
0.237387072027892
0.244469815877704
0.257784863702821
0.260174972828831
0.262783759846925
0.260789769505914
0.266375685584047
0.282958023199608
0.259938714855814
0.280005541856732
0.265179249651353
0.285381679198355
0.275992777355107
0.297378788358076
0.318686730568679
0.295637722348705
0.317362519534334
0.294272360824651
0.315892721157212
0.311982157846864
0.287713680788848
0.318466733570207
0.334904013911447
0.32694094874398
0.329602647783308
0.345897806521105
0.330586731494226
0.338246111089412
0.331927048857724
0.371824709437409
0.333226070850427
0.352230881490502
0.357917660285057
0.365168556465049
0.354318800477973
0.390705883663957
0.393021415091999
0.382640529636754
0.380420674489592
0.409110855204969
0.395103454512832
0.39347248118048
0.383876327781328
0.418942488354752
0.38836876210154
0.422527843531847
0.413722317943988
0.425871684697292
0.422604639980391
0.464122778343645
0.44146472249872
0.466580971070444
0.453457139458584
0.448965966936859
0.448039408138005
0.466439242068371
0.462329264702984
0.453493817681611
0.469579120140943
0.516450574737141
0.482582542276281
0.488230081544761
0.486721950230033
0.513343489892402
0.507360102390845
0.501197478052353
0.4886036027912
0.531174012843869
0.470934256244513
0.512871900624966
0.519435915725864
0.566607044699875
0.508797592100097
0.548046471973199
0.528559933759142
0.59472319376699
0.512877741101893
0.553758501975943
0.571582907300782
0.613273990934301
0.557835151055128
0.600558688366441
0.54300064647537
0.618780073712244
0.577316581525393
0.603199500786326
0.596679136389018
0.635828118103557
0.609696077624599
0.598092960759198
0.585386482078039
0.631719040069215
0.634148323137816
0.645963146059825
0.618712559699236
0.644115537673501
0.627679851917401
0.70892806004428
0.630669395066539
0.686113289502913
0.643158233602964
0.700033302612074
0.657432589337754
0.698843490149665
0.683415197789305
0.670420866003496
0.65361925561768
0.741234030175594
0.688780636161898
0.69028469832166
0.701957004940352
0.737377460772512
0.726552535100441
0.728791526439091
0.719803661588975
0.752450030440188
0.715773596281647
0.805962642129872
0.746009329319044
0.823854973137446
0.726849490958753
0.752330317378896
0.715096327359869
0.797067447557039
0.744750342761205
0.807909167836007
0.714681551865575
0.778119823529614
0.754318982115241
0.8229310289797
0.764783937828948
0.854992603637664
0.777836587328933
0.845458571074258
0.786779839651767
0.876828609274391
0.800890263395456
0.898226288391998
0.846542883482921
0.87691507352414
0.798642761879672
0.917968871953749
0.866486903799066
0.871548002593717
0.793936057066484
0.881731913337078
0.85540155061949
0.869541167503587
0.869914041525005
0.961391941755807
0.882923171986976
0.904618267389023
0.881364773437924
0.913103534624586
0.878601403210404
0.962195858816138
0.845849962940256
0.922168198193854
0.893864257470467
0.968627879847154
0.86403935482721
0.970792808866061
0.852588121264628
0.965534946127563
0.850915075828031
1.01438952784806
0.925928818513153
0.968591750270752
0.904876887918008
1.02837526741583
0.938925889088793
0.996558795982825
0.899569299824315
1.01091047231548
0.952173632493281
1.05834438823503
0.900182041303646
1.05858938974717
0.990402209330171
1.0415683166653
0.940289379555515
1.03053269188288
0.975751354347682
1.07240665582973
0.934685572909856
1.02358164704408
0.953758460815721
1.05497379389573
0.964084720632611
1.10938286967585
0.992858856740954
0.984029131176369
0.985499606759443
1.03051253617346
0.982785478542667
1.1465489656718
1.09744054503159
1.10602795459197
1.0165274848463
1.06764078347825
1.08280047343814
1.09416744858596
1.06031552004465
1.11651892320911
1.03765642134954
1.16348827792416
1.04847192985422
1.19720233573272
1.08499092714929
1.13155847532177
1.02945191736262
1.12946052439999
1.0314351339116
1.13157701421336
1.07687236437574
1.11578109660345
1.11954073896637
1.17934637370739
1.11825965558646
1.2044460770809
1.02040823004581
1.15495048738148
1.04528835992872
1.1650646769539
1.08065914332184
1.09697679520303
1.07675393665462
1.16648657439151
1.07195434414733
1.17835903721289
1.10396265884195
1.18493178013878
1.15575909374214
1.20389367143592
1.06582722553674
1.2044306967509
1.11106644666611
1.1624871042082
1.1219971286739
1.17425102161705
1.17454720871787
1.26280372635349
1.0420299725608
1.21109683378953
1.17643992024277
1.20542133063025
1.12731248120844
1.13861057862003
1.14428244164553
1.14298525441115
1.07987404752123
1.32224413980389
1.11462371791123
1.25327835046141
1.06473318166024
1.21854189135896
1.14234368620516
1.26594076267469
1.16434722652257
1.2600281578068
1.17748334976597
1.27375930496173
1.1885165239817
1.20915547200334
1.1872623066332
1.26586832146191
1.13818272834101
1.24654767938171
1.1327769616051
1.27035259987658
1.1225025119369
1.31087353278055
1.15143437057338
1.19483757508438
1.18397417428223
1.25186835257509
1.18222765324152
1.2307158832115
1.16751181933712
1.27027483763378
1.13184359962603
1.20511509550329
1.22511901262468
1.20938957750884
1.15519292254484
1.2180857120053
1.16043614840529
1.21859048792985
1.16935307935963
1.23020672240649
1.12985969658044
1.19274719820087
1.15692904353801
1.15903337991055
1.12059246961094
1.39329677443051
1.19592830912263
1.18214495897316
1.12084319746753
1.24139637284961
1.21502920610975
1.1506511820822
1.11486946290921
1.2422196419256
1.17218037679581
1.27345633033651
1.15490540856162
1.2717552413618
1.19462511147626
1.24655351697364
1.145110450963
1.27320073489455
1.16225969153305
1.29847971156149
1.15298255161462
1.2136762485251
1.11157754825723
1.23161028059722
1.18192807506451
1.18367324581149
1.13926204814751
1.20472582554317
1.13432599800799
1.20857815838372
1.12069007173648
1.19625003032668
1.15404175723353
1.21836191650621
1.08649863369837
1.17572386348046
1.15543405829733
1.20454935112509
1.10820595907241
1.1900685642898
1.10857666834767
1.12017364764935
1.13878523295818
1.21094712096331
1.11210525391221
1.25082571719182
1.16807780861768
1.24055865737497
1.12681471603544
1.2001668448336
1.1030643941941
1.20304456835576
1.17201236723987
1.09717801771611
1.07869428073587
1.23839734329697
1.05862427829725
1.21024784366769
1.04821068030082
1.1573141267976
1.08784795703366
1.11907168634443
1.11754903847159
1.17597947756971
1.10496238427979
1.17966401619252
1.0994417071843
1.15600994737447
1.03465616428416
1.15472769163711
1.06685048184745
1.10700064838367
1.05324339792232
1.16055220636118
1.0587593574964
1.12498674025572
1.06320855499864
1.13496248241234
1.07485288334056
1.06895594826993
1.05153142894623
1.10730278265103
1.05416934666007
1.1210603057021
1.052760473287
1.06002907010994
1.02880160820821
1.12101594518525
1.01857774385606
1.06638365701122
1.00043711316862
1.06365764354955
1.02936190071288
1.02845178407603
1.04326672056272
1.05638809296757
1.00451115416155
1.07036414097635
0.950143315830004
1.08608653558414
0.970512343355761
1.03968553487418
0.981966291819498
1.0200283326319
0.964940068607242
1.05545427521526
1.01799375459695
1.03500273820166
0.947580291516505
1.02452967631094
1.00162266113061
0.976676572325701
0.930539219893843
1.04099894930795
0.972451383881227
0.960629478576968
1.00208712833854
0.978616267151125
0.938654152545116
0.955560201893432
0.934365271340867
0.97394305449172
0.920538153639938
0.921756942950161
0.892998323607704
0.914705842778124
0.88671761622388
0.934359820251632
0.887904190106339
0.908239552294073
0.912099568459373
0.907410294085537
0.884455845221126
0.882269667302002
0.846779458495606
0.887182062056848
0.899101554528706
0.916140095687047
0.877171861975193
0.893627897635487
0.86080860835337
0.877151947620266
0.884271506748427
0.890481694654007
0.844629257253972
0.866516978830583
0.832091367291084
0.864719325112717
0.80679030080514
0.853576577548991
0.837091941381123
0.830340699614814
0.817634402832514
0.826618330669947
0.785578065602183
0.838090515013331
0.810371144863027
0.832429947177975
0.775758401972928
0.818709627744361
0.781902482279594
0.768446793905366
0.774780481885643
0.797388401957039
0.760574372256118
0.778539100502607
0.734435498522646
0.775774594610016
0.767274509278962
0.777560691771815
0.724701094688962
0.748785609816106
0.725437193982548
0.76006276198542
0.723635395988436
0.723399777849736
0.72886906278086
0.734145097786164
0.698347030055176
0.7243125013423
0.697326268052045
0.710214968603218
0.711003006770844
0.725347239232507
0.688847635797085
0.692750843955912
0.678457576557376
0.674729626506412
0.667921387217567
0.676392001788739
0.667423942901557
0.668511909919974
0.660035244852341
0.652544872951487
0.646736249128102
0.66037046347713
0.635071299126491
0.653844855188465
0.638479062055045
0.643616044300843
0.622432346057454
0.635201505738907
0.615490487943276
0.633852894238426
0.631456151251988
0.636153449065477
0.616626684826212
0.613336075205713
0.596266818432415
0.623213886324038
0.607455930080652
0.608499858519912
0.597777277433855
0.589178968434861
0.58362301124503
0.601629009447117
0.579714855068397
0.585056946535798
0.579370203407807
0.584400903886764
0.56923297120419
0.555369564755138
0.551287707213793
0.57246200446877
0.560447995649584
0.559390159065351
0.552049671552554
0.555549509158136
0.54287856711064
0.535172483297028
0.529775938339431
0.532226337439329
0.522343445814622
0.533129370317608
0.517122728677391
0.522911639949778
0.529386930529068
0.530876507059213
0.508716220369389
0.510689079171848
0.511135043471754
0.509016517933517
0.499159798535353
0.499933916030465
0.491479459959473
0.497501126687925
0.491027336340929
0.485263272964527
0.481612566180918
0.492386959462754
0.481669156617351
0.491412525873215
0.477086420482257
0.47966476230578
0.469234851972548
0.471894222551627
0.457951901934381
0.464312374022699
0.457576718472532
0.461608358568192
0.457938264824854
0.460826958254144
0.449750318997778
0.446200292570599
0.438505371240266
0.440834243319722
0.433137341467358
0.441975372228161
0.432018616553609
0.432430772567975
0.433215216568731
0.429932235240869
0.425039002555326
0.430267710255807
0.416078051895216
0.423611950127125
0.416023954706647
0.416231160522563
0.418850120406814
0.416150331502037
0.403105385343535
0.402312371532258
0.404561545722021
0.401167528105546
0.395139595008241
0.397675794907282
0.395110457380629
0.398878683075653
0.388817800497005
0.393863180899859
0.386869042557357
0.382523680016151
0.37910897680205
0.375150320319073
0.371317470975473
0.376612308152361
0.371703531556994
0.376042662955494
0.367869246098407
0.363701198361307
0.36857809014319
0.37181633372219
0.361910947315698
0.361739946084821
0.358301800778702
0.3604219361136
0.35477752632729
0.358906852902419
0.355025612421781
0.351292330649351
0.346241294999398
0.352060796221504
0.348556239367331
0.353178172026865
0.34439908733883
0.344961572498125
0.343648067255151
0.339301750888227
0.334089556175902
0.33859128927678
0.335545720833463
0.343074684685398
0.333659454765827
0.334234566848063
0.337015627024131
0.337705220559823
0.330119446292302
0.332970986947572
0.332554363055805
0.337078101032618
0.332232644284409
0.327349614037748
0.318683394030784
0.32977341141632
0.334940463510842
0.327234584699721
0.3214710193508
0.330173795000847
0.326098224337538
0.328366636839855
0.324219705367248
0.327311300888755
0.325454797193002
0.331180344201584
0.328699460837084
0.33060255135068
0.33276269140642
0.336056812854684
0.331627560847067
0.336645023703978
0.337323244871489
0.344478198619724
0.337866549787769
0.342798232816399
0.345828756984406
0.345927368170417
0.347847219272826
0.351039867533958
0.353362652901163
0.355001349218248
0.354731239749364
0.360475326501083
0.359825211181736
0.363156580589488
0.364216565591578
0.372415037874913
0.363935777263459
0.365165646860672
0.371593623666829
0.375505642315588
0.372855933129479
0.382976808629726
0.377198739895575
0.378990465519524
0.383273345924008
0.386606186477432
0.390861730165662
0.403315259297918
0.403776689865707
0.403046184518281
0.4005532074396
0.41292499775104
0.409075581643843
0.412547926316772
0.4115851990964
0.42367243274137
0.41682264085266
0.429767539449845
0.433545652735789
0.436941643255873
0.444782287909697
0.444290180383442
0.452361616854984
0.454172707810226
0.450013279467469
0.462529396567282
0.460462310770641
0.475844992747374
0.479860197880743
0.481787162498943
0.480809944432312
0.488584363282825
0.486199162672904
0.484164081606033
0.485539379115729
0.484429716027459
0.488656615088331
0.497348389225722
0.494686864100779
0.492977250071326
0.493531037967881
0.499057560176226
0.49821864847965
0.50743080220066
0.489956360936418
0.49999012798066
0.484934750969364
0.492206640072151
0.501642800893277
0.480912292863655
0.490493249412471
0.49219863001621
0.480903531167572
0.483355888786406
0.479849778641939
0.484272829554641
0.474444052215588
0.475658328152266
0.485686251926446
0.480592332034121
0.475685558086068
0.481391329663337
0.475141595732543
0.479878520929008
0.474486480665652
0.484824317840182
0.48219198304981
0.476391116954961
0.474170667004139
0.483716597844843
0.481772837013132
0.475069416387722
0.477949710437122
0.477520071927997
0.472977751167337
0.474410503905191
0.474103850762933
0.481788880201258
0.479375019963326
0.472029543364061
0.462545174756911
0.468852490016195
0.469288648445613
0.47294403414036
0.467766095017795
0.466746045003764
0.462141199906854
0.463786954638138
0.470453700555324
0.465013506641745
0.455205193603961
0.457141003086013
0.458701373692704
0.456953581549963
0.449436655091675
0.446917386727007
0.442188802639592
0.441493812517417
0.443177228349383
0.440889786965706
0.435583324772452
0.426799906860579
0.4224331152948
0.430700371060287
0.426637181349421
0.415718846250879
0.416644701309721
0.41457667878822
0.403955993303393
0.406254862569217
0.399267466158865
0.400596567987269
0.389410028661408
0.389888384603027
0.387776677637823
0.39355103879732
0.387824586993423
0.376515966721851
0.37340370672995
0.374797373717262
0.373457395133592
0.372017239322177
0.364487712456167
0.365688983367958
0.354847563853921
0.3551668136584
0.35528609434859
0.348849978270406
0.349600499132978
0.348395287371144
0.34613632119699
0.341999388527766
0.333139204322297
0.33182109487117
0.339746705254648
0.340278068298819
0.329906561322483
0.332128577836298
0.330531679060644
0.327946226291853
0.326232186989312
0.324368433037829
0.318230205723427
0.317585883899537
0.314653404580604
0.31445266987344
0.314415211510546
0.312875500909381
0.311167295690203
0.312898182166325
0.304783247318865
0.30530345536932
0.305090211859618
0.30137527520669
0.303417980056539
0.299159275091969
0.295256657176308
0.292067440889771
0.29200935885466
0.294474332785625
0.292121013275562
0.293114178564756
0.287772458497909
0.285150017704346
0.28517056572405
0.288239490729747
0.281671493696892
0.283707215979675
0.282849628287315
0.279926789058131
0.278363760876552
0.282281196602768
0.279533655902291
0.276419725593958
0.272253766692192
0.273648189482091
0.276381737475718
0.274017894110434
0.270848296020393
0.271875976265673
0.267124701458806
0.265840092808169
0.268820133050607
0.269272203693103
0.264498689869424
0.268804225322838
0.263759574982088
0.259651525353885
0.262294207663549
0.261823334325031
0.258929025268588
0.258066187312515
0.251127222136016
0.255988762693989
0.259099687964967
0.255002460352857
0.249320869474733
0.253825184644705
0.257470896957956
0.256751215962272
0.2546575744316
0.24925829403135
0.244670884392392
0.246350037908663
0.245329987328391
0.244957830412682
0.24815028076332
0.248194273712332
0.246962859615918
0.241785658530307
0.242518563170685
0.240239100302879
0.245394463659648
0.244178469635472
0.24084847316929
0.236113189972515
0.237014195967044
0.239820490673838
0.240040400269345
0.238433236564241
0.238031434786287
0.236319755948993
0.234798294880484
0.234020088378833
0.234100029905681
0.240544886755504
0.233888639631568
0.234124810542868
0.235064826139855
0.230182311908954
0.234765860944994
0.230564219596812
0.232956675049178
0.230460448537463
0.227167626599729
0.22565851034472
0.232586302993064
0.232444029251912
0.228398127390789
0.227011146306187
0.229688032149283
0.225147830071403
0.226315563049082
0.224833172584534
0.22568223588636
0.226764540020538
0.223573180150126
0.225329574047164
0.223555775235601
0.222816018690946
0.22577902422339
0.225426373166472
0.22052630666116
0.219880100561171
0.225960874178589
0.221512236435833
0.221808425099046
0.223267345634037
0.222787109829063
0.21870939969968
0.218827608674038
0.219910094811815
0.218266002706217
0.219931057445613
0.218712534300977
0.216031940523524
0.214483541037891
0.215618522519455
0.211950617753343
0.211161782368127
0.21482648893926
0.212170264579682
0.214473626853779
0.213155381210207
0.211261438618769
0.210504904060912
0.210804028597359
0.211362542012672
0.209397652557925
0.208753136947754
0.207735549479998
0.208467773000351
0.211129493138895
0.204392679634406
0.205319840502092
0.205292635143356
0.203603422942821
0.204347463910549
0.205477530475102
0.205458840022247
0.2039721522899
0.201554240849639
0.200864590456187
0.202633872900346
0.204416996350773
0.201843260739043
0.198315822797424
0.195568832145654
0.200046749677832
0.196787852709539
0.200502297300414
0.19929955730396
0.198475737316957
0.1975907619923
0.192841175712915
0.195579334374431
0.19581400010728
0.19279892775299
0.192081822271013
0.191216690785631
0.1913228132571
0.191487773984362
0.192525227669002
0.191693609766683
0.189698819000887
0.189315516509999
0.189659098315033
0.188075067482484
0.187100188350421
0.188742445591306
0.186445064330445
0.185013075689789
0.181816709153296
0.179726670173045
0.179748725417072
0.1812221235798
0.178744568494047
0.177601832032933
0.180340024208852
0.180949166568273
0.177037397563076
0.17801788967721
0.176631223458505
0.177132968168455
0.174286942848189
0.17373482567924
0.17577292626091
0.170405231413143
0.172079196174848
0.170024741164419
0.173254920550112
0.170771499205456
0.167769523240441
0.170031062819833
0.167649450850524
0.168179725229009
0.164487215651842
0.16727157461277
0.165448788830197
0.16421334214081
0.168268022130242
0.164386468198133
0.159304396831111
0.160406716733116
0.158591944316279
0.163915921227988
0.159065982431659
0.157309453093429
0.156337604729607
0.15670347160461
0.159733618991066
0.154911242428348
0.158282911670968
0.153032164164776
0.154057402074351
0.151582739004476
0.154523639036398
0.152411708068135
0.150522816925375
0.147929856513406
0.151338989647614
0.150166940602648
0.149008404053925
0.148846024541604
0.145722244548996
0.142286883884171
0.145564137165266
0.148827987172209
0.145180333130685
0.147155731630083
0.144690595581424
0.145338011414409
0.143771802078958
0.144476532976761
0.144448190352801
0.140116260798031
0.141284433402547
0.138888091202889
0.136008295529789
0.141025282698923
0.137317427167519
0.133992356755931
0.135985536502536
0.13920123186544
0.134945399300428
0.133931396564862
0.1349069494436
0.134285712509888
0.134179963191449
0.132164190812478
0.134316995875853
0.135894328099074
0.134351247553968
0.13250738855127
0.132785425026524
0.130307453930685
0.131782876702526
0.131551924867145
0.127583329319731
0.131754154193761
0.130640059807605
0.131653331779149
0.129657230478986
0.125760759025346
0.130837914520671
0.126803076302854
0.127641270466084
0.128947514164436
0.126283919831236
0.124998400678643
0.128679615642285
0.126540628508321
0.127505640900279
0.126050141293003
0.12675065267957
0.123976754020996
0.1248824931495
0.123735264792137
0.127573690292927
0.123503460978348
0.122958031851833
0.12310780164227
0.125028992881358
0.122464126403545
0.122488559982024
0.119354174628188
0.120999109391708
0.122683616971856
0.124076327346578
0.118329014684294
0.119573041093646
0.121464782996538
0.125000666704169
0.121105086437272
0.121440108808735
0.12036415454619
0.122745569849687
0.117755258138254
0.117253412360452
0.116083448359626
0.116535889603899
0.11690107878064
0.116837857471203
0.115241209832221
0.117353796056703
0.117145802935027
0.116115664018376
0.115347430147764
0.112726146835139
0.113516152017513
0.112831593725317
0.114952337922286
0.112649914457413
0.115758643255933
0.11142325677346
0.11424191989695
0.116324184508668
0.112886665210075
0.108520937379871
0.112477132688258
0.113105088966415
0.114522424053099
0.11321933481519
0.109662741616353
0.112053769876688
0.108730632155978
0.10703503047137
0.112715447874937
0.112833274519957
0.110617248751519
0.107113310773641
0.108032831043839
0.111430358404183
0.11166606909365
0.110455454731579
0.105920425094046
0.109010214417939
0.106968010635407
0.108794992247816
0.105445818031905
0.107038964657075
0.108912346376516
0.105832956414425
0.107391333260189
0.105639418382831
0.105873222160503
0.104839006087833
0.105891693596578
0.105437025961889
0.101733646624319
0.104869567143623
0.100000840505199
0.107141951291403
0.102938082485624
0.108625891653424
0.104464426527864
0.106493051407152
0.100550328210898
0.103713780804219
0.102819153429876
0.102267652766581
0.0998146461815799
0.0989276411685209
0.101249835150621
0.10258555784614
0.100853850050562
0.103258017606463
0.100403125119545
0.0984930226533423
0.0969259604669586
0.0968678379842498
0.100223228277543
0.0969040990863046
0.0978475013102157
0.10016258750374
0.0975400906078101
0.099093428743898
0.0949257522034547
0.0972946132699201
0.0926189599025
0.0941324124692624
0.0951504418662112
0.0943640912033482
0.0961409834292048
0.0956119442971147
0.0930870984445293
0.0915537567994044
0.088796946757603
0.093288408875593
0.0909508558980307
0.0906114561181438
0.0893281690356709
0.088753657522352
0.0897413944041407
0.0849916954628452
0.0877244921351108
0.088540233088777
0.0894439310670295
0.0872724459255339
0.0887842041703546
0.0898680496611997
0.0864783053412297
0.0836302377964565
0.0885616646508611
0.088877536407032
0.0840765464527308
0.0868921489430435
0.0808896299319922
0.0861358474102287
0.0818203957843993
0.0842932569754448
0.081680886194684
0.0819066063460494
0.0797421728776687
0.0843621091978541
0.0823576143234889
0.0808403867331772
0.0768657855466072
0.0796512627490315
0.0782255553077753
0.0799930036896976
0.0805631058835219
0.0798674023267267
0.0794520176034506
0.0781811311489337
0.0774009146034948
0.0783534422194744
0.0788939114068566
0.075408883579189
0.0754803368668756
0.0798166678525142
0.0744224958408222
0.0787261643868404
0.0732257158238762
0.074410743977043
0.074051710104513
0.0741716429306821
0.0696089500016239
0.0753279845828981
0.0738496472169819
0.0737872209023066
0.0712685854549794
0.0737719956856676
0.0681818394411173
0.0716930379320992
0.0717652004858442
0.0705038858541782
0.0736783881621433
0.0704729543806064
0.071681569030126
0.0725751861457406
0.0708435124539134
0.0711326081070924
0.06856125309667
0.0686479810582553
0.0667817464411711
0.0710421520246039
0.0686474226735229
0.0684578606979958
0.0678373495562011
0.0702547787574292
0.0689749166569595
0.0675565723130637
0.0678037316170446
0.0676369326360922
0.0638256250000686
0.0670880720789586
0.0656964294321394
0.0666844658999005
0.0676076333295771
0.0657203713070794
0.0664180190627374
0.0681116557906312
0.0654098873682087
0.0668985560404375
0.0647433995760405
0.0649715674370681
0.0636271952162912
0.0655445215573844
0.0624186229206061
0.0642860439288505
0.0636473904321172
0.0670595765375333
0.0565594578694104
0.0672286582361615
0.0609109881269316
0.0667285787012506
0.0630450737894869
0.0625052721392075
0.057879743561022
0.0593812531232401
0.0586725536184196
0.0652903398888047
0.0561666175649745
0.0615710249940389
0.0615629182959561
0.0645656185091295
0.0506096375372774
0.0638900945795889
0.0559388810691867
0.0620507577612435
0.0564793032092649
0.0593788110163697
0.0548600894940457
0.0611246620935698
0.057148493701132
0.062952581320359
0.0532991323634723
0.0616449840267621
0.0547854388451243
0.0595156104366618
0.0522294593981496
0.0597449342040214
0.0530996277759689
0.0610618398286046
0.0504570341766803
0.0589277787146606
0.0502933741270625
0.0552507212898428
0.0530971600225468
0.057706041279664
0.0514986641316917
0.0609069626729564
0.0599675680669955
0.0651078863256886
0.0552886965065425
0.0547726085042923
0.0508584089307162
0.052595819395949
0.0579086048763955
0.0575988914161373
0.0596792611862201
0.0502883340752142
0.0590504424867716
0.0501496205717352
0.0672589985238541
0.0490434636651398
0.0658061690646883
0.0450171996070436
0.0694196489431799
0.0421552283791017
0.0723664110050496
0.0376227373998058
0.0729324581066557
0.0413708873631642
0.0650819701961406
0.0447670748197899
0.0651078736752442
0.0464935267126838
0.0605361411036603
0.0541142159749378
0.0538262785267464
0.052686328576922
0.0552286612579033
0.0561065072991642
0.0532119464105724
0.0564471230619779
0.0550435977548203
0.0504341923860204
0.0566410067575109
0.0512300647940487
0.055966138117119
0.0530981332439851
0.0546648724592446
0.051556981304549
0.0554398922255569
0.0557853041725054
0.0561295363107418
0.0559663600244205
0.0554333035376472
0.0522310930985245
0.0533223048523697
0.0531598748570504
0.0520239853527692
0.0541072403483105
0.0551550403267141
0.0552283677392649
0.0568038909602209
0.0523550031154186
0.0539258380643828
0.050862131231983
0.054421210886081
0.0546336029597114
0.0546833989610562
0.0511709576575622
0.0566059698495859
0.0532989400758701
0.0545089070255825
0.0517750517553654
0.0539931460957462
0.0523169214317662
0.056383428159935
0.0521241738911649
0.0537311514361156
0.0533746649876532
0.0549248409376266
0.0557414336811324
0.0534781241644536
0.0520058276204889
0.0544033607925479
0.053691258480227
0.0557175610019758
0.0533611725509479
0.0530603948698166
0.0525209632347788
0.0542248665108603
0.052904714763862
0.0544195466892785
0.0560112608950972
0.0548975452512063
0.0539295599770125
0.0541741775801149
0.0534621844708047
0.0558749334552077
0.0527401616341577
0.0536333682315162
0.0560047292826509
0.0528732865185109
0.0503710045782926
0.0543156936249602
0.052602231525375
0.054685409783944
0.0554092738025255
0.0558692903600691
0.0554023981951636
0.0532080276679717
0.0542099863085269
0.053553726286238
0.0558658345696375
0.0538605738471156
0.0533935916699067
0.0560374792628949
0.0546317990496269
0.0559876406764658
0.0557297029073194
0.0555165970173468
0.0560873799811498
0.0548875650411323
0.0547450203517063
0.0535609227309357
0.0525038963991359
0.0540043040135395
0.0543588647717726
0.0559416283473559
0.0551925211557825
0.0564274849631814
0.0534268246967218
0.0555373888452147
0.0564166083254792
0.0555765668762909
0.0549091618484582
0.0564811740920799
0.0573332393809444
0.0572237712480082
0.0557925525274228
0.0563661640695484
0.055476143444615
0.0578423943602744
0.0575591922649473
0.0563894885898946
0.0565841206781889
0.0562020758918152
0.0557422412353784
0.0586642556691331
0.0576795074415219
0.0579982770915497
0.0576768865741188
0.0547602241653241
0.0553580934207883
0.0593596510150701
0.0596598501448638
0.0561779873960499
0.0579368350475876
0.0569229772179609
0.0572629960503203
0.0599530935152904
0.0569087413813947
0.0587456358385201
0.0571951220062388
0.0578587285662256
0.0592156733278721
0.0591657903436411
0.0598050014204749
0.0594362428701768
0.0589950585194009
0.0581399518424629
0.0607597291904114
0.0578450873173815
0.0603885649335661
0.0576391239473817
0.0593000102480052
0.0589224494056048
0.0599306608820578
0.0603663679899515
0.0604280154140713
0.0596127762995468
0.0595252396734114
0.0593684775842854
0.0613254386911298
0.0605154018202721
0.061313741941556
0.0587469026255419
0.0599361510541434
0.0605881938113618
0.0618078501106533
0.0595069285779794
0.0605379812493336
0.0590336974330536
0.0649550191870561
0.0639160284068834
0.0620182770251423
0.0618255552561424
0.0607320859782675
0.0619225912802377
0.0630467173468877
0.0612517607317869
0.0630038077634088
0.0615491632694689
0.0629949623122117
0.0656597529446804
0.0634736439382932
0.0611122519950833
0.0619059128119322
0.0620696240524507
0.0639907706770709
0.0636680387324362
0.0624474576978679
0.0616646114018126
0.0636767644780762
0.0636254478013079
0.0615169949235752
0.062369420762771
0.0629194040415231
0.0603632204813734
0.0592897320529065
0.0603699574550269
0.0629466947089215
0.0602368232588037
0.0609430357288263
0.0612356041609144
0.0596957424451335
0.0610995717144931
0.0615297944795679
0.059106106873791
0.0625869573100896
0.0596108886728837
0.0637564952456695
0.0607666013607302
0.0589939693679797
0.0620422784710041
0.0606018626766934
0.0609695547223375
0.0605053878069416
0.0580116759724683
0.0607357454451108
0.0603282892225583
0.0608697448065203
0.0609006784254824
0.0592574478752814
0.0613768210585681
0.0614657583265696
0.0606213961527934
0.0620462805710571
0.0605670147163928
0.0595184678659047
0.0617449200045269
0.0585626337533122
0.0605013969560248
0.0585580257128424
0.0602219013719827
0.060685321975369
0.0579216781580519
0.0611182222766732
0.0585368684040886
0.0569250364294534
0.0595596330491585
0.058108965448758
0.0575029934227207
0.0585998952355668
0.0574986232514032
0.0595603401668531
0.0570153745970522
0.0586758751002514
0.0572675875296115
0.0582305712909312
0.0575712759824108
0.0586223702219374
0.0575686614922793
0.056187192234072
0.0584927066009844
0.059089780218976
0.0569108611746377
0.0589026417261624
0.0599873920107559
0.0588972651077292
0.0561402766555405
0.0568212172297697
0.057218263394203
0.0583655594919304
0.0558066166895326
0.0579916842202932
0.0581974244058944
0.0575314490703483
0.0565770135876761
0.0589675218789218
0.0565346753731609
0.0571247758372398
0.0576604908779495
0.0580199019416453
0.0553970100531725
0.0557035926022313
0.0574069287633831
0.0572207594895297
0.0545507471042173
0.0606706539106456
0.0581295403702325
0.054848064859407
0.0563920003088691
0.0555577540784516
0.0601339597963369
0.0590624535646435
0.0557863921582938
0.0562207178080961
0.0549639730466477
0.0579869401363276
0.0553887980963107
0.0575456227429511
0.0555306623527423
0.0558796316824603
0.0555631612228883
0.0581421657755711
0.056749316261623
0.0557171286042748
0.0562767399762319
0.0542338101350396
0.0568544836116891
0.0569371058845968
0.0564046331857601
0.0546859303364977
0.0570472320830114
0.0564682971778552
0.0546579335666236
0.0567391289863021
0.0535120172401551
0.0560331411184571
0.054741075313893
0.0527747793846633
0.0526322791255519
0.0542662831366436
0.052918279030064
0.0526024460737355
0.0530202902299319
0.0534928590750898
0.0521655999187764
0.0517945988836637
0.0523759975190851
0.0525401337486779
0.0494648019191528
0.0517838749843348
0.053206450377776
0.0506187990911179
0.048235156494508
0.0512144635912793
0.0499844154611548
0.0511815807206318
0.0514660286195133
0.0529398328266124
0.0490065858349329
0.049072037705998
0.0479727431170417
0.0509504259069291
0.0500207049147572
0.0490296051300182
0.0481641910120314
0.0502087786910693
0.0481094972971105
0.0463804793102105
0.0462390430953584
0.046477746323737
0.045494869406015
0.0474152306365475
0.0452248482599194
0.0479880060729062
0.0470380791794942
0.0471187503556218
0.0455902311839874
0.0463183479985193
0.0437680626346888
0.0470751694609334
0.0462632838330945
0.0474930075991406
0.0466740370625907
0.0460190997219634
0.0464952656577683
0.0447214068179012
0.0450366604083409
0.0448639853805622
0.0431531145939126
0.0441536156236689
0.0449124545763989
0.0460511783128743
0.0442320970968001
0.0452432316611489
0.0469817552770859
0.0450792512883189
0.0440370807734023
0.0428799289988757
0.0448346801315065
0.0463597471966514
0.0444252261278305
0.0458251558302095
0.0450365428099644
0.0457638321561179
0.0455185922023399
0.0435932275700536
0.0460636746835332
0.043633597589144
0.0431239413175854
0.0449271236218267
0.0450151299140571
0.0449653370310911
0.0454282770966246
0.0442877271946288
0.0436548971979195
0.0441846907030433
0.0454588271610382
0.0440534493480046
0.0456420270138627
0.0440453994959155
0.0429229848909545
0.0444642958409527
0.04509441939368
0.0457166938122584
0.0426617746969739
0.0440289216778521
0.0439069948501781
0.0424195494568915
0.0437459433849049
0.0448182317106545
0.0428895641098234
0.0432170259255186
0.043901497823945
0.0457057926806994
0.0445519829530439
0.0451222656491974
0.0448895174391351
0.0504650727139821
0.0392932144656178
0.0461202805007998
0.041222988644527
0.0423824077961187
0.0423392392664851
0.0430060555269556
0.0417240560265391
0.0436599081165306
0.0404919829811384
0.0410270571626058
0.0418192513569
0.0438440555526314
0.0406160660634084
0.0429072447008691
0.0439802121612501
0.0453239377246979
0.0399325971090229
0.041236072001439
0.040060803672658
0.0449788440019413
0.0427559438315614
0.0419688228915217
0.0417994570303532
0.0447281283855409
0.0396452614519825
0.0463777034499253
0.0387007789526716
0.0413439313871659
0.0402504288101319
0.0417083616534522
0.0426392805907861
0.0433608845208434
0.042330430910272
0.0436864274199383
0.0458500232315073
0.039600314442997
0.0426704143422946
0.0417208257311625
0.0417196144171299
0.0411895167737659
0.0434528582932581
0.0411347456175288
0.0409996973375761
0.0412129281422139
0.0416526491752455
0.0418577924482083
0.0403588103027672
0.0431975237163946
0.0426838184399955
0.0431476056481985
0.0424435391884906
0.0401021511026885
0.0404831189610483
0.0404727913523881
0.0420809670218044
0.0448574494799804
0.047073116652497
0.0389740317699669
0.0423490702155049
0.040845228746075
0.0436364061606146
0.0403463174116912
0.0438337634898303
0.042484340548789
0.0414238200743853
0.0406893591804244
0.0408246137728776
0.0391230181402324
0.0399833052087159
0.0425632284697797
0.0412836998415004
0.0418617203770699
0.0385390655738251
0.0407401214980397
0.0387288298841483
0.042969553000791
0.0436115878285307
0.0470492706926637
0.0464665236068378
0.0430758592159405
0.0425195212117747
0.0401707573371799
0.0420927110151245
0.0392889697258957
0.0436749538651792
0.0395943424170174
0.0433520648633106
0.040702762979576
0.0428493398309237
0.0393720098228355
0.0418143537848424
0.0406900835226118
0.04190892711166
0.0411480844924024
0.0411792127598108
0.0394758790261371
0.0454386772624653
0.0395363176196712
0.0431293088853659
0.0412467646094703
0.0470923377852716
0.0405883571042925
0.0410036613401465
0.0404351919109614
0.0446873054170366
0.046811381342082
0.0394695836565655
0.0463795554936379
0.0405335545478713
0.0446712229478474
0.0423667945232023
0.0435312245346965
0.04411065206001
0.0421524685349113
0.042767263734716
0.0441806029195753
0.039197884730343
0.0406939489204352
0.0426794555407168
0.0459259950872558
0.0466647329768695
0.0432736702049298
0.0441206833532608
0.0447601217555171
0.0412727446408499
0.0509685812683706
0.0400323046180721
0.0445514401812138
0.0422552938992355
0.0419616451619023
0.0455788930685619
0.0452109034724213
0.0464644330156326
0.0473336855750053
0.0449740346196593
0.0414507494429797
0.0452780589844513
0.0436789151950699
0.0435618179125449
0.0443037148916308
0.0459268557648818
0.0468615988267351
0.0443562106299749
0.0460457006820198
0.0472546591277664
0.045429386144318
0.0474308293086298
0.0463674412580658
0.046496087736907
0.0462193316850086
0.049427285462651
0.0491414293909803
0.0484118387180423
0.0476436911829788
0.0472595938389031
0.0471641090030361
0.0483583130113249
0.0470564550006202
0.0512939527270906
0.0461453465715111
0.0595875687381515
0.0458801359319309
0.0565739986633103
0.0472453736380929
0.0503513463820632
0.0446520836568068
0.0499287346727825
0.0488959864473024
0.0525365039784082
0.0482401851492652
0.0493090778464789
0.0509574013008782
0.0492102185076797
0.0523948803928409
0.0500597499387101
0.0536906216943528
0.0495393291796288
0.051482110773624
0.0492232251072899
0.0561658057898984
0.0524201521599827
0.0657126023358862
0.0559465974623296
0.0504224600428113
0.0542437533768417
0.053380984993505
0.0606398592685269
0.0536272117297227
0.0552142435729202
0.0550860631237181
0.0517877832042326
0.0585293906744849
0.0559571625545072
0.063297775310432
0.0586966721809587
0.0560320851205436
0.0592979895573646
0.0601222337331948
0.0628139786756149
0.0587814565899585
0.058132668817367
0.0581770562871821
0.0595184122786844
0.0637916535399053
0.0610699614881557
0.0687015954598291
0.0581758992875214
0.0741105782831318
0.0617847539493193
0.0693209626885489
0.0624635134382118
0.0707738467738143
0.0679085145624824
0.0761606081610682
0.0653158126819305
0.0742410558277986
0.074979251672154
0.0791813297291548
0.0679690133711204
0.0783330395957194
0.0757201092255565
0.0832768562740492
0.0905863671146225
0.0858631677313801
0.0779282270287473
0.0843779607163729
0.0785177002689537
0.0864699037110655
0.085850287923908
0.0869779340488525
0.0883686579979799
0.0876469696363329
0.0918954991985436
0.0902987939938337
0.0906936445664122
0.0967739626402219
0.0926683044223626
0.0988027305066368
0.0965127308773619
0.11325156053154
0.104756069658629
0.107482413841657
0.102999926744651
0.105595601774843
0.101798889962633
0.101251205537458
0.10261612106017
0.103923261874063
0.107245631285977
0.107733850263361
0.109203771057954
0.113029612719822
0.111694976845959
0.11798602559845
0.112846673707205
0.122834887124701
0.111167298566129
0.123744683554758
0.1225502276159
0.145458299406784
0.127285716606079
0.1234478111935
0.141075445090211
0.13887138339193
0.14958619047665
0.135358171727328
0.145863381852423
0.148564815397281
0.153043179705788
0.155301722093708
0.162311868263013
0.164399386931542
0.169719557119094
0.170278189425683
0.17762216696459
0.186227381961066
0.208334539344036
0.188387992365339
0.196757559489437
0.195001499603726
0.208975944032761
0.210838077576719
0.210289309469818
0.209505567645215
0.228303441850138
0.229417983335385
0.253425503552066
0.230366468618114
0.241905369948652
0.247985757586877
0.259354657284754
0.264931423868088
0.266658791778104
0.278086458878708
0.266768428873329
0.279416674070577
0.280158171032235
0.292042309126837
0.293715140238135
0.306267178924552
0.302559247141824
0.30843900992266
0.314159678715774
0.311621057001682
0.319911707448292
0.319007387645343
0.322771897564333
0.327511133988711
0.339912126978452
0.382513618932187
0.368243150802946
0.339457426630462
0.323978059081889
0.33223791805806
0.3319956499907
0.346808988126423
0.343361579308889
0.349711254234892
0.344432086028014
0.335184476126063
0.343305855969461
0.339047859912045
0.340911579154217
0.341452093869058
0.342414956390025
0.341737942157176
0.342404707074797
0.350546507011424
0.338927611944957
0.379018548691076
0.337685530096731
0.341388367349794
0.338492562651297
0.3435940098688
0.341091084080384
0.342872160926748
0.338412074336043
0.343577793733316
0.328642506911978
0.327354189121702
0.329742316614054
0.334963453549037
0.325533852984881
0.312414110840114
0.314755427463141
0.307580903163471
0.302396106000988
0.307596236776553
0.31516999965355
0.310009123101523
0.290465767042997
0.287336536794762
0.283238663398341
0.281537968324207
0.279917878747438
0.278749147526046
0.278933812127468
0.269526283513916
0.268831211266047
0.268238653841402
0.264107306305687
0.260582095447486
0.263430846632848
0.260935222637932
0.26086861327866
0.254641451292974
0.255732493116812
0.253865448900705
0.253859418083295
0.250339407029956
0.24798142128973
0.24668723092941
0.249567175191705
0.245525339232801
0.242341301021522
0.240064333886735
0.244258634545511
0.241644970038509
0.241418195122872
0.235401179186722
0.240695712413695
0.235319769192557
0.232137795484526
0.232486739480506
0.231919738472564
0.233142726612779
0.23515705556554
0.230160995698309
0.230444082526268
0.22714076313693
0.230746747376293
0.235336474481963
0.23233886611891
0.22604966173411
0.2194594676303
0.229502520968651
0.220308224978939
0.219785931737723
0.221983573792533
0.227588410172126
0.220213029831197
0.208375806828341
0.212222765685298
0.215431534967084
0.213227048295093
0.215114028356542
0.213127173136166
0.206480859645094
0.216712388896545
0.21428936034148
0.237374846466252
0.218093849386077
0.232283928256743
0.203088487342524
0.20860340254156
0.215377575870345
0.213561653263469
0.203392926246245
0.201030402521905
0.211701975707236
0.201571613232929
0.209957112684478
0.200209706821156
0.200562611381829
0.203415040261883
0.201667350489674
0.204776056329296
0.199366319757936
0.209817403012711
0.204145179345691
0.205879021964933
0.207508717491591
0.213608541929442
0.192184260620887
0.187780042759062
0.185870786541427
0.190000993107169
0.197688168589724
0.188003491990463
0.195236679784419
0.187843120794131
0.181950401619692
0.18240194150936
0.190087375616767
0.18370553652178
0.184862928866037
0.18737460805086
0.176486109995556
0.183109139041017
0.176991330432141
0.197699881333885
0.187321270466455
0.188791023833904
0.172588370165612
0.182611177361796
0.182394148834827
0.183396489826669
0.180086863547705
0.172288177472071
0.173473007711568
0.177856632352846
0.174783398085253
0.17527333378251
0.171651205031919
0.182031507927909
0.176104343033605
0.190591922987738
0.191689310369901
0.172201672841455
0.166229770825073
0.168857668295301
0.17110018396984
0.175678159834182
0.168166759526089
0.180825772491724
0.168324978617542
0.176505674099582
0.180274714945226
0.189213296700261
0.180881871341071
0.180582774669413
0.18275562681197
0.187213467693663
0.187533178942804
0.209773218322161
0.192218115920937
0.198352023020351
0.192278719644288
0.205509143413697
0.207597908496105
0.20681086467682
0.210132293742505
0.216533730616681
0.218353954524598
0.225705116368255
0.230885710428225
0.235389386278663
0.239802946401703
0.251455467197894
0.257238448361345
0.26032344085462
0.267247560725098
0.268497458919582
0.297334452069638
0.288032333466614
0.292943953116186
0.295371507061299
0.300153052178832
0.311431634779435
0.315221340309831
0.323574644699166
0.329907580437505
0.337135591881073
0.33733495343
0.338868165592977
0.348132682598931
0.347139041245999
0.358310887996008
0.358404781867452
0.384704832409827
0.37475216644872
0.375045210813148
0.372668117276129
0.369062811873752
0.375113706047743
0.376991845981448
0.383056656541685
0.376804335629254
0.379321492586932
0.389494101289735
0.400465820748212
0.386402470038722
0.3931248061943
0.392080981725343
0.389191432267151
0.39445497683131
0.402283564925225
0.397761989856021
0.40428440279749
0.407568526583169
0.407625808855865
0.424675677624144
0.433164203855878
0.41591643737206
0.408221752625032
0.423984403984732
0.422346621393899
0.426286405737893
0.432426573530113
0.442160596564576
0.441095823758772
0.439267324959124
0.439240685396013
0.441740105201411
0.441095596531988
0.455698661235234
0.455318964063405
0.45766183809429
0.446713248359029
0.457835520719162
0.478207856609316
0.47008952033499
0.466267398074202
0.46000130304492
0.469075688601593
0.462583264738942
0.46836183418071
0.470792232248188
0.472378751274967
0.465328551003672
0.472866308008835
0.467880000549298
0.467147597526335
0.466104247212923
0.466279905418529
0.472401308426076
0.474067826557049
0.464174931623966
0.459069298176814
0.459398038696474
0.457244124433658
0.461431076065195
0.465237834095082
0.460145484523377
0.457382840136697
0.449279477189887
0.459546738611146
0.458625558663525
0.449775869888956
0.446710576481766
0.44542434374602
0.445644251642324
0.451065541543012
0.453201990511401
0.463009453660467
0.458976599121667
0.458492672570032
0.458106048951569
0.467543154957493
0.467239020965517
0.470763294327127
0.469944720841396
0.476402719455707
0.478809110182157
0.484191248160054
0.483907895117013
0.485458346615858
0.48716002753736
0.493154478156803
0.496637807530859
0.493323252762955
0.488126836827135
0.49137967933268
0.489455323652366
0.49930301803982
0.494944192907784
0.490111453390595
0.486421830982699
0.493556955559298
0.480261274769473
0.494410841272246
0.484384005126607
0.487555783419899
0.477321931029247
0.480595410055005
0.474855044760572
0.474645060966068
0.468168544697906
0.469689934468994
0.466256244290303
0.468895881221809
0.466821274148334
0.463313878418153
0.460645735547888
0.460739053959323
0.459108123553311
0.456810691365505
0.452952403998134
0.458918345671791
0.455387772497323
0.452515960475047
0.449971642463691
0.453004248327222
0.45261608838111
0.452457897992431
0.454136541981288
0.461039204690021
0.446884988120627
0.452384787947687
0.451953012927987
0.448765190634454
0.452773106429768
0.451808445929804
0.445184641655192
0.446461632198012
0.44769061340013
0.444188465554894
0.44460496174833
0.445671449244281
0.442930032982995
0.444306674259797
0.439379975994608
0.435763318013204
0.434872576366904
0.435110555910827
0.43275022897222
0.435379548016205
0.430026968240652
0.43093133272948
0.431143999718035
0.431425433489218
0.428408925489967
0.431169290400911
0.419566983618741
0.425151584836283
0.42169111043243
0.421259213132308
0.419924190461533
0.421586669747433
0.417548303245252
0.417665291350363
0.417333847059963
0.416304367797625
0.416223260956298
0.417151984132374
0.413804092552285
0.412545692982472
0.409094463621278
0.408465993799627
0.402144347415458
0.401847965679936
0.399140795498117
0.397619961848458
0.392026248976899
0.387915253510543
0.385971311769337
0.384272182764689
0.376724597043992
0.375183098428214
0.373679311428247
0.371911356204692
0.371582804355652
0.369914023132914
0.363665303143399
0.366674096874464
0.363317993836507
0.364400789126044
0.360949111891968
0.360511030607394
0.358464954973871
0.35894101961704
0.360419641983127
0.356312638565276
0.358651734743313
0.361607552348264
0.361578987966062
0.364007536539635
0.363326714531348
0.365810362747538
0.363798391094231
0.367780266633257
0.370749829890373
0.367983500980792
0.370446594112633
0.371863847795033
0.37436635788747
0.378132355114527
0.379420159574509
0.377517372085184
0.379732542952651
0.378743113917125
0.382704518563564
0.381806373395551
0.38408130081397
0.381322743522774
0.382064636489451
0.382660895160042
0.382582079544449
0.38527035103313
0.383851235608735
0.383453133963128
0.383809299243439
0.378883761979032
0.381407931601949
0.383970520252751
0.381361220019879
0.380050658854245
0.378605784737707
0.382310298716237
0.378033895217907
0.377184810496261
0.377076078036267
0.375047257660282
0.374618742267427
0.371796709832347
0.374177757749047
0.371894949837818
0.371880228362242
0.369831239874776
0.368514385525785
0.368269895138519
0.369292228799965
0.366874369149641
0.367529452924883
0.364372039627637
0.360515602771584
0.360117681412535
0.355515668196212
0.358619667286904
0.352226310372133
0.350442133310791
0.351300197434372
0.347467066668261
0.345530869892338
0.343214169451535
0.340156737236262
0.339544625287598
0.337103344043337
0.338321922731688
0.332723790220935
0.332377460218585
0.329902288360384
0.329783422176682
0.32712643621262
0.327091952671044
0.323673993574512
0.326574759203466
0.326639072211835
0.324926826815073
0.323745422103773
0.324451916535327
0.323231962783672
0.324979176056112
0.322954591372484
0.320914665407981
0.322367768108426
0.321938710076239
0.318439703413167
0.314470172932205
0.313384877870718
0.314736747566285
0.309222084113659
0.302876728488285
0.299942715297831
0.296732034122585
0.291437489007204
0.288103444493053
0.284278212016666
0.279527958941588
0.277835984063513
0.278432350319869
0.273061084401792
0.274498443558733
0.277648298522794
0.279981474496058
0.280451724324987
0.284532372876811
0.291850323035236
0.299108084705267
0.303743875057251
0.313693802772133
0.32406566837213
0.335390838129477
0.343239036349857
0.358903121740112
0.37225462473646
0.382284400839642
0.39860185615805
0.412082843566346
0.42829378711575
0.446411582060174
0.46617979364489
0.483549314497136
0.498609410328187
0.52256429173145
0.541668560336994
0.561613124455968
0.584852069664507
0.598965657692403
0.618957916678142
0.639131024886611
0.656861700322686
0.67128491935355
0.696480918725568
0.713688557020331
0.717638368420201
0.739126176526203
0.741869537612705
0.754825362955576
0.755288698892343
0.758130675985361
0.768898686587131
0.758671867738486
0.758250080127928
0.761138199424159
0.757430964195715
0.752644338053573
0.753385275684424
0.743881295059865
0.739530317538765
0.73394696935454
0.720971577890122
0.720439580918116
0.71887703427898
0.711657763674722
0.714416825246681
0.717218127789976
0.721228569747058
0.708893910135847
0.718321764020716
0.716105484117324
0.722727635933532
0.725861690773855
0.737560346622301
0.734147660279268
0.739954665128795
0.749993495190887
0.757184384014282
0.764890479257028
0.783391286977866
0.785983861717937
0.786884558361573
0.800885732039529
0.800040892764369
0.82250578398466
0.823960499151768
0.817425868749308
0.82301346096911
0.826036247434306
0.8317654952978
0.834399080344354
0.835401781051007
0.842324817340672
0.839789232671908
0.843268511533464
0.839845865782366
0.84689020222117
0.853888444774755
0.858859587509545
0.86910850583063
0.867570484912413
0.874505872846648
0.879205727949166
0.890537958089994
0.896504454124845
0.903530006182899
0.905412752995417
0.917498196505624
0.923601596156997
0.928555209181148
0.927294050441733
0.945184632134055
0.962600508180737
0.978534922750049
0.985654361654989
0.993903861261239
1.0143010303634
1.03487781249183
1.04737017646133
1.07964333450201
1.10624676081223
1.13521577757221
1.16138132567197
1.19093728179785
1.20170468296578
1.22237049390881
1.25541059008292
1.2862205775357
1.26943630720929
1.27806452876939
1.31760556247762
1.31396265294612
1.31351449519446
1.32881674070417
1.30753502513623
1.30646922992706
1.28513790254843
1.27312306509796
1.26189715302574
1.28162843077714
1.26424224703524
1.23535210445575
1.27866631516122
1.25759892115254
1.26361986711932
1.26043011663511
1.26476126100265
1.26405499241092
1.30198024267638
1.31262046287124
1.29097944397938
1.30111940441428
1.35231943317304
1.32452532948393
1.38197548087336
1.37317806582712
1.41239091008904
1.40310655995057
1.40855516209919
1.426924247488
1.4603632188796
1.45394203504029
1.49583797379892
1.47121672216456
1.50881193909363
1.52398869210835
1.56068206540997
1.55116552850681
1.58206023931867
1.58072752402181
1.56541852844544
1.59859926861203
1.669491179116
1.64687872068157
1.60422886978149
1.71111821291194
1.7247721351115
1.66988610893949
1.81324799762758
1.69351242663287
1.6793366261978
1.84247130867681
1.74135720186016
1.74053542801771
1.79885013235816
1.77123360321721
1.88218707873924
1.88163266942593
1.78386291636648
1.77676732846542
1.82864565830013
1.68196066581299
1.75854306491098
1.7379976177744
1.6572873510407
1.68774189841212
1.63387363868089
1.63395011596596
1.59055947567727
1.52636663054821
1.53880625795467
1.50921016750224
1.48580445201134
1.44301572613659
1.38424286334245
1.37020849984003
1.35769757490001
1.36347988848932
1.28520796504105
1.30009661794685
1.28590251044315
1.23675869310244
1.25479763233153
1.26454975954819
1.23040111562317
1.21293060529768
1.2149970404125
1.19489792021458
1.1460469977014
1.12568644030159
1.13128180273784
1.11476374614336
1.07843265455208
1.02897224424977
1.01031945271875
0.990565970204661
0.964335724364884
0.917844297763308
0.878950365555037
0.850763604415469
0.829154313028177
0.778987813783666
0.758257352183035
0.719181600414862
0.679668126711152
0.663998950151477
0.630183896372748
0.599320986416358
0.563434801457858
0.541623416738755
0.52042033123591
0.499560390465722
0.479570942642464
0.462978784340874
0.451639073901696
0.427382945026669
0.410851432207168
0.402284970126804
0.394630558127815
0.38061051668474
0.370867944566216
0.367649941202034
0.362549799386244
0.353373168047637
0.345390212480616
0.344403718620872
0.340096804931289
0.338766239212127
0.332473058830401
0.334373349042303
0.330050098632182
0.33934228190711
0.339911710413747
0.335961174911903
0.343407864004392
0.339796559618782
0.350093915582852
0.345927190478481
0.355073164057041
0.355279367804725
0.360349452361684
0.366099012724911
0.3637887878757
0.370159033384728
0.376797829201503
0.384868636607614
0.382682591671514
0.381680574849086
0.384761417534354
0.38927982119642
0.389308152757042
0.382493474998442
0.392428327052143
0.38933234299141
0.389638391604289
0.393351016448963
0.395296392300036
0.394813774190755
0.390879561418963
0.39572260139852
0.396902356128181
0.398243555837187
0.393801798783204
0.402010761866426
0.401223646872303
0.394490791531251
0.396433639204771
0.394142448141705
0.394078594493068
0.393112797803205
0.39038887111918
0.384332541768586
0.385866500165616
0.387504482634101
0.37767691105424
0.373165031018242
0.374954671596941
0.375062676489592
0.37194076012465
0.372913534861979
0.373310128616439
0.373284914294245
0.379248218442727
0.377511865618698
0.381727015571821
0.393515669428713
0.39159847767004
0.400793746460012
0.405846520688347
0.409318105481612
0.413792042493673
0.417599990615113
0.426196229837251
0.436504898420968
0.436803573439318
0.436817004361073
0.427715129489224
0.422116400746164
0.420341663466928
0.418534476824859
0.409057593674343
0.405109048050567
0.400621368688627
0.393944190819481
0.377320263030462
0.374775307080965
0.37638406279877
0.371881422567452
0.367111562691233
0.365159385993447
0.372097831216145
0.371076823234669
0.368961981721672
0.368596353405702
0.374309186365932
0.380912568058827
0.377089137823327
0.381853239204815
0.374830092675124
0.366980439046949
0.378229465624443
0.377693900104885
0.371186131409766
0.370895841105167
0.379955261061596
0.373572355329015
0.369883605120057
0.369761900274592
0.371248533853308
0.376315224413987
0.37264212658733
0.367777341695613
0.368197775763639
0.376249514934487
0.369103857102084
0.362107639910118
0.362734725290209
0.370301943058326
0.373883261517934
0.35879095875419
0.360427903318396
0.362498259074495
0.350549223258592
0.355996477439896
0.352954019100785
0.361976866539045
0.361981509172652
0.350837397722348
0.353087403607207
0.355498468234801
0.34228439133566
0.347091614574367
0.343019458847917
0.344505345741485
0.334034697305036
0.330452360744919
0.328706417078427
0.335228342540281
0.329954388894725
0.325518311855144
0.312658849110367
0.31062099677978
0.305423457664181
0.30289862040967
0.307449836642869
0.312069150941484
0.301212324890127
0.307079626315712
0.311612834190748
0.309449040438791
0.306428400286912
0.304844882922956
0.310242007842714
0.308660944837987
0.310261686386231
0.316911466666918
0.320248407758878
0.31965654925286
0.316794560894351
0.322878086505176
0.321378907350922
0.321673457761933
0.32283716738689
0.328013214953218
0.316102892386659
0.329049249215313
0.341005908579582
0.338185134518344
0.319389158941567
0.343718070158925
0.340267005502
0.348645911881267
0.352046625573541
0.367597999385783
0.367727028118024
0.375138699978324
0.383196864227564
0.386665408703368
0.392195724900655
0.39238279098608
0.399206018462912
0.412138457366042
0.41789899943373
0.435584193283248
0.451998763129453
0.463126177170364
0.472139918294101
0.460455204168293
0.489652624333892
0.4807308007686
0.484812176136958
0.515755281060771
0.509500724404075
0.51022878192215
0.507174972989887
0.524946843004024
0.497562215573757
0.507558845771169
0.516829718518998
0.51099270245933
0.518741170257886
0.520983055547872
0.50417991902994
0.53354518591833
0.519696860414059
0.522881956469909
0.523965597464686
0.515590193849394
0.516467444564328
0.541993257723016
0.528975359426564
0.517912598983671
0.53299088794499
0.520657201065528
0.512319346992821
0.524863305977773
0.514637620940088
0.527811421551847
0.525221977747306
0.515883449775681
0.497278044918385
0.496717986539441
0.51770900634985
0.528375944701513
0.495938491972664
0.491474564951954
0.472548141244441
0.493258128531123
0.481320897258299
0.462904775227136
0.474264590440135
0.454319314217594
0.467058650420346
0.4797919641436
0.461134300123874
0.474703810752105
0.480402583029126
0.481770097986293
0.467439051446654
0.479275134336544
0.476768427156207
0.484243623660112
0.465580171765986
0.486905006524796
0.470965415353435
0.479884379435908
0.502675902956369
0.47703385631771
0.488719790395851
0.514369939559817
0.463210214563109
0.498755322142902
0.486949400528778
0.473839484429365
0.510358029165269
0.579420563548455
0.535294556937501
0.535996647088576
0.524136920013471
0.498310826613013
0.529970630871831
0.586815815830877
0.543008246903361
0.561594829352419
0.580810939737338
0.54161309413414
0.526865070775937
0.580363270006923
0.552170170929097
0.526163405960913
0.58999053529211
0.633206450552541
0.577551651182791
0.646803866933985
0.641633053750121
0.632381733625902
0.615932170671464
0.694004996679052
0.632239781964155
0.7027103725508
0.65746874824237
0.648626448694025
0.555211154655631
0.556642301149261
0.574868668046308
0.619472857930029
0.693473626809855
0.662800473900908
0.608253872079134
0.627292382806837
0.608419912534883
0.583626359572839
0.57975198155931
0.601276160800385
0.547529541738105
0.695645557205334
0.662828641461274
0.599735887673288
0.546852695909765
0.706230336781936
0.649569914903814
0.564754875023042
0.526333388509745
0.551871456632167
0.646939454484149
0.618911668768645
0.582641242005618
0.675020689981137
0.58884186434585
0.546543342454586
0.547038384246246
0.639776301460711
0.63124002434789
0.683763774764101
0.505685110404172
0.554079121918389
0.678534703023887
0.899656097497272
0.931767172102773
0.709708246149214
0.667727447002253
0.974915435024027
0.526623297212511
0.690012300765109
0.907420109107456
0.735389214553783
0.687677430685431
0.652745169331107
0.65021705273933
0.803160467166078
0.836606746459708
1.38878369203291
0.71485474342553
1.01819056783868
1.51566133416094
0.696206012242163
0.691552195633274
