3596
4000.36533379555
650.420452594757
1
2
2
0.0586482268188013
0.0450239687738027
0.0531949376441753
0.0426043774174873
0.0460223088837289
0.0366093082286034
0.0488334481972603
0.0421648651973146
0.0483460570238599
0.0319599263438985
0.0463442667390861
0.0494422932268677
0.048232980967006
0.0365636794727036
0.0486248940508127
0.0451841954542625
0.0459616751019723
0.0361593322584545
0.0511219825490667
0.045550315738097
0.0427339757948245
0.038892247387875
0.0570281032306005
0.0327942089245588
0.0360846803504818
0.0418225982705387
0.0487632154432013
0.0415631116141283
0.0463131430811792
0.0360145005740707
0.0518537471964679
0.0433256130979965
0.0420701905712914
0.0459197613143101
0.0427144807793087
0.0307176410503147
0.0464623307175363
0.0493150779072632
0.0535024775526131
0.039329629795327
0.0480934196543615
0.0433907778698236
0.0462718785911782
0.0420266787809787
0.0416049242649854
0.0361000169372384
0.0399430800062922
0.0404569533032668
0.0497974900365707
0.0373788769440139
0.0475330172347979
0.0459609715393099
0.0465934038154729
0.0402423064990616
0.0398135222494659
0.0414493017795545
0.0343744936702745
0.0352946041019667
0.0436661356307211
0.04670321231218
0.0437905059418891
0.0390544650880636
0.0459772381061404
0.0349341299027081
0.0438840519123087
0.0328554160388682
0.0424077207467561
0.0406244483789101
0.0459478419072641
0.0418056256040944
0.0467046470227302
0.0479107477025542
0.0495936887125511
0.0293034312623522
0.0533110493734663
0.0357754261059384
0.040071420123301
0.0285012702943159
0.0382537052673314
0.0295295284017389
0.0462892896766513
0.0328226543120994
0.0472713469881007
0.0370744839770806
0.0405872805537421
0.0343008885585585
0.0487788333282457
0.0237782842937587
0.0494222560427091
0.0288244182324818
0.0404995636211248
0.0335485576793304
0.0412069011991274
0.0341231562963637
0.0435641003675089
0.0347919888115888
0.0428150651517477
0.0307346684146431
0.0478988521203908
0.0246680079554772
0.0508363494192763
0.0405177013721527
0.0514138441002372
0.0417622031509817
0.019757513039258
0.046721197148448
0.0305919044774536
0.0394488347484394
0.0433941168473892
0.0311138051251191
0.0440713073161895
0.0378915965706164
0.0358048751615496
0.0260288038599602
0.0462131577968717
0.0310078255187114
0.0396248090165901
0.0299494165352128
0.0397392908033053
0.0248309425597561
0.0544105806453698
0.0279127902485265
0.0504625753226354
0.0263159708959631
0.0432261391214482
0.0350632466792198
0.0464102724514557
0.0293449188299325
0.0420756744568879
0.0326773311183083
0.0408107128308628
0.0252962276779559
0.0397442194095406
0.0344310051359327
0.0506052493225387
0.0342023598812369
0.041003059873702
0.0418536494165639
0.0287447689819381
0.0191160626972496
0.0329022859594371
0.0267153863139624
0.0419194916157066
0.0389435399953188
0.042350423795113
0.0255265810298427
0.0447840550449258
0.027791878665345
0.0302557609660495
0.0183882151722365
0.036056786859925
0.0376214424392994
0.0336434477575338
0.0301611494002912
0.0540637431306507
-0.00216152441257569
0.0589329870317604
0.0298752442048871
0.0385670301865337
0.0378822433195656
0.0280930818906355
0.033544962834005
0.0286845164046204
0.0369721942567023
0.0284448332067491
0.0411016052450294
0.0304131271196567
0.0318570248644688
0.0402811539594368
0.047857394987146
0.0381217496265845
0.0327394397699194
0.0556596848382515
0.0191856744446556
0.0342286664349579
0.0149390952103557
0.0399540557441851
0.0263633863176857
0.0392180419805993
0.0328270360050457
0.0326536653728209
0.0301118036930137
0.0331572974761926
0.0349116686266505
0.0408897750517434
0.0228452563190062
0.0388366412762566
0.0316314984526904
0.0376322376241166
0.0388216795930478
0.0426310976580732
0.0207083272500879
0.045686700680801
0.0332625761038421
0.0336381893504759
0.0441309508891252
0.0326378602157703
0.0316526661677962
0.0232810058649895
0.0297662282047258
0.032086704232351
0.0260605027204013
0.0333441365770912
0.0275125726888667
0.0326217255158955
0.0366609469681313
0.0358864233549834
0.0365153240813982
0.0324369619774416
0.0349660634506148
0.031654742879749
0.0375899900235654
0.0348607722865178
0.0394252973911952
0.0328941541609338
0.0351835987021323
0.034639704474823
0.0379267259898547
0.02984710319933
0.0296407170221033
0.0325917534080293
0.0288395018242055
0.0411184980970813
0.0348792835511354
0.0326176843756127
0.0329633277976346
0.0353878768517982
0.0355853718720047
0.0352863580850529
0.0377562937517021
0.0383459939408358
0.0382307183471493
0.042175961626362
0.0271430917867143
0.0472596579526813
0.0413586016778401
0.0458713522519345
0.0302686847697175
0.031416075543188
0.032501061163411
0.0293083660944666
0.0316823188896728
0.0366455306907457
0.0351313324026118
0.0360514084282289
0.0530323944847936
0.0264126472117755
0.0367467855807571
0.0223215298591686
0.0509133186718686
0.0318851652449175
0.0481710536089232
0.0260522651898474
0.0396597418636776
0.0301149735683708
0.0473694308244782
0.0358804817882521
0.0334287325352396
0.0418732435017034
0.0503567299276764
0.0279078852651333
0.0323121951750854
0.0451649612587155
0.0480541007332859
0.0562634136455116
0.0226421408332179
0.0580365204454677
0.0419578992968636
0.0249508107196078
0.0425482126743443
0.0365870270835987
0.0447941239013742
0.0443703030039141
0.0275195527892818
0.0443125882737829
0.0392705928448233
0.0461418767222104
0.0345623021779897
0.0448623543341625
0.025768198229434
0.0511344406830852
0.0546853141110149
0.061960474229285
0.0573273900240213
0.0147699999054829
0.0631848018216091
0.0290333275783065
0.042564490904205
0.0321985019829047
0.0346367440254726
0.0359065181878031
0.057255674994442
0.0377168211958101
0.0466741569606828
0.0351309614538602
0.0431993346651488
0.0454186967685353
0.0346574969746934
0.0411163665809694
0.0409035226455142
0.0507736695285487
0.0456455434881181
0.0461994332187951
0.0421653638587561
0.0510120670912913
0.0420455210728022
0.0527035841821605
0.053770296460415
0.0387649041329522
0.0465529375294795
0.0517664366221216
0.0417570915651038
0.0485882461241835
0.0429394318015617
0.0439709346609585
0.0506909819813057
0.0482847460881541
0.0431407916425492
0.0592215565637597
0.0444989706180285
0.0477764163493567
0.0477031640854937
0.0539155895328145
0.0477909659294252
0.050020569166068
0.0545713409971017
0.0571371598165926
0.0549031109230179
0.0452222484049
0.0632971912665665
0.0556090654867544
0.0510458650594144
0.0752294947356671
0.0440915534270528
0.0593411650948478
0.0553401410547233
0.0571390463685367
0.0635640357063137
0.0543675984797581
0.0620144321879706
0.0574895454886945
0.0644749172217636
0.0676060718236855
0.0589861511368207
0.0671278512670935
0.0754239368829652
0.079266991387189
0.0871546020005515
0.0552864711449546
0.0662914476921719
0.061737239809155
0.0855260985181763
0.0586480982078135
0.0710226346842659
0.0662933437730616
0.061477419063324
0.0895640387574737
0.0761208458291437
0.0794868277905537
0.0813559407828856
0.089064617642657
0.0781773175969786
0.0885809434371971
0.0895048510817947
0.0944494408977874
0.0937795951348193
0.094020335250542
0.107157057617508
0.0978580441565515
0.103955836351692
0.107580989245611
0.0897958205767592
0.118624999939382
0.106314715798724
0.127208693441757
0.105785639545966
0.102894224273606
0.141411620658175
0.101892098856655
0.119272953949679
0.108966449111291
0.125075189241474
0.121472093301381
0.127724594809448
0.124005366005635
0.137169622198874
0.129069254804845
0.150090003631018
0.136088755759344
0.152876808822828
0.137174759510339
0.160479473302367
0.141092244209722
0.151564010966495
0.14328282331368
0.161586542801206
0.150350612423599
0.194545412101924
0.146416482560587
0.159460217998872
0.171539401539378
0.173895246703569
0.171450375876879
0.168315146489225
0.179767038982599
0.176750328893605
0.212436497112981
0.197692145053053
0.190406848634393
0.207583630600743
0.183391748539539
0.209789541247014
0.196754248789139
0.208254410132006
0.221974903352441
0.223866575012141
0.205659612615435
0.225902829631333
0.221588533285542
0.226280529139426
0.242821732863428
0.22008469201465
0.238006574431293
0.224510502466058
0.228480608237849
0.25063579232753
0.244217493570318
0.261487662524144
0.244162009017204
0.251237870152916
0.260515154643165
0.268730508406334
0.271744201774313
0.282132347976208
0.270720520617832
0.293638329825387
0.270052213840405
0.298852897114149
0.286042656885616
0.308190885276621
0.325818258980547
0.319088298346122
0.324013816162192
0.299099047707699
0.296757799330433
0.29949135197286
0.303716165862781
0.334011141343468
0.337247373420848
0.349232731280389
0.347969225551217
0.356413298737584
0.348160029768969
0.352161806892008
0.365057406565436
0.378653250678007
0.336376775196933
0.366330489762038
0.367350630645778
0.392837736745431
0.36950082598138
0.40591698140364
0.416526332549585
0.417107894878277
0.417290887972202
0.400805646634455
0.407054744744837
0.417164750946754
0.411270605053779
0.425429968565286
0.43791146164765
0.437887711733062
0.433944451389744
0.456154439895287
0.434231812875459
0.442448213998589
0.457443508339458
0.468083455504966
0.45221490512577
0.480471459045565
0.476465401074228
0.478024269908599
0.465060374435188
0.517004675549666
0.516855576791274
0.507924071169666
0.505088472540376
0.527083182813545
0.490243311618635
0.507178399078092
0.522139841293036
0.555895032253326
0.525476063924455
0.555369841877531
0.55665286669449
0.559159451234856
0.54072751018079
0.601793335136659
0.568267937250825
0.581222045208085
0.577773792883152
0.603113895807135
0.59045300614967
0.645251733383693
0.590091557304505
0.621623149911659
0.608722522175372
0.642378016301202
0.618632607715627
0.658688941192577
0.625953547335283
0.638571760140947
0.631195007888707
0.7011618744577
0.626582215202214
0.704934186363593
0.632122828099774
0.703171228923017
0.698373001737422
0.684107128692207
0.667909477514397
0.697801023196278
0.708117568773216
0.731867157501435
0.684464105432223
0.761186286877216
0.710710397594979
0.731336624420549
0.69458040512828
0.756724157837056
0.724083375489085
0.763696843427435
0.713427676574417
0.732548479159933
0.765997190558881
0.782097387233463
0.727847288029093
0.819720236064946
0.803896321602356
0.858526694545017
0.784343127600254
0.84602321909726
0.783128125510069
0.89650179406033
0.779762022537382
0.835130146245596
0.799581453122871
0.860531535214298
0.792439910351575
0.873072641518749
0.826402445070009
0.914149495278192
0.813746645513002
0.858191704603683
0.815732393673373
0.905516625447899
0.830100936479697
0.937178983942309
0.871938075682165
0.930560173805001
0.893840149034006
0.981833074690014
0.909796279850061
1.02015042596721
0.974063191371432
0.94880181405884
0.902681690965811
1.02404940972722
0.84307127804705
0.961622200041884
0.90087544811866
0.994164078474598
0.995246551007542
1.00197811665025
0.921416253203637
1.06459831996816
1.01905543980266
1.04152460222349
0.951710837797402
1.04542986044674
0.996096626515485
1.0235376626131
1.01592974019927
1.14152775696115
1.01779574914599
1.06403654677586
1.05153970586809
1.10321105452837
1.04000566688079
1.17885284079434
0.994479680819049
1.14885328183736
1.04857969859213
1.1031568603437
1.06178433500699
1.2795571968974
1.05628326646521
1.12791864346779
1.05589513234567
1.2193509468185
1.09106816325656
1.21148679908652
1.08168979150378
1.13697132316424
1.05775332128968
1.17410333249667
1.07076636823874
1.2065686594915
1.14516898016902
1.16276938873164
1.09663619967984
1.31141572757839
1.15141586360569
1.25402279850882
1.1562059383414
1.43584111653188
1.19641107501648
1.33818935184215
1.16420020176154
1.54928961538624
1.10267250503654
1.2363843614459
1.09557870625996
1.51012182415068
1.1814807366768
1.46364014760423
1.16998999039611
1.31267568979305
1.14416051002094
1.24499026591304
1.21508682110551
1.39415099861699
1.22614528930144
1.33046008628783
1.27867351046366
1.36356972132404
1.27867254559932
1.38935308881821
1.24431680987592
1.38592482562823
1.1940944849913
1.31126238383618
1.28004257157523
1.30592685046736
1.28084610620152
1.39039858015722
1.27169472782177
1.45118145149222
1.18542914171666
1.41736749118863
1.26591065530287
1.37048732429092
1.46669511906048
1.56004372374875
1.38543958540201
1.56817529430723
1.27214035885011
1.46378009416974
1.3330147914021
1.48873663484567
1.35923097130667
1.49005745812169
1.38314060097277
1.53754458344548
1.22988439070997
1.51689043108093
1.25418150591584
1.45576538042601
1.30817308448518
1.53476602955938
1.39484724533743
1.64285422830328
1.32901383778429
1.44511155922412
1.37534606024022
1.42618071559866
1.42266756535068
1.92034760545144
1.30714234210188
1.58537632401778
1.33001550032458
1.60488155412015
1.41033794969354
1.56765240405549
1.39295390189229
1.90423465178753
1.42293628312669
1.82096978620887
1.52343639762765
1.65393003796128
1.42804997794078
2.32663393910951
1.5003523111193
1.49786425046519
1.33599329758032
1.50499048706082
1.30302707107416
1.67046966994914
1.48848152467042
1.69105129306002
1.50394662844294
1.59553604769715
1.48066268772142
1.44834795965507
1.42798419197602
1.77421984708204
1.40682769025021
1.61287110769036
1.55370977376024
1.63554049660657
1.37937822944511
1.6487949216992
1.49536900725947
1.83150517252751
1.42356650381376
1.77275745821065
1.50937918269254
1.75808325350145
1.37885673601442
1.43224817301966
1.53672374805946
1.6655756419521
1.5156273449316
1.71927227248292
1.49311480288453
1.77310134916538
1.49659013415421
1.6479159496752
1.44447354083979
1.61144168802306
1.46218350428773
1.47951586945175
1.53516409848833
1.51291116896367
1.51314412120716
1.63285633872781
1.39124380205527
1.55964798650965
1.49360783022893
1.70260794243624
1.55796630568176
1.84730654366268
1.46156070356359
1.76110495943922
1.47175476947738
1.61239969332136
1.52303627728854
1.69799862845487
1.52163459594569
1.70168039223108
1.46310933321275
1.62407711086103
1.48175084664593
1.51076630580752
1.5149957908378
1.52402318584958
1.42606974211697
1.52212325948752
1.63865776585196
1.61364233733118
1.47071565614868
1.59688893583206
1.55649743411534
1.62569659052819
1.54406710190653
1.55413167085486
1.47770234095676
1.71109303464539
1.52395389251088
1.55135885763647
1.44367736703154
1.43113624738431
1.48274857780201
1.55698168391512
1.61985602704159
1.70835934849944
1.60549074187823
1.62023816127166
1.53267473543002
1.54672937455889
1.41337700036622
1.74977294715909
1.3421793481983
1.49627270939218
1.40192125551723
1.59018106928437
1.42295843504549
1.57072764643869
1.41720728989902
1.58738824393869
1.47951517395965
1.55534625422734
1.56102441506176
1.59223293645299
1.4727586985117
1.55160585402875
1.56443743371458
1.62523226122764
1.43120054110911
1.51068020696306
1.37600713585681
1.56744880644899
1.39910621359928
1.51678517380715
1.3775534504348
1.53025522841809
1.44257858028237
1.58609856774955
1.37701790237623
1.70399907462087
1.55976546488893
1.59059371364766
1.49177879608677
1.42224428690965
1.37961111111392
1.5946245155983
1.3535219879298
1.49794468182859
1.39549295058867
1.5232812524218
1.3615493429449
1.5502183619844
1.42763254003532
1.44760015876725
1.4430573191923
1.61473963252828
1.40709185875555
1.63150625915701
1.40284393394939
1.62752513480087
1.3501581215781
1.45060990991953
1.42508485837943
1.46472059580811
1.29125982106635
1.50267030575123
1.36404047113547
1.40244494328305
1.33438684193471
1.43514110718626
1.33982145920519
1.3415666741239
1.35207610920614
1.44692271374424
1.32172213857479
1.38775162044825
1.31811748897762
1.29712562456646
1.30426426871824
1.35668544817066
1.30995415989078
1.34309428135333
1.28500288088906
1.43246533413373
1.27717654388086
1.40621551069041
1.27603538929323
1.35541222013414
1.28036697682607
1.28813396895588
1.24450058281037
1.35125521918812
1.23884701787007
1.2948775107979
1.25954740066252
1.37098225833617
1.24298591056113
1.33291991776997
1.3063450625275
1.19703131943259
1.19693499676324
1.23218908523297
1.22824358504446
1.34219359789822
1.18046000514871
1.21349533379093
1.23672456590927
1.19243503519587
1.1712056453675
1.26480943165932
1.19846066203996
1.19934140268246
1.18052222801615
1.20277952375522
1.14262217489543
1.23026500077841
1.10703556842078
1.11631788482375
1.13592316705467
1.19972294896731
1.12328311068589
1.14023514900738
1.12055198776174
1.18799724336881
1.1099559659751
1.12637867814068
1.10065692104092
1.12800396979291
1.06867846798852
1.13437068677132
1.06694725532039
1.08919005823846
1.02153431673069
1.05874400609773
1.05160002694892
1.05922145712543
1.00798421436423
1.01558469739924
1.0326099429656
1.01950616803519
1.00166007531051
1.07656280787074
1.01190914852092
1.01675092861121
0.949328259443403
1.04756444118296
0.995144943454324
1.01810033795267
0.970835231973907
0.98258748819328
0.970109914767005
0.947001099597601
0.932944210414662
0.947913453559418
0.955375352409651
0.964153507265286
0.925564594267805
0.957082069897127
0.934257460038188
0.980502555408915
0.92182337534299
0.93862756750738
0.878876368383531
0.915222502492831
0.875111695788728
0.937285947550087
0.898663353069985
0.892059145395855
0.842133610273798
0.884135775898644
0.880556835173792
0.867925249882004
0.826637132206712
0.849147071008818
0.834116263991264
0.846506066316026
0.815050634176407
0.83251578410862
0.823713669922246
0.83513093081434
0.810476150309151
0.82753560787786
0.810327104116456
0.819990619813099
0.793116855671017
0.807615092566836
0.77508266653396
0.784948912727964
0.769306960071313
0.771606567910996
0.770071476128719
0.775227402660716
0.755535745186973
0.767442811837285
0.742790966964524
0.767603423559174
0.739913482289566
0.752029036581485
0.726934580076128
0.723460983826206
0.719704173643114
0.740445753908263
0.716710746821391
0.740971561863213
0.694163114915599
0.703394698541995
0.70990646489866
0.694854646870008
0.69298738578978
0.694217106356506
0.670609646408471
0.692085304496602
0.681218956616999
0.679666048961311
0.668269880862799
0.668207600855638
0.669120139481012
0.67370837988894
0.650241751834168
0.660784257732972
0.639892011871799
0.651340285920528
0.631487177007171
0.645007868850242
0.630728950741061
0.637551419695762
0.625221812787237
0.627207774069322
0.603142982607623
0.611949551407374
0.614479616268535
0.619934078624633
0.595520384240949
0.606111503996872
0.588111212325152
0.609291620255637
0.592632130390351
0.59133122031852
0.570639619213561
0.57567093925085
0.57804085586346
0.574108816047087
0.577008811338471
0.566004841916155
0.55961775197075
0.563204215275309
0.546193214786276
0.557607958380268
0.541702754212133
0.551775943468023
0.548770490565843
0.544162643962214
0.538595557216963
0.536419531333389
0.529485824549423
0.531228482381675
0.522164803659396
0.525090401819414
0.519649640489252
0.533323683658181
0.526376707530705
0.527998892124977
0.513074599080689
0.507829899397885
0.509645209162021
0.504746027880897
0.488809078902223
0.502842568547472
0.491131604214303
0.491195531991539
0.483202491237933
0.492468326781571
0.489566315148463
0.496959851567619
0.484276437197681
0.475254065466459
0.47335722145825
0.475699553905916
0.468253980641969
0.470385627095448
0.464194798400589
0.4725277077356
0.464925573288649
0.4579956748067
0.456715641140235
0.457392698813095
0.451184212693048
0.45852101366011
0.442043096976054
0.448842677767408
0.444657981925685
0.450174858900736
0.447787021453895
0.454855604244378
0.454037677346554
0.445501365962185
0.435240573409302
0.444844518465918
0.433877139259721
0.440909323996561
0.437726382535837
0.439730842378297
0.436380612520908
0.437439225950637
0.428620648194415
0.42752812695507
0.42843229982273
0.440098943584661
0.429955485654973
0.438685561115571
0.432622737081047
0.425280305032897
0.427735425507129
0.441340285028133
0.435105289126964
0.444465587406736
0.43870944769788
0.446057789022034
0.439338193463768
0.4454278770227
0.433564881678001
0.442032112850096
0.439739923601429
0.444414368478294
0.44457074083327
0.449105570109905
0.441966980098807
0.45051540815298
0.456756439912593
0.457455557480915
0.453981682686908
0.46103747960948
0.46269352941108
0.460423882405753
0.464330543589092
0.464956123721268
0.462596779156818
0.475228537272726
0.480198164042921
0.487750725860765
0.481351493255206
0.48247029915121
0.478073679015206
0.488135375768545
0.484030327448525
0.494454592107313
0.49042347531291
0.511759200539955
0.511877118839184
0.519167654230725
0.519843343152652
0.52677223587578
0.516594214922457
0.521173733695299
0.527532098623073
0.543236359653963
0.537429659209721
0.539887211121014
0.54801486129326
0.551724512318635
0.552354557290456
0.559154021200226
0.563278390096418
0.582618434824421
0.575004113305051
0.57996623398316
0.581826938119481
0.597139553270676
0.596272068219759
0.602202710072622
0.610516946549532
0.619526769836723
0.61787035860292
0.627607211754843
0.61754616521773
0.630140701668275
0.623348489567609
0.63031382454916
0.633970998450044
0.639169106736362
0.638968749229982
0.638026498840895
0.638168102208509
0.641203870433904
0.637205385928467
0.638629775540987
0.629029936937433
0.626026983579195
0.620495447131595
0.635436366745475
0.633652395386891
0.629078996596584
0.633634667513646
0.633833716937139
0.613532633304448
0.6209514401335
0.629563391281428
0.620716448760005
0.605824021939088
0.622374128582698
0.623438698136677
0.615981754350652
0.609007043559907
0.617581115708015
0.604871758822458
0.610617904748339
0.614711112769383
0.618727795435221
0.610480728639086
0.604909115036339
0.608613548673361
0.608562446500833
0.596262757348072
0.610152004045973
0.607360862441534
0.60410636152751
0.599742694625878
0.607533361673864
0.60316944781801
0.595657644032384
0.592362777308352
0.595293829709256
0.592473538335362
0.601736605018309
0.59934799910573
0.598395473406435
0.59917986897411
0.588207934105377
0.587158877127214
0.593409906471287
0.58492518215973
0.577929883052243
0.573921451291213
0.584165026566877
0.577156033365344
0.56686384175604
0.558178134514174
0.561433809368002
0.557359187440502
0.551534104247036
0.545186806204466
0.55058649975946
0.54126049104421
0.536615377156294
0.543957772316007
0.53694055294969
0.528177231373537
0.523319297208674
0.520624757962492
0.521873673194956
0.513077610299922
0.514606631816112
0.499503925628401
0.503274752628332
0.49591130968538
0.498364016104232
0.490744291248309
0.496322355337999
0.492906140512127
0.472691928989504
0.466891605322497
0.475745358866828
0.474480919817811
0.472601999860667
0.466247388384928
0.469775610020459
0.461102349045684
0.455929797876633
0.457214696051345
0.445519144040023
0.445627992804698
0.449737775262597
0.444748088413157
0.443051534693278
0.431469421933672
0.435989850071287
0.437735209660629
0.437575537967438
0.43450761311002
0.431981984917671
0.42333910615418
0.417898631179249
0.417759086465894
0.41622112365975
0.411379231738622
0.4143335134215
0.410859649887154
0.407823675191999
0.403981349731929
0.404060719094706
0.403193895472843
0.399146667945977
0.398490189980214
0.401758223440108
0.391077554963821
0.385916877633373
0.38831639144227
0.391045176692647
0.391120457956996
0.388943655061755
0.386824219875484
0.385299939280485
0.383694029681521
0.383093885708181
0.377924843783727
0.379004155171388
0.378941310811935
0.381059256567513
0.376640563795251
0.374758812803475
0.371429216906315
0.369055925587924
0.364311490303185
0.368892174555368
0.368752925503767
0.367356295026403
0.363667973487547
0.359769487423158
0.357351711261432
0.361829891355667
0.360211991644219
0.359589952839739
0.352504326190525
0.355948557564064
0.353099006723876
0.352367545033403
0.353790726432567
0.352462488876813
0.349706395828383
0.345530121015145
0.34637768263244
0.349998369255863
0.341956404876052
0.344195994620895
0.342186851991976
0.346687475268291
0.345524603927732
0.339699189059958
0.339350882113691
0.336545580573851
0.335479898945011
0.337349579282298
0.334829300231608
0.338271399817692
0.335609562732013
0.333477265171454
0.333477531836402
0.329868825633272
0.33506957756346
0.335122156820371
0.330551653507318
0.33016246500913
0.327782228795671
0.331043747879276
0.330717752077704
0.325644993650556
0.322742569753992
0.320669501303313
0.327209306989666
0.33009481275117
0.327204957085561
0.327141185309454
0.321322020581939
0.319982231634193
0.318023811428736
0.319686122047835
0.322269709375234
0.322067981621751
0.320774068717688
0.324715466357859
0.319036252661041
0.312497554033352
0.316831214873253
0.317060948301842
0.320452578840417
0.314573017678501
0.316022823815303
0.314180076287518
0.314591339729818
0.31872406308246
0.317354515882553
0.311711077268147
0.313286389025522
0.312807840703024
0.312147046880583
0.310302338440308
0.310182596235881
0.311498775998279
0.311754655911719
0.307415826536643
0.305164667032237
0.311335038512236
0.306641908365572
0.306657284650973
0.30683367835257
0.305343655938657
0.310949338482981
0.304098039351596
0.310841441248959
0.309653699539195
0.30254189674284
0.306177785146568
0.308571939655772
0.306653670151751
0.302994010752331
0.304089206095774
0.299711543119538
0.297907015778058
0.298828544114525
0.296236871079946
0.296475957847014
0.300666477423434
0.295047742707207
0.292930967030104
0.296868714409681
0.296750866755197
0.294291715853502
0.295460356683535
0.295178228548362
0.294636189062912
0.291943267601355
0.290273037957877
0.292986633794496
0.288909132833726
0.292552464303843
0.292535704827053
0.287255383607809
0.286849212714244
0.289250327057082
0.283359941054154
0.286662403412153
0.284919914916212
0.283694719271767
0.28519628351437
0.286976939992804
0.285572813892424
0.290127080937849
0.283670257043478
0.281293942541825
0.28219440962649
0.284279348636915
0.283039430537687
0.2812723772721
0.278376503181757
0.278822678032346
0.279391422445186
0.273865719260953
0.274407187356736
0.277037591862369
0.276367637441869
0.279903227195283
0.274569496198722
0.275686492820448
0.276572907792691
0.270027667028797
0.274318971878848
0.274685131146056
0.265826789694055
0.271536564939128
0.274144020148758
0.26440739075873
0.266084515476879
0.268891412171443
0.265046093910221
0.26577372981964
0.263078782249292
0.262765776453086
0.262945229714009
0.264623794608478
0.259473558329838
0.259816668047974
0.262611279895705
0.261597734713825
0.258316320648496
0.25957396131262
0.256170178620845
0.252941506230189
0.257584587158088
0.256193174311707
0.253444992515775
0.253721140719008
0.249962040275466
0.251825393486307
0.252703054882487
0.249341076343317
0.250344269971072
0.24729818942584
0.25138026673317
0.250616044630683
0.248512719098074
0.245832498971431
0.245001492776993
0.24822978992143
0.243564620196637
0.240107523962363
0.2422620490949
0.240850025973785
0.241599961465017
0.240584135130698
0.238265903610839
0.238579283307668
0.234109313398518
0.239717618602033
0.23745828286277
0.238623848186346
0.235239869570243
0.232803587762863
0.23545128992088
0.233431823217767
0.229088317451276
0.234965560091466
0.232351121277333
0.232868946861523
0.227833359008062
0.229150475970311
0.229495366827606
0.226620189662634
0.224790755971303
0.226771857325145
0.224140636335594
0.227441618247664
0.22776428797568
0.222152042195842
0.225184428365222
0.222359478550802
0.222457715717194
0.227733163503617
0.223546729355752
0.223452884977754
0.220560120815707
0.217745128968397
0.219638187023649
0.216869473236919
0.215630525129923
0.21675084884896
0.221078770832685
0.216299506048864
0.211850690442707
0.218387058672908
0.21661367073211
0.215988017606116
0.216451434118276
0.210429376699639
0.2104824821229
0.213127255873924
0.215261017568472
0.212651314437089
0.20683914156413
0.213817619909129
0.210473346533266
0.207012325762462
0.208037232908532
0.208118235415988
0.208781222063442
0.208549150779691
0.206674150235135
0.209064489645767
0.205438908154659
0.206778006877714
0.209355671645347
0.209208877792374
0.201811058605681
0.207070870112725
0.208257432338201
0.210276944125458
0.203572638093802
0.206558117786088
0.203515600287265
0.206719259398107
0.205070735975226
0.202820213001068
0.205189755443912
0.201444780035446
0.204049786719782
0.20562464017632
0.200864918466211
0.20250954931211
0.198952485641843
0.202006719132023
0.199562707703279
0.201557977749741
0.203998911332435
0.19811366223746
0.199267834685057
0.206286644807873
0.200540732414871
0.19924403729899
0.194743826670026
0.200396203815692
0.197244677547601
0.198104524776725
0.19429711456866
0.196422948642987
0.196042009111275
0.196645362949384
0.193514141053605
0.193491144028433
0.193716513047677
0.193334810493523
0.192371908866266
0.193384528759317
0.193658856967173
0.191894897539627
0.196032696337293
0.192886592685287
0.194173335434755
0.191941843381829
0.191055861651178
0.191524269723689
0.192937303344326
0.189327405314652
0.18923213721234
0.194097491129079
0.188668518713588
0.190105442067094
0.19193656571469
0.191675229472489
0.185269366159377
0.188901454735258
0.189330573118715
0.188986692103292
0.188314253665665
0.183661623386545
0.186560369931255
0.189438213377049
0.188693186173972
0.188751591997314
0.183161314683201
0.18639188459831
0.187115219244664
0.186419230835288
0.182867855909539
0.184012265657523
0.184211844336892
0.18237117794203
0.183297653812243
0.18311447836819
0.184085922806198
0.182734819326063
0.181133415856307
0.183595129208996
0.177759720995301
0.180678431426374
0.178849088317663
0.186850759181992
0.183744305617976
0.184322290747395
0.180056969354471
0.182771370980803
0.18016457680153
0.181080016424465
0.178915455719536
0.182042442621249
0.178304292032845
0.174386030098784
0.177355508345773
0.182307881064215
0.175668902248818
0.177876548643439
0.176523218805842
0.180310734505054
0.175300448445416
0.175614577739052
0.176781405216575
0.1759183083859
0.173576057280114
0.177679708647375
0.173890279857568
0.173306894876109
0.169267728401074
0.17261061009265
0.17047016375774
0.174197468463379
0.170950695934028
0.170640891925838
0.168517133370911
0.173398278036913
0.168001147473351
0.165892533542862
0.166702308752595
0.168253928547187
0.168884725616551
0.167962539581967
0.162907380179682
0.164707632877042
0.16613403397765
0.165430376969311
0.165327704672087
0.164476970831514
0.166512535808349
0.165746936843064
0.163727558320104
0.163311823531564
0.159626343758328
0.162243901616417
0.157729766738512
0.166081135547558
0.159405735265059
0.161734421865647
0.155904142279298
0.15735949273245
0.156649847197107
0.158482237259115
0.158268329656674
0.159188233521056
0.155458192980229
0.156403233428184
0.155948774221318
0.155183219417763
0.153663215269156
0.156472067716476
0.155876256138227
0.152834124527716
0.150507361931332
0.156957533686081
0.148814668888515
0.151218328393102
0.150636715553403
0.151017582577484
0.148657113572632
0.150443472048776
0.145163601995448
0.149002080410166
0.151006579792665
0.149775703345143
0.145472940761845
0.14563729745012
0.143986511852173
0.144601415132639
0.143430365271999
0.146015708422292
0.144762719049045
0.145951058252276
0.13852961409567
0.144367518449333
0.144124638910037
0.142768807967662
0.139881917990529
0.140368162235694
0.14226466805759
0.137880201246604
0.140336409074735
0.142829610251053
0.141635496713151
0.141167927413518
0.135164354237432
0.138326224966338
0.13957696779087
0.139411199751381
0.137362268726826
0.138129668632578
0.136673055595308
0.138827130757717
0.136045940363963
0.138446963280921
0.134298737328173
0.136311480243053
0.132459046519851
0.138998111057715
0.131889978275499
0.134718253412392
0.134792323566586
0.134471979356377
0.134711294853523
0.136248403132951
0.13384557908419
0.136079168443991
0.130136720935027
0.132898077042267
0.132758882779217
0.135460988512204
0.130584370903422
0.129457281817507
0.125802270075178
0.132261225201269
0.124488642195981
0.129489122816187
0.12471037513077
0.131828991387261
0.131313420395498
0.131609748770782
0.126478177633046
0.125388720188982
0.121139533625617
0.132075544286904
0.128492409197728
0.135848746388489
0.127138894497763
0.126669916416787
0.113642834673829
0.125541885111353
0.118837213702596
0.129187125780382
0.120609070990001
0.12638407031311
0.122164837953878
0.124236238985658
0.124517595055995
0.129207822368435
0.116878593866991
0.126306428351618
0.123351850375572
0.125750225347791
0.116422260651638
0.128151490609276
0.116334327786633
0.125798573198974
0.118509130549549
0.124933326693048
0.118968110220151
0.121215529593142
0.11490349255084
0.121181468123876
0.115982651240466
0.125136358001412
0.117826279292608
0.127911620049289
0.115420708885538
0.120282907236105
0.113201553411842
0.116064119037906
0.119138949884378
0.121920169161091
0.124206906337589
0.115219051612904
0.123658908159537
0.116073187251217
0.125155206239386
0.115190224325747
0.127286093151094
0.111863534114336
0.132205187628784
0.105568084399028
0.139097249660459
0.101228967413555
0.135880430464977
0.10462246068816
0.131841241058265
0.106567427879903
0.130669494565823
0.104884230515006
0.125669453915318
0.113680627834663
0.116957321758738
0.116304471919436
0.117060866521841
0.122352874825635
0.11618019951358
0.114749374240864
0.115687593871511
0.11641254751343
0.117505951917243
0.116043900744096
0.118650919539817
0.117610143101127
0.117612971334918
0.112825270823678
0.115522802172208
0.117548764830817
0.117235742902048
0.116019391661133
0.116660572435308
0.114820678752758
0.116501309280661
0.116162996157524
0.116637161406225
0.112846464784204
0.118643499477343
0.115727463797347
0.116560054549052
0.114074935530237
0.116081479617547
0.11368162427492
0.11479837472891
0.115582594334263
0.119063867639484
0.11404254687569
0.11758567805241
0.116011635562108
0.115110430981287
0.116030818218647
0.11709632640894
0.113072694353525
0.119026406180152
0.116087448770063
0.115686987594445
0.115078907080468
0.119002263757397
0.118149311548941
0.119367090931373
0.117885802623486
0.115282416784415
0.116550816263459
0.119279361146642
0.115792829265435
0.116006570837831
0.115986543117439
0.115380656387226
0.11577415800947
0.116472883380809
0.117376165679061
0.117777670474127
0.116059964448035
0.117853506576117
0.116033492412278
0.117297817086637
0.116779407628059
0.118009146519687
0.116850340948536
0.114218774431554
0.117828957808587
0.11669035066999
0.115964453916173
0.118741559660816
0.116668834313496
0.118779922270956
0.117033013111164
0.116007297794662
0.117595675487494
0.11700080474119
0.115476257999681
0.115505553122139
0.115930957378683
0.117340588166796
0.116069353039097
0.117369649736331
0.118561560057975
0.117646778267814
0.118730093713129
0.118495475982171
0.115880617616889
0.115477616567789
0.115058581830568
0.117578623609348
0.11712581560551
0.118714367963309
0.117016723383703
0.120159045074444
0.118404213988232
0.119436273307085
0.120432232024533
0.117405039008294
0.12085815451817
0.11807962821572
0.119855382695176
0.117716064770544
0.118882493094194
0.120162869122898
0.119766583380648
0.120573245369871
0.118615257783135
0.121020552745028
0.119888136721747
0.121233572034196
0.121313934836555
0.12253350478989
0.120717551400272
0.122320528739299
0.124263046720836
0.119146487960437
0.121326000928459
0.121491367149803
0.122771515444712
0.122391379847612
0.122227616309184
0.121992062583504
0.122936745297039
0.123802621748269
0.120951610034902
0.122675176686528
0.12240883915964
0.122771270395721
0.124069596129022
0.124075071890543
0.121935185408524
0.122694604623468
0.123309220842118
0.12499875357348
0.123924343032182
0.123983051004674
0.125574502972003
0.123111745850864
0.123947668034006
0.126488778626419
0.124227107778573
0.123399832429715
0.124592826465305
0.121606483129452
0.127807560233293
0.123781154073362
0.125684491454878
0.126820543106393
0.126802271577447
0.123293795483846
0.127198962575013
0.127236253441665
0.129970452642982
0.12784503032936
0.126263320106345
0.128967142477705
0.126898653744523
0.130894073927211
0.130215130113133
0.128660407906455
0.128858549689534
0.128776529054614
0.128345503121895
0.128696904785098
0.129725824561839
0.128569843819407
0.128916897281159
0.130515130449734
0.129151206959156
0.127606838256998
0.128988760910477
0.130881100267461
0.131576612629082
0.127213753453781
0.130078798816303
0.129325726041708
0.129277606694854
0.129955965753954
0.130038434619898
0.128412967635182
0.129911168218627
0.126540018948675
0.129676188088888
0.12653386944725
0.130446770710759
0.130532149945588
0.128726235412904
0.12893417919011
0.126896938380577
0.125309350826195
0.128230670571999
0.126835122322794
0.126791436359317
0.127510920706472
0.128181317256664
0.128412419312017
0.126431591768563
0.126387590143637
0.129218041560339
0.127603667189828
0.124704948405036
0.124110965595283
0.125982050516111
0.128243550838409
0.12666167403572
0.12593589718218
0.127399180792713
0.12560070078015
0.124875340219573
0.127084240036212
0.126804572893845
0.126227185186658
0.12668490318579
0.124119149165807
0.125074763940363
0.125798106382044
0.126369781600778
0.125776657179637
0.124722878207918
0.126458216070744
0.125601827289913
0.123976023585486
0.123771983656118
0.123125345724375
0.124959288054586
0.122329902731497
0.122752605177932
0.124952833303935
0.123569152933277
0.123558226792366
0.123486414450815
0.120892782101863
0.124299628630289
0.122046390366028
0.123374976646178
0.122658811242444
0.121276049244927
0.122770809466448
0.124315477362781
0.120589483078809
0.123858830953591
0.12069257131744
0.12306549991111
0.121248901103131
0.120682552371915
0.122867889177706
0.12084448673673
0.121444445835766
0.122193141860691
0.119223826506966
0.118477424187678
0.121911075765509
0.122094068022266
0.121870833644284
0.119953458693979
0.119883742392288
0.121905631375496
0.118217518931871
0.119558161386391
0.121878040537435
0.120648677938821
0.117908571818782
0.122381491770734
0.119075846462157
0.121348029044759
0.12116270537499
0.117353517086698
0.121402598412987
0.120154130618566
0.120045257296155
0.117821524377189
0.120052288914397
0.119984966513422
0.118529592533567
0.120683381420662
0.119750487857183
0.120795060994364
0.117735314295418
0.120240882887404
0.117191501860821
0.116846387188955
0.117853650930963
0.117604580116521
0.118288254823928
0.116825281650706
0.116152648947286
0.117627829349028
0.116865781685423
0.117585798891196
0.116254678731318
0.117696732739354
0.114786332462792
0.11534030916716
0.11447632188231
0.114104949630511
0.114827140803773
0.113983495231067
0.1137445313347
0.111289178944734
0.112320612671158
0.111810180476459
0.111281584047147
0.11186264986527
0.110996461110679
0.111325812212119
0.107958938440712
0.109561713213452
0.110194856304131
0.108661166336053
0.105631790809681
0.109336071108229
0.108155371863158
0.106843303775817
0.10617992591236
0.108403962710677
0.105682579218401
0.108605625392497
0.104305717121757
0.104109019377879
0.103185840747549
0.103815348785535
0.104131033851789
0.105857632670169
0.102208493029757
0.100268715137319
0.0999484522518925
0.10271765500506
0.100541934117997
0.101360268699119
0.0982081055390349
0.100069513082591
0.0999659232741158
0.101741336481604
0.0994003838322381
0.100081565046361
0.0972082998851687
0.0994396515595228
0.100767083935484
0.103441445725779
0.0970236261397289
0.0993200328751224
0.0992852100901215
0.0965302243595635
0.0996008762505071
0.09755072168245
0.0984561324002436
0.0955433234503653
0.0960707566032916
0.098506296657546
0.0968365664524144
0.0964297731519554
0.0964828639138482
0.0953958540405848
0.0946833671751233
0.094892160805054
0.0953154216590868
0.0968874329789042
0.0966538077563387
0.0956162293127668
0.0932591659153008
0.0973448405907379
0.0966781207898496
0.0924795021151392
0.0948281036805219
0.0954600627992612
0.0944874793237708
0.0940559963211865
0.0938045415084106
0.0930864992161303
0.0943200968422827
0.0931626031592169
0.0940619437226704
0.0941356489136322
0.0946825921564739
0.0917831147288063
0.0927615553470135
0.094277631476674
0.0923145855604801
0.0955394426445978
0.0932357109437507
0.0931858044752393
0.0904606999088196
0.0921834533806474
0.092052478211616
0.0917617277104013
0.0917360800977834
0.0908625343047572
0.0909512794468477
0.0908326453780033
0.0907974863688575
0.0908922128424676
0.090461322276463
0.092328796145818
0.0929062940852584
0.0983120347587696
0.0884930703740062
0.0951789603496002
0.0900693592297557
0.0894436109038174
0.0887953048129765
0.092813559684808
0.0895190491938353
0.091344667164685
0.0889918187848185
0.0888651648059906
0.0884002354642433
0.0899048849972627
0.0860953459808212
0.0907807777699608
0.0887414137321945
0.0898013480748707
0.0865292607707144
0.0897960303300355
0.0877782079516517
0.0904372135466098
0.0881878447329956
0.0898813899372346
0.0869535165783432
0.0913490472779738
0.0843726013063327
0.0923810440660947
0.0856679883075803
0.0866399329855612
0.0871850781539147
0.0891052212546865
0.0869650960022025
0.0879290969112489
0.0875633913099212
0.090389891479005
0.0929124410301706
0.0853709005102296
0.0875359279973505
0.0855176894232406
0.0866098990064813
0.0855265704267179
0.0860651488910733
0.0861778747474056
0.0853716211421226
0.0868807888379171
0.0858676924467878
0.0848304179245759
0.0861847994510669
0.0869498010607073
0.0854591249249086
0.0870686351002813
0.0861778250036402
0.0840161137318761
0.0844529666200242
0.0825084942493082
0.0861896135474128
0.0845870720109757
0.0882400460281972
0.0807321133348887
0.0856126079216479
0.0823733771535462
0.085883516244239
0.0843428920142493
0.0837726415525133
0.0852455202181202
0.0862959361120791
0.0849952946763591
0.0861154953941508
0.0834125029028181
0.0833135669767986
0.0850827676326215
0.0862290785241374
0.086175072700772
0.0835393481810617
0.0836125315636777
0.0811636227470957
0.0856134578649415
0.0846831687244955
0.0887114764279572
0.0851652800865093
0.0822092227009602
0.0867692806007211
0.0811508783473721
0.0837752616889035
0.083346878316383
0.0839664984755172
0.0821804929635918
0.0845585827530096
0.0806795783960098
0.0852860077771776
0.0829969977918651
0.085179859693849
0.0824854355421556
0.0852005744101817
0.0820423588030908
0.0846080244030191
0.081472911745833
0.0875293577445776
0.0812766900242547
0.0837583896090769
0.0796610922861026
0.0873774622944446
0.0818696034463744
0.0834717250333354
0.081814986439512
0.0862977883826314
0.0856165212228514
0.0786912174526327
0.0875718645646131
0.0801767313469307
0.0850284606715248
0.0806518068698979
0.0835246384378823
0.0850193600224325
0.0830301629478239
0.0824449862858183
0.085194441024146
0.0816691445218183
0.08320990354897
0.0823520280990245
0.0866114263007806
0.0893507995312596
0.0843962117551851
0.0841769076003155
0.085339417726364
0.0831395847651626
0.0925628162260299
0.0811230133445353
0.0861809847419246
0.0838151640547829
0.0821945908918877
0.0863019101123574
0.0870535591250099
0.0858743820505627
0.0864394978734675
0.0852985159160689
0.0824869180183075
0.0838547931097533
0.0836281414999124
0.0860465275876049
0.0854934313460319
0.0868487330005832
0.0883207062234877
0.0846105489740591
0.0888955582081427
0.0874714857654907
0.0859079417734732
0.0871500559505517
0.08481202229184
0.0874192254643671
0.0890639570779743
0.0924379537988261
0.0893884434699778
0.0907585900409389
0.088378655165359
0.0888161139663955
0.0908201592635872
0.0889642989053271
0.0883129671417173
0.0916490399390603
0.0870693248336958
0.100381847827438
0.0856724173680016
0.0984997302747873
0.0867435213615341
0.0930355838775042
0.0860112304769329
0.0930142642446034
0.0893863438922913
0.0930179319520428
0.0889507254408941
0.0913091021157199
0.0941631048532896
0.0912971325531378
0.0942069790803146
0.0898777764951676
0.0959962231780151
0.0937502634280272
0.0948483745491031
0.0924869855778533
0.0973567870794881
0.090224677163503
0.108132427548192
0.0976127017642169
0.0954754855287697
0.100014853820365
0.0950955795223781
0.104798069145019
0.0958010155351527
0.0962485337057544
0.0983336406649178
0.0962103315324271
0.101953942912103
0.0962532287747024
0.104289962784641
0.101563812001849
0.0990723508085606
0.105099811826735
0.103226726120405
0.106229109266934
0.103963121367869
0.101423643061241
0.103694408643893
0.106193309335108
0.107822163571252
0.106943245622594
0.114497086318858
0.102913763010511
0.12303357210682
0.109405348890736
0.116696262210398
0.10731228018824
0.116435804315763
0.113152580463018
0.120452901236406
0.111847776251149
0.122255525957557
0.116821403391801
0.12956344957799
0.118260650588624
0.127422108371962
0.124867086471743
0.12867810356468
0.137965535959472
0.142229264061829
0.127750150721895
0.135176467952153
0.133485625650179
0.140021715757496
0.138212746621844
0.140317774169994
0.139998813518028
0.142844752195833
0.143930648955439
0.145041054824748
0.149330195439331
0.148994708135841
0.144526404757751
0.153237217661179
0.15029195431891
0.16908461972516
0.153909622295295
0.166491516820966
0.157908270344552
0.161056191235208
0.158863816861997
0.159538654332098
0.163728816293814
0.161504251559118
0.168264257104176
0.17081131414802
0.169221282402771
0.171011422882487
0.17339120049964
0.182552050896707
0.171536144654766
0.186074402750672
0.173149607238456
0.189732123108035
0.186822999126199
0.213268840444451
0.194594324777208
0.188168548366225
0.204758397115167
0.196107605907095
0.219861342705754
0.202161646817809
0.208285900958139
0.212047274825449
0.214545963698825
0.219035670385942
0.228213565042425
0.224689184349957
0.235010288959023
0.235599783907452
0.240463191202111
0.249097535383639
0.268295295328707
0.257380617147533
0.265693893753407
0.262257453234004
0.276294432772075
0.279174032741047
0.283769733966577
0.283118395954852
0.300451444294151
0.292038960432626
0.326419327114239
0.304524078368996
0.315330066410665
0.318683215047796
0.336290916958527
0.341502625002749
0.34479280268718
0.359021800422782
0.341967352447791
0.360619116622761
0.356897465937269
0.374387530599808
0.371776726753055
0.387354584380097
0.390591800351817
0.391176155042337
0.399355542017355
0.395821364921312
0.403198012650648
0.406582904161228
0.412796764729362
0.413559053035334
0.429386592971348
0.463085071721466
0.447992341933443
0.43539725657077
0.41821473755784
0.427745123228446
0.41758017783248
0.446817419610901
0.447968220199247
0.45437152705161
0.450534811240994
0.431894853732687
0.441811448523117
0.439862116495568
0.444201264631812
0.44303770072855
0.445063974636525
0.444483235109944
0.446057236679822
0.456834569267708
0.431157891538321
0.48639689338986
0.440234965933268
0.442761912082267
0.439405414984376
0.438501518989678
0.428632004339065
0.439336470084892
0.438735267374399
0.446745517033978
0.423382393250661
0.419961905316405
0.420075152672173
0.415491033774934
0.418754448273039
0.40465831624264
0.396709490365755
0.396024381576008
0.390784017424068
0.388500750269871
0.377873211615461
0.398466635256543
0.37059178418315
0.369805877556651
0.36816771880131
0.35743050514536
0.356140966635307
0.355152860918762
0.348254900443722
0.343931556149237
0.341497207985958
0.336304702319605
0.33483172655234
0.332460257099282
0.329861092586442
0.323699746287477
0.324573702884015
0.317406872630922
0.315525779376267
0.310715583618741
0.313446818447105
0.309339704786416
0.306908487057825
0.303088690622875
0.305762902643314
0.3035812915566
0.29579088304974
0.29346698429711
0.297646072479823
0.294460158417981
0.289188015930356
0.281487835572246
0.284766815939259
0.285863628241838
0.283030698500966
0.281003272497824
0.282674530556417
0.276600535575655
0.279938618594123
0.272787230311441
0.274392333430145
0.269982138143557
0.272607067880595
0.277889956969645
0.281852204175328
0.280015311416618
0.264686883119131
0.27230088655004
0.26221004758408
0.264256804650887
0.263230388424758
0.258397032442172
0.261622720654387
0.256762977792599
0.259185533049439
0.257249578209287
0.250229414047398
0.255581904098524
0.253593714768997
0.247163997731768
0.257607990872422
0.242065655044803
0.277053939701248
0.243543725799907
0.266529353840279
0.249855688771126
0.250915788448036
0.251364868717998
0.257557538794117
0.244901223066623
0.239551707018637
0.248715284671972
0.239085504903204
0.250891279307709
0.239823949147625
0.240149220672087
0.239612941636894
0.243375030213714
0.237687707539604
0.241410116256067
0.240530092038388
0.245554123574656
0.241226320589908
0.224830335351167
0.250656217361759
0.234632186134235
0.229445508574824
0.227673979954225
0.231132959143242
0.228205202783386
0.228904894739421
0.233763819460173
0.225131399058613
0.229796385100269
0.222567637831371
0.230767761941544
0.226160959331952
0.227037449544843
0.228524344836773
0.224197927243606
0.226450795474968
0.219349852590472
0.237635164178414
0.230004692405141
0.237357319144867
0.223368588166987
0.228818246228528
0.224386960101563
0.229636956370543
0.228639674715407
0.225654878072089
0.220922775928979
0.22361281758364
0.222327435170002
0.225279736580896
0.217600831229104
0.234347523627763
0.228443150729041
0.23521708303997
0.244876763788957
0.222853760513897
0.223785167670772
0.22992427923177
0.224350748906157
0.232053393977454
0.226180120168031
0.238490868849378
0.225571641421106
0.243883127087899
0.238059830358037
0.24458311710293
0.244949961213163
0.241740585897733
0.244273562195784
0.251634971459677
0.253338809568362
0.267811790827434
0.255102930656985
0.265828811042016
0.261128441054602
0.274944312720277
0.274405332363213
0.276793155916787
0.279950555698135
0.287694460863431
0.292370612600014
0.300786367595336
0.309004738792977
0.313632773015005
0.316881749082814
0.3305200575878
0.330558110378597
0.349040724643522
0.352165906449877
0.35494171676339
0.379027664961365
0.377413591398794
0.392035109925026
0.391226955905492
0.400174806015792
0.409498701548858
0.418383017200241
0.42645056717275
0.425498424817111
0.452667272888383
0.446952582140096
0.448973838823998
0.457397466978833
0.462174909757689
0.474001600444571
0.477329198557583
0.4931103911653
0.480429044555162
0.505695098820586
0.493541789474121
0.495412944679219
0.499803927734352
0.499476492613695
0.517163081810014
0.502111061543774
0.509584991558102
0.508663265579155
0.518227660320082
0.514775911156692
0.51628457052462
0.520666236983459
0.520056726684089
0.520702357136695
0.52374231372592
0.523661102292755
0.528189274831628
0.534937570469337
0.537847193749759
0.540063601632873
0.576194640063913
0.558087719605028
0.543877659776463
0.550663104648684
0.55832346086134
0.563392890444717
0.561162764115734
0.579780238733773
0.577792285992411
0.573297273817493
0.576745229672609
0.580846712231777
0.578598127051618
0.582728472840668
0.587834407397105
0.5974336031704
0.588797629231693
0.603673733255097
0.600279533112377
0.615767575202201
0.615383554031713
0.60714992570974
0.611592645886107
0.605421076441162
0.612801946077905
0.613283343211172
0.619667030280931
0.613420071915489
0.615310325311943
0.610965234675779
0.613895411362917
0.600284961147876
0.600605502241514
0.610228055071998
0.611663497300183
0.607489144096799
0.602209308173869
0.5984132095291
0.596113439107972
0.587949104474956
0.608772545666633
0.598727147031735
0.582210267173912
0.583561742415692
0.580279938704925
0.595737007845169
0.590676833925532
0.579493270735863
0.579521774983293
0.581446482940013
0.587929686130373
0.580200928965174
0.586567412476505
0.59584495832462
0.592696228534749
0.593141572210891
0.603604108883921
0.605817619583065
0.611445275197347
0.61194445625427
0.623794466329257
0.613681103922179
0.636333497254229
0.631634515076896
0.637107235020698
0.638657621565796
0.648945963456732
0.644570291087676
0.651924826624164
0.657310213786294
0.658076042369518
0.654471968630865
0.660553697425656
0.659800814673898
0.663332831614051
0.652285333912292
0.65822081290419
0.650877715401679
0.663591686162656
0.661135389359031
0.661181884695211
0.660657275794007
0.653155210006488
0.647208924029041
0.654911085003291
0.64067361087222
0.652561998878539
0.64536166589074
0.643331174284045
0.644745613655929
0.638237578142714
0.634944006408395
0.641768246807161
0.632641255013931
0.633031447654717
0.628126962334158
0.633872780157666
0.62882183764645
0.629096664740586
0.627163374496594
0.630468758517632
0.618410101518344
0.620544437147142
0.623225359506201
0.629965379233831
0.63160724897479
0.632676072940553
0.623822179068203
0.626870109936451
0.619642142681309
0.624258765619631
0.620715184950009
0.623426982185375
0.617850284433813
0.615845620208774
0.612285892794561
0.613024981928966
0.610785165336698
0.613975932079981
0.608575561175088
0.602920216161262
0.598438528566926
0.598990235048783
0.596652547627253
0.588817910465701
0.584213356316262
0.58466671595988
0.585646367687202
0.590142211859247
0.586259012971275
0.580806624867076
0.575796400911922
0.575615986808456
0.571572633881091
0.573841921945649
0.567663236195588
0.569285923628865
0.56722880763303
0.569032541887802
0.564117516399047
0.565283941121258
0.565109677170846
0.564134928433515
0.557310346689616
0.560629946598176
0.554780335491298
0.551237396955281
0.548391239522339
0.548053825597264
0.538815421246651
0.54016854736649
0.534869201496592
0.531322486708824
0.524907294800059
0.520530097944885
0.516999029391343
0.515219996316936
0.510764815729222
0.506229347142018
0.506118817738106
0.502490671134743
0.499160746618404
0.497721982657184
0.497189712050592
0.492339684676122
0.492319660296555
0.49625966036646
0.489910424718905
0.48810246403441
0.489546605704397
0.488661856801687
0.490495831684611
0.492321861075861
0.492525663019922
0.496346403918805
0.492851159619152
0.497814353267555
0.49685332464448
0.497994346900627
0.500256423459397
0.501237740967937
0.500187896289371
0.501041502965797
0.499493093038563
0.50542483169546
0.508954949425874
0.514480307626264
0.508490622327295
0.512501577757593
0.508666117735249
0.520434195289569
0.518013020164476
0.513203208887439
0.520091920248295
0.513328450606963
0.515888608597537
0.514495198629466
0.519516000065518
0.512152473927825
0.516694999777473
0.509087883904011
0.513254046139155
0.513641314294254
0.511467297391101
0.51378057597325
0.513520971102834
0.513669264290601
0.513497340336817
0.512127208568656
0.507655323186366
0.507751097931168
0.507662686288417
0.505182048379634
0.503063614343399
0.503499681697098
0.501396933752165
0.504941574771266
0.502148334837477
0.502257334386499
0.499733630631907
0.494895975450591
0.495196882301717
0.493643036074194
0.486500479885611
0.484670960803738
0.484233590954843
0.480605137527143
0.476871996985281
0.472870689900341
0.473840118291256
0.468762583079915
0.461393638751502
0.458237179328311
0.452135491677463
0.454681342392858
0.449730564186601
0.447248785693026
0.444484059252119
0.445660538524281
0.442800915809377
0.442337864582026
0.438755449238785
0.441763886965369
0.434907574393735
0.437124620686144
0.43893687558348
0.438175191076751
0.440901743239719
0.441021682230032
0.438215970240549
0.439762352464825
0.439162275337536
0.435945186952083
0.438900867873497
0.428173805788969
0.430586247463124
0.427017737933802
0.423663580330033
0.421174185435052
0.416903249722203
0.411518692691401
0.403835651970663
0.399677590803325
0.390927091407452
0.38649711274621
0.381024131257495
0.374432896691903
0.370045767930141
0.367036379755853
0.362938877421475
0.365463316145102
0.363785011783371
0.363740943400857
0.365869225017728
0.367546928694195
0.37300102321614
0.377386330131364
0.387224838497389
0.396729564840003
0.407308717531373
0.41762326399417
0.426651757832814
0.445103726841723
0.453599179511284
0.471610853810395
0.488426674067993
0.508498604936324
0.53270833631073
0.54978464460134
0.577806554738407
0.601753197536687
0.628691629546445
0.65311760687579
0.68118989574479
0.714997168744527
0.745737350918434
0.776972399401315
0.8107495860821
0.840456943399724
0.863677780893873
0.896920204778609
0.915750095093438
0.955068614010126
0.969523257979665
0.981489646598235
1.00843982733931
1.0327273938662
1.04272950815443
1.04244254195462
1.03530256497368
1.05842900916058
1.04091577973387
1.04666573807349
1.03823723423905
1.03839563147378
1.02205231804025
1.01875739259557
1.00334384973085
0.99680108343894
0.982079181025108
0.985304270084862
0.969190624051144
0.942488719195711
0.942673584111696
0.941113650733633
0.944026851118546
0.943359968274946
0.943178784055255
0.930030005377966
0.94623089687234
0.945467822586533
0.948408722438856
0.959859904516004
0.964676132081894
0.979895035853633
0.986086979851585
0.994293964353936
0.999006043988524
1.00525865297738
1.01210614708103
1.02421893330083
1.02294796205048
1.04203954045253
1.05214809849957
1.04460460629133
1.06081434226101
1.07331793171734
1.09500656490793
1.07654727729099
1.08085478207762
1.09416938237282
1.10021886585843
1.10605082628676
1.09797091267626
1.11127319136809
1.11587218505506
1.12800005812463
1.12154371423255
1.13707877000997
1.13588116866283
1.15257795252325
1.15330539770223
1.1379907711988
1.1528135745084
1.16660183020555
1.1707101290783
1.1696381471649
1.18086792356934
1.19197114908209
1.1911977496531
1.1989964882575
1.21389940610168
1.24023082868992
1.24373884090421
1.26067251665952
1.30407924769817
1.31294216370532
1.3407425820735
1.38505630249545
1.42458358876634
1.45494726635503
1.51221025522586
1.57555150807022
1.56127482543749
1.54538169020326
1.58276184914379
1.70011433690337
1.6584879885356
1.61160222227071
1.70541513538332
1.67757406057392
1.67219433752676
1.64105020022493
1.64762998180072
1.72955276836383
1.61736695842498
1.62163835496734
1.63934688114462
1.57825405758823
1.6318602451707
1.60310026736796
1.57827115282861
1.51965035603497
1.60060981533503
1.59655952412635
1.63026535598294
1.68874630202739
1.64100358319587
1.60602091532586
1.65432268604894
1.75136912150708
1.66974451533754
1.73911132598117
1.75437569107669
1.66528380414094
1.74696495865801
1.79690805484702
1.95005201859085
1.8926787755053
2.01509424153118
2.01044631556377
1.85325433204135
1.94231867305298
1.96206164767079
2.02525342932171
2.09790485469255
2.10434841001321
2.07994206384349
2.25235129175884
2.1407275195792
2.01222015228615
2.13688645163029
2.25888157672237
2.33656958604953
2.3973148124118
2.09325164522972
2.27209316258794
2.30983444296496
2.303977478845
2.40694612130717
2.44089299858179
2.88060588755658
2.54791849113776
2.53055394176466
2.31334055375708
2.29855028771161
2.36180174302893
2.54692190230995
2.85808029631412
2.98639876557945
5
5
2.45026366488227
5
2.711098950464
2.542701226972
2.45134506759044
3.17397181277014
2.49389319956415
2.47058606312512
2.13119924362217
2.53874132157437
2.35480732263821
4.39559837794181
2.09809799586879
2.51447002035621
2.07291909637142
2.44419407530032
2.15829264125125
3.1322770108348
2.42791523078357
2.21153686010521
2.18641889354189
2.33644907194893
2.04737428638195
2.31192251241028
2.05321032359426
2.53798141987299
2.09497040242753
2.04907216386796
2.0196191605591
2.02114698533417
1.97164492316221
1.95106639238522
1.81540922866737
1.73167615498929
1.75876612306013
1.7293878552518
1.56927875827448
1.62490467625258
1.61330996895444
1.63347915090023
1.50060020341513
1.50951667152813
1.41087447748346
1.39197345618926
1.35593114326731
1.33014232022155
1.26457576596837
1.24632624240243
1.18753175456702
1.13001791346376
1.0854359363509
1.06699633492772
1.01982342930147
0.965305124403904
0.918182482535745
0.910510415662908
0.875235642904889
0.848035414129521
0.813911608600536
0.810124418946723
0.779763814346268
0.772647729786813
0.753300739389536
0.744338538192646
0.718518293241252
0.722955556149708
0.710641389228557
0.70483177413842
0.688951309396077
0.70088332204591
0.689051562679185
0.697245100017168
0.699686117537446
0.705706711242091
0.70837182429203
0.700620376883372
0.71604866629623
0.721255966410407
0.72545437940255
0.732704205930149
0.743183546282659
0.75171856697908
0.760053722536667
0.75376698102316
0.777850644846686
0.784327298018483
0.783710569895884
0.776507134965587
0.758377601086631
0.791865445415438
0.782707812124113
0.792629032063566
0.791660961317811
0.777800441387039
0.777919490739469
0.788960751681921
0.789599721074125
0.794676338376313
0.777359669813524
0.788366863500171
0.782745287607604
0.767420757491093
0.76499653340008
0.782117663905681
0.757098700467426
0.768784735328524
0.758815878594885
0.753748618718378
0.736883115170745
0.744419109437133
0.73289425251695
0.723289969619652
0.707901556535835
0.720945155527643
0.712685147795986
0.708464164188009
0.710437722466357
0.722120339908008
0.693901514669017
0.707469178213151
0.703835488874368
0.710623824982295
0.700869154074857
0.710010420153844
0.720517633950902
0.739337195446796
0.747571048145077
0.741374551309163
0.756201990846707
0.75591697128661
0.757907226255486
0.752707016629249
0.745071846893661
0.738831503358823
0.725286017544018
0.730599769666357
0.709047763708535
0.70924417470681
0.693271956922881
0.711140293281566
0.672930201049627
0.660312782462298
0.658367606730005
0.652022352530356
0.650256614541654
0.636472991330227
0.6483596294588
0.66544794264952
0.664813532340394
0.655913731640586
0.65179734252139
0.679587584701438
0.660984791881798
0.660152777546406
0.667365982659913
0.67468009538963
0.665875844357018
0.677320581114831
0.673933436421423
0.693439460996186
0.691494940868423
0.695015300825743
0.678081015863843
0.689222298075049
0.69492780437253
0.698829989023361
0.686355302941441
0.710325543587371
0.685926029169253
0.697983998547402
0.687440853163628
0.691892845961715
0.700831013361001
0.705080212921271
0.689911411790429
0.685863920267122
0.702366467269519
0.708429863361793
0.676614010880879
0.705994666586412
0.698251865286556
0.69606433496584
0.69919805533996
0.696218908955746
0.685438632513726
0.688204179547
0.664125182115128
0.686160767376675
0.666928112022538
0.685928614230587
0.684349978030745
0.675378694800857
0.657003914790048
0.656204742972273
0.640253768558036
0.641012904763457
0.631606718306544
0.654805735037545
0.623387142088934
0.616933083039481
0.618620816350587
0.61762236568916
0.624247406429508
0.633911895546917
0.620243397663231
0.633176598424403
0.596744827406333
0.608052321477932
0.618242949303308
0.612861817424874
0.608410082933218
0.61616824913219
0.606690634733322
0.621863742037974
0.613747636513305
0.617170119982351
0.632722521860423
0.619672920513874
0.617249287383592
0.619514564829749
0.618454060502196
0.650714478891963
0.634077881079026
0.647132800895274
0.632117040526468
0.656079250171505
0.638413472398967
0.675162555803063
0.653431325254517
0.663695509513307
0.669156352598021
0.679184670193301
0.691676304470511
0.681342304234976
0.694583685692025
0.750312988206368
0.745328041886137
0.733574652162122
0.756451390656488
0.767239506467685
0.760184373311441
0.779957654383692
0.755030117475569
0.825379332169989
0.836779219368438
0.821449076380543
0.866006970886526
0.867124213634048
0.835551693741132
0.836727783319858
0.866367472802482
0.883432107087637
0.862459153021164
0.92536255986087
0.918368426092014
0.918051662202903
0.894863587186774
0.862384669456723
0.858337952864305
0.906748322534675
0.84783192406502
0.924223305385544
0.914001945971377
0.936555452214632
0.887661160750506
0.914652322350943
0.964762855110945
0.96967978116884
0.883664292313983
0.984036696066558
0.937534747349098
1.02141062257723
0.963576556713251
0.999665123260423
0.982974195083822
0.980586259186855
0.919225964859842
1.026501476073
0.967091411625084
0.904586025391558
0.908755798854477
0.968416376094036
0.888587104611208
0.98463776255938
0.973102019808639
0.871690105950433
0.846253865850924
0.985537891918168
0.947504171083031
0.902610750295926
0.880441379920176
0.923952751227461
0.87817699365091
0.895223378788616
0.905595980670074
0.94711563245484
0.875128190095811
0.918917200651207
0.82666811320001
0.953378962819873
0.948632846734594
0.989304763486147
0.903091503044701
0.94535662612543
0.854642036316008
0.890443255947177
0.89300464731063
0.950304859438413
0.911639134533889
1.00564194330022
0.940436519305685
0.986732166863767
0.946053120483055
0.906460297024362
0.887449918032629
0.952601653354492
0.838527200446518
0.885555546693515
1.02625710090178
1.00433157842129
0.915404010306229
1.08568902809837
1.25814626461222
1.1761724927654
1.07966790908602
1.33928158616609
1.02211222218827
1.09427882872781
1.0353488078886
1.13231892245645
1.18162581918728
1.31817082603262
1.11051399897332
1.14541388404378
1.09177542780758
1.10762217001431
1.04485421826727
0.982862866092557
1.14476121576815
1.53089531296304
1.02899674279001
1.07286763793749
1.07499943432314
1.39631786398886
0.957772982421623
1.09643821784363
1.11394954268854
1.45597762090122
1.09064775769321
1.065410173655
1.22307062649434
1.42666678115803
1.22870282791736
1.39547796191943
1.11720303682003
1.22126661238237
1.06973464551984
0.87438216196183
0.933345221496448
1.55377603677254
1.0317587145879
0.887624592443648
0.79803347102968
1.43931129684598
1.35751664334461
5
1.78952137117981
2.01491719257226
1.23229801702782
1.50845820189969
0.801018638437296
0.912467785959904
1.04520676776075
5
0.921458175972294
1.26628989299886
1.27231514640579
1.25968567686489
1.06650634204723
1.02012069363358
1.19724258260723
5
1.22768675961149
5
5
1.19838381127117
0.766245044882368
0.899414743260402
1.01442524587136
5
0.67931009979268
0.831936513186163
2.42864817437079
