3596
4000.36533379555
650.420452594757
1
2
2
0.0124132071906642
0.00556779211865741
0.00729801120904013
0.00601060708172745
0.00767146774212083
0.007918504106827
0.00954030848744867
0.0140000122955735
0.0119956119019888
-0.00333602821293602
0.00261533538307226
0.0125913749944409
0.015722927443388
0.00590489160075349
0.0100799023524965
0.0104394933976894
0.00918073815384455
-0.000396712488290048
0.00205056453013417
0.0104192928566183
0.0106274067673238
0.00460008579272001
0.0175850408059983
0.00286522429440355
0.00563054775392484
0.00812683620316556
0.00794041010190151
0.00858600461973361
0.00367390506309588
0.0120486803424883
0.0142611729607745
0.00580241170702165
0.00154242104263433
0.0153955270154839
0.00768505345033228
0.00497976139282435
0.00313423848277609
0.0124664037954523
0.0114548332224098
0.00521150065895809
0.00893044024356424
0.0123597909755025
0.00726770804356801
0.0127828181696658
0.0038391910470638
0.00765767349687165
-0.00148362529733504
0.00601613879009683
0.00922059555263086
-0.000783916673488835
0.0121729374249105
0.00909158730133178
0.0160648461043344
0.0121892057696802
-0.00360174923747411
0.00275409857519377
0.000427494534315398
0.00356946832831694
0.0126672001289497
0.00973666548421634
0.00370601484564646
0.00445481847380318
0.00955418866867195
0.00717083064302782
0.00813174938683704
0.0071817850847764
0.00721164981303126
0.00549706520934604
0.00943696443163506
0.0163270125425261
0.00688965454955279
0.00712377086226887
0.00524433362786865
0.00344571881916748
0.0122635731540434
0.00539672070055013
0.0108783442493956
0.00479624814579686
0.00781077240183429
0.000842763702953577
0.0117176367466656
-0.00258542684314657
0.0111474625757811
0.0120749203050713
0.00258359899332846
0.00207573638870292
0.00832693849424664
0.00285745284396269
0.00790973175869056
0.00898066954203282
0.00434064887773461
0.00562906649726995
0.00582975728293962
0.00345978571895964
0.00551257595040152
0.00825552748267965
0.00532675174169954
0.00420201184137335
0.00477064914663435
-0.00246284731492675
0.00813711693301615
0.0078259588581942
0.00956449925332706
0.00774684227021505
0.00469947609266377
0.0171087882977768
-0.00250112774107362
0.011736834071736
0.011701242447454
0.00502876470627704
0.0106577799415306
0.00436988553341189
0.000370668311537394
-0.00184947681121887
0.00954136984832243
0.013509629922465
0.00350671194440398
0.00462999588734095
0.00791434194419149
0.00683507845422054
0.00486327116592918
-0.00234735624030448
0.0129448391089928
0.00533781275554701
0.00496757537852238
0.00535364724322918
0.0128657789876684
0.00272746635773803
0.00597451092209797
0.0150903699855397
0.0028981543796864
0.00226666072643639
0.000347001999622845
0.00495295719360858
0.0141860813457271
0.00051762461684743
0.00929236709888841
-4.35019741104195E-06
-0.0146718797929129
0.0100956272265153
0.0113320198826886
0.00214525513981658
0.00173474820794519
0.00119541472413524
0.0127051658561828
0.000446070899688886
0.00463972054989747
0.00659411005226057
0.00391026253386476
0.00443075724180311
0.00419889001786912
0.00353053696882752
-0.000161933471891332
0.00902904611265381
-0.00219961001785792
0.00482615594207171
0.0218150731624571
0.013539302596838
0.00831265015585872
0.00452094994856163
0.0035497306754201
0.0089957407268466
0.0036407703032234
0.00805046625296916
0.00378586689611697
0.00409822169443538
0.00190124889472347
0.00887855065287178
0.0109798173395909
0.00314947841995384
0.00527301914940583
-0.00417764683845079
0.00539436919688447
-0.00123934025468063
-0.00192517163804614
-0.00813778524293365
0.0125074339793216
0.00658715343959867
0.0056782329731518
0.00320043732330059
0.0112472303660054
0.00320864344150391
0.00209117599381559
0.00326939860834666
0.00805931384651895
-0.00254121475785326
0.00825264499058031
0.00177269415294139
0.0124866153579534
0.00857547835174522
0.00928965989172122
0.00356594335823393
0.00135785594432111
0.00304760833804111
0.00809022405694048
0.000819493401563634
-0.0131249438999425
0.000797983238660104
0.003784342896886
0.00138676726925277
0.00410819502498662
0.00792864275446218
0.00698840933920117
0.0019557121175105
0.00410691052840507
0.00241435083665955
-0.0107930810890063
-0.00202077147368232
0.00623210622927725
-0.0022719872626152
0.0056404352620041
-0.00205556704900472
0.0167297521266444
0.011394756108943
0.00680620479519517
0.00379804532178915
-0.00482436373168899
0.00186286110692774
0.00414477519614126
0.00612625570988232
0.00807665909655247
0.00486831896762964
0.0170222673160018
0.00534242207420923
0.000732323332357938
0.000499173686736067
0.00167641303888275
0.00830892515435977
0.00357160783593182
0.00297008238968893
-0.00401917860226512
0.00736940277963194
0.0043741933222695
0.00201485033370846
0.0064617240031183
0.0050138076246838
0.00805081597410365
0.00578608320610606
0.00687080044941812
0.00786519849882558
0.00321929664594459
0.00348241836265714
0.0022337554475113
0.00516771156844088
0.0015462746750921
0.00695833340616995
0.000862782161706338
0.00529479043176693
0.00599768099444407
0.013852747882536
0.00574722355120729
0.00818873237614894
0.00177367097055659
0.00139986481341375
0.00220159186446461
0.0134248589688388
0.00352819607745543
0.00722216045004369
0.0118633059560785
0.00487084519670918
0.00398706979673112
0.00602334348955603
0.0118390894665723
0.00560981061518286
0.00297116074812042
0.00524241120097965
0.00371855993736436
-0.00278996617881955
0.0067225951022051
0.000530848712421976
0.00622523414748981
0.00837529050372622
-0.00366147292798635
-0.00798998868488654
0.00143812281425031
0.00572012158659
0.00862870003852327
0.00977335184827279
0.00568109385405466
0.000488863882559641
0.0121627061087323
0.0196498768746677
0.013340407500119
0.0129023127510701
0.00623494140790654
0.0121578544673037
0.00243429292963108
-0.000586765883752782
-0.00237231800946704
0.00132723777922089
0.0102298670844916
0.0101806052847552
0.00385277102870866
0.00782232272656671
-0.000532456346910995
0.00577076733391154
0.00977407644292445
0.0076654134180184
0.00457941711900495
0.00358824013788048
0.0148792303944276
0.0130103469419407
0.00809301239784503
0.0155560082589243
0.00217363904529123
0.0098538077791563
0.0115773897911413
-0.00132555674295739
0.0140269657593807
0.00968472641282857
0.00977346772258143
0.00721203408942677
0.00734109281093697
0.010691790141725
0.0050899504781724
0.0121216077569992
0.0116660168380066
0.00685824344304646
0.00915710498334006
0.00683747911021437
0.00887192316631906
0.012396440730867
0.0113374722138319
0.0064965711095515
0.00458071911877584
0.0117982201658505
0.0103160579426121
0.0106945509343781
0.00397930194157789
0.011922561682604
0.00923176491416914
0.0122151284752077
0.00293844354654697
0.00801359633489131
0.00790108237324336
0.0159918615962423
0.0112687921970911
0.0193144552470661
0.0101470482693602
0.00967088227770747
0.0135797033732763
0.0144319913645966
0.0185961281052091
0.0120590671910892
0.0147256652817905
0.0158837453561868
0.0148736546544515
0.0136791652265378
0.0131673869813997
0.0168153884356324
0.0250927136053015
0.017655798630505
0.00503411415609176
0.0152287457798244
0.0154412694812715
0.00767103935834135
0.0213919853623546
0.0210861140488953
0.0165882386911586
0.0265612398943187
0.0251710590101994
0.0152083405502608
0.0181204438646534
0.0258165643000834
0.0215740615892478
0.0232138565792533
0.0219625234152872
0.0204328925671543
0.0263188815446583
0.0227082706873493
0.0309847993307381
0.0243024137857608
0.0273255207228342
0.0274044250378726
0.0234303091729918
0.0396534012916085
0.0238445256757692
0.0401528669801288
0.0284997359888482
0.0304984295483739
0.0323252044650373
0.0395547446603429
0.0378312590215221
0.0334522358910979
0.0360625535202316
0.0425204516420737
0.0372907851625489
0.0464347607637804
0.0394005934410197
0.0385522193872556
0.0456322671698979
0.0390401318610909
0.0475361937220995
0.0481031734975688
0.0443037149609843
0.0427292599778858
0.0400149829314068
0.0464461589658805
0.0544464917970473
0.0429738068229914
0.0508984436633723
0.055242488022002
0.0500534119199731
0.0576243706383816
0.0626862689354011
0.0569512864272767
0.0650887036371664
0.0734171874425886
0.0668388286066945
0.068928212161446
0.0772340768247255
0.0664826662936936
0.065229144705
0.0692586350901392
0.0852257444682592
0.0792210470394207
0.0734497352968168
0.0756424065956726
0.078317018866454
0.0969281433346322
0.0875868740244047
0.0807781890718261
0.0820567407605451
0.0891755561042461
0.0907613617663193
0.092993388251803
0.0919860164149949
0.0958452113252146
0.100036115427745
0.0867906410505885
0.105341266267284
0.10437288902387
0.0972246218075998
0.100332229791261
0.0984942587544737
0.114641983896896
0.102024099010206
0.111320759192196
0.122366162112357
0.117190896422937
0.119837723106941
0.122198159507522
0.132271311141698
0.127320966789813
0.111570378266942
0.129863863873137
0.127107330683326
0.131165381602927
0.133428413260773
0.140045607549996
0.148626203252751
0.149303407728252
0.14852996019837
0.152049215686615
0.149500251763635
0.162206899829905
0.147719028561358
0.152387664350239
0.161918736490624
0.172737360368411
0.15963009309861
0.167385733371102
0.177456564485485
0.179703349672736
0.177233481181974
0.169822681720089
0.181339728746683
0.176600673626619
0.17621974026028
0.186761259044961
0.19292527326397
0.206934429086904
0.205007919746628
0.211841059336978
0.208980577154521
0.21626438481879
0.198821525472788
0.222301506581981
0.206909556719134
0.223359375819171
0.231483593733675
0.226600331000203
0.240313657627533
0.235257612746528
0.228411098665894
0.244463378608578
0.224078803342921
0.2645993589234
0.230805380275511
0.257601397399615
0.24020720770082
0.264616494710624
0.257531845759838
0.274264431975487
0.260398092441151
0.285975231101919
0.269044590583806
0.300008185568068
0.277496113960611
0.294040757833998
0.27752906149989
0.298652091030736
0.290695838283325
0.301166793282991
0.302249300510023
0.327689447320542
0.30040758226738
0.316817388068528
0.329494966394223
0.302594174741387
0.315003258259883
0.353350973904031
0.34135658565178
0.348551446767757
0.33253673487649
0.343276815904869
0.334570585463227
0.357541258716358
0.356686102074789
0.375998510217265
0.357967133744853
0.361987301074092
0.336797499539355
0.383077506573233
0.375866683613677
0.373938663398449
0.386754052892294
0.397174009770119
0.384290871378953
0.40066168449132
0.3870065168978
0.417155965401314
0.431052207611636
0.406412075378285
0.408016610964041
0.442830926081858
0.414355827647432
0.428721882361499
0.429746949080027
0.445188215563148
0.427033752915708
0.438186894568313
0.437085451911668
0.452802754453102
0.434587438523494
0.491282899439317
0.45836390017844
0.467779403114586
0.464855723600751
0.489126627384847
0.452095361462041
0.495456991862007
0.45285554636525
0.499380328013867
0.500976220132251
0.529649004354331
0.494182321989323
0.514387858227026
0.509243080229701
0.516516469872416
0.518024753473161
0.540485585655092
0.505440553225726
0.530903458433844
0.521972580113605
0.54985796990669
0.528027287666049
0.544765951425329
0.52124610340942
0.561591766178013
0.547564200910909
0.56999583026956
0.544958707532633
0.575088959397646
0.575095700293618
0.606075437684363
0.586940623900704
0.604156922549967
0.543851489510789
0.603948788641153
0.584453704374275
0.608553183710653
0.593585427112448
0.604644837303649
0.592447402442358
0.63241939551226
0.618456198954018
0.621724510476291
0.595913383281753
0.647993885892645
0.654234431192572
0.624990833207877
0.647976731151374
0.657263569412377
0.630872546101837
0.630136758738805
0.632015985206446
0.675642515790068
0.634325573017754
0.65114703804414
0.629035105400542
0.676823851617229
0.673650192620328
0.668346791811283
0.662320786104481
0.682458086163402
0.675544258700022
0.67666538924413
0.670941772127654
0.689708391270983
0.669686411101381
0.713291747019227
0.677536137188177
0.727477356991661
0.69061606458087
0.736106582275182
0.713122946623134
0.764451837223944
0.705653717172449
0.734426462756287
0.682297588230105
0.715914298446272
0.687844925128755
0.751553285287007
0.728820624172719
0.752967078703077
0.728314388803534
0.739851399234969
0.716496335003168
0.770711844272729
0.704030717785362
0.781103455048903
0.756106022653479
0.741880582351198
0.753375667379629
0.774889569464438
0.730478704801922
0.784755300945402
0.738957929513461
0.766619730992533
0.737957112924956
0.756017427873328
0.768406985671474
0.809783846303866
0.77599364590728
0.79887846219442
0.801735533283507
0.782711731059744
0.75377913018854
0.812473253405714
0.734002972595992
0.782667163164192
0.754755925287099
0.82466105283594
0.811743367750367
0.830698876465087
0.792892682923605
0.806053495046192
0.76746752635672
0.818676926095653
0.798795521958304
0.817801891758973
0.798499502121122
0.842410313396735
0.796023490738503
0.851815986477946
0.793850370563575
0.847869779299273
0.813145920423391
0.875788597713981
0.784358353912921
0.838987333841623
0.823800810103112
0.822312594154001
0.775387355050425
0.860034335316451
0.811325175930539
0.841370659894216
0.814244827069317
0.843587995391392
0.871557456587566
0.841968178963642
0.823401025884695
0.850331495064744
0.819998147574339
0.820467154467288
0.849952362117819
0.857611634843487
0.812745138769295
0.863638566101683
0.84517777039194
0.863071565479634
0.813306316970708
0.881958633300984
0.822785881614719
0.807783979209732
0.812493522949349
0.835154534126047
0.83393788042311
0.931467913465876
0.867794001390317
0.870427764766996
0.821662293797779
0.852081015193082
0.835613134089125
0.861342279207139
0.849547950968457
0.861351839575251
0.836634592722879
0.838888116385131
0.832964692820252
0.885072628732094
0.835490244827861
0.850077765534626
0.850099273867198
0.865765303429339
0.848876507547268
0.876077540725469
0.865767366966328
0.851424750966243
0.825492364315655
0.887469044609461
0.820228880316268
0.878554281553645
0.830013069923865
0.849327897046762
0.864077449923627
0.865138146303846
0.85740500636389
0.869152790230352
0.821702329588787
0.837084105995682
0.797845645529976
0.844350662405043
0.800046255798813
0.857378276113842
0.829253267803742
0.824910187784127
0.821765164285786
0.816644289402473
0.803604397663966
0.833603087988043
0.824647295736516
0.826004915111805
0.831062491935549
0.842602413472128
0.833179641604767
0.855847411077172
0.826427856023944
0.845842754073248
0.806136831341995
0.84313068514812
0.824917788780745
0.813182259004565
0.821468795492631
0.84815128022833
0.794912749559723
0.830221058369186
0.817814014648565
0.839299516735616
0.82965621115207
0.845762026412948
0.797641150602717
0.826396805226542
0.817364145971695
0.846951119500202
0.794988632961126
0.829856224866555
0.803428288784293
0.818578323585038
0.783045209816925
0.806351660275632
0.805611292609479
0.79275329201284
0.767480589132497
0.813299154589272
0.783325575112731
0.814837840537305
0.796894397979542
0.805375871306252
0.749324003395762
0.770880444340383
0.771932227587422
0.790711217182712
0.755424051364766
0.777318258102064
0.784487952277798
0.791040244714533
0.761840007700092
0.776108572522354
0.76177665754685
0.7724053721389
0.754789807225672
0.758220826583244
0.782651090830562
0.752769293828535
0.73320682919404
0.753505033671009
0.750755441909746
0.766367811477343
0.747999148096425
0.73082059433064
0.722347613288532
0.750784824726643
0.724428481484592
0.721676886014134
0.738444412645596
0.733751986356928
0.738674941738057
0.721103147629009
0.729802152188027
0.731403272159357
0.706014021709541
0.703833890471023
0.682020594771993
0.723728329263953
0.709223942910592
0.696935558270341
0.691422803405372
0.721104597123612
0.690815483206205
0.691215580968406
0.693832716911075
0.684155363701447
0.662458966271432
0.679271034438659
0.688873277756393
0.669453819897087
0.66318806670449
0.675399423235951
0.663908938878008
0.660760463084359
0.662003619013155
0.676407751451278
0.661592042061653
0.666578650787634
0.647884241524736
0.657653522058761
0.634286025916598
0.64435651506358
0.630813180766157
0.639057367665921
0.630942488479663
0.649361374385785
0.631984378719621
0.633697345665212
0.631096094566595
0.62587024923838
0.621905351749841
0.623076814262688
0.618017845767002
0.617344367353258
0.594074025100872
0.611126318501296
0.596680317733387
0.609783513940507
0.596144192991475
0.594244994703914
0.57885901313701
0.595497967482278
0.594976750388895
0.586818409352671
0.5831866117918
0.585129988926372
0.560781946180203
0.564392985314571
0.571484488260441
0.577142658674938
0.554986415299079
0.564117366960538
0.557516355478965
0.561969208690125
0.554273478810136
0.554039519307316
0.554691880005048
0.545331976296984
0.535624810709072
0.548480647006283
0.530254688704532
0.537809802030932
0.534271648787712
0.538659754554815
0.534758144002391
0.510664048032117
0.523610632955092
0.520028685621218
0.517386211300488
0.516581261064705
0.49757003054867
0.51682970562283
0.497428965243533
0.49056617371919
0.496355329708543
0.492963759497781
0.479492515767383
0.492627314263537
0.491705127164989
0.485737966690587
0.479047751625769
0.47293609251744
0.467103039750244
0.474901657927901
0.469392480436176
0.470935777032126
0.462366684730989
0.459426747586095
0.463384493156174
0.449283775292139
0.441761457463201
0.457079376471344
0.449963035024317
0.442227106829286
0.43841441637707
0.435723675549301
0.436016670496795
0.427924376709802
0.426716636670068
0.430943782380778
0.423424377327777
0.422233307557521
0.42702084646145
0.422961073272137
0.419807371750746
0.424153146342625
0.408667409700217
0.409434640325934
0.400038515961686
0.40134567315203
0.394847265724671
0.394615264894035
0.396414463991106
0.392674150745708
0.38199983064819
0.385345852205191
0.382660531181328
0.381867387572722
0.378607988261432
0.377124847520519
0.371444117021439
0.374193701573694
0.377057188374317
0.368261130164948
0.359839072792725
0.370494274517407
0.364981586326197
0.355666928497851
0.358979722871913
0.364136593628407
0.35794458707937
0.353062850700239
0.352029202184348
0.350436144298558
0.346231526205268
0.352055049667128
0.342741888926186
0.340090386462055
0.338806468262613
0.331423492234862
0.330262136657791
0.328113578869277
0.324528238447387
0.325889883287082
0.327424746593143
0.321286669803604
0.317248998865623
0.322801776505707
0.318780916048463
0.321326140835119
0.316016404474519
0.312414256464814
0.312052861026935
0.307834546584019
0.306945967469952
0.307976085399119
0.2996210351773
0.301705542704223
0.305260190295136
0.305034399029328
0.306873542876862
0.302321609396887
0.298342515350905
0.296570263880293
0.283120403004912
0.280686821778851
0.289100918010845
0.292011632585146
0.284569116482435
0.280777461146834
0.278322632775959
0.279189133107426
0.279232532135233
0.279461134051018
0.273339414930719
0.269819772779748
0.275130637129567
0.26929497058323
0.264824839806756
0.266180088418553
0.261128614387406
0.264051405435613
0.265872313512005
0.266403447858893
0.258917325931261
0.252795957589264
0.259288361558351
0.255908079121393
0.250460398590111
0.251138687005095
0.247072022526025
0.245979242272276
0.249321483748917
0.248882671277183
0.244577687611342
0.241408001668356
0.24357583165372
0.244433215862835
0.237644380684799
0.2326060700639
0.232093413726239
0.23185465723003
0.230666504735417
0.231557306704318
0.228129607129744
0.230474938131773
0.226017922823522
0.224883287430849
0.223092664961968
0.221138929177978
0.223435001306232
0.221273579202135
0.218114908206748
0.215284937334075
0.215207829591909
0.212210091631299
0.210897281850101
0.213170594212836
0.210001676364058
0.207523372753949
0.204301082360448
0.206754393252647
0.205905843773133
0.203614376004224
0.201813885378158
0.202703833426613
0.199510359579581
0.19638363063026
0.20436254537743
0.202942051989346
0.193729458237206
0.190982053050846
0.194249207558074
0.194152224131557
0.192582746533973
0.195169924564256
0.195846122889825
0.190768766735773
0.186545708054659
0.189866979142967
0.193110808213058
0.185187541295081
0.18588704994346
0.186322398808219
0.180941809818091
0.186185587046066
0.184321196017167
0.17537306765738
0.180238956882726
0.183338123536884
0.181364644597538
0.179198035361428
0.180681572282589
0.182440720467781
0.17810262546661
0.178682879853485
0.178071982867914
0.177152514214361
0.18354571775264
0.185995699866439
0.179865390691193
0.180258627538449
0.17957559188659
0.177455616016922
0.176450309012174
0.175974955393907
0.180568584912262
0.178471465016285
0.183015482339262
0.180810184067354
0.178028736307308
0.181779586878668
0.181461049547764
0.186388292181901
0.188182257165467
0.186631214772062
0.190234027066244
0.19041809955913
0.192823268112158
0.197024875895787
0.19804198075989
0.19560578244073
0.199846484925775
0.201680282455948
0.197831550517348
0.200186322681508
0.203935684152256
0.206781803838469
0.212205074337236
0.200500682360375
0.203874386048139
0.207201580232527
0.210377602303675
0.213487436360611
0.213275240923238
0.220551926452113
0.2209102511856
0.222039045303505
0.219984269791082
0.223553890036863
0.230774269428033
0.22718136246356
0.228140861113881
0.228185430415897
0.228298229086225
0.235781662719161
0.234314374876557
0.234710438402607
0.239200728692782
0.239347678958701
0.23557379446159
0.235141984738401
0.249588510035209
0.255180726308315
0.250234688696625
0.247398176017477
0.255195079140937
0.264213103252026
0.257743964351672
0.258209585832597
0.270800535358114
0.271969021604971
0.269481999033533
0.271727990307878
0.272216471796585
0.279710565034026
0.281104413309839
0.274620425076308
0.274633023966989
0.28010475725179
0.279393851152909
0.281368965976771
0.289187229941983
0.283891506608648
0.281251314695253
0.28353310343892
0.279797606078405
0.278410188359532
0.279479207585818
0.27957323766549
0.279794455354118
0.275351422638142
0.281185086781953
0.281390764408668
0.278640194946528
0.276369961567908
0.277070123838058
0.274192311684836
0.280392422850705
0.276872290892832
0.276146731397314
0.276240704663019
0.276165954076456
0.271497662262515
0.271884127911135
0.276825472136824
0.273554940402141
0.27463904700437
0.279723148776858
0.280448925311232
0.273824625025766
0.275121003267435
0.278615428347841
0.27177582159974
0.268122114655641
0.27548113943264
0.279177350008986
0.272118744886405
0.271299777361004
0.269617916408574
0.276362711898645
0.278109026072971
0.274315523235162
0.272151623469052
0.270019106002254
0.277459420249607
0.279265783814545
0.274716819356645
0.274833258818878
0.268376656543227
0.2727055134755
0.26779777638631
0.267062260766566
0.27126140779917
0.264050464991848
0.268324185010982
0.271121553293669
0.264889298162856
0.263642301585317
0.26542901630651
0.265968407338857
0.25981514668014
0.260308056143681
0.256499824123117
0.253697820925819
0.252675131628377
0.25128786004519
0.250575194656768
0.245945864869288
0.238484020309816
0.243079166222558
0.24403494383948
0.239941339220124
0.231890942339662
0.223921904559822
0.229189531571671
0.222521134369025
0.220571961751174
0.218433440739724
0.217924024446041
0.215299373469592
0.21321099560349
0.210438889136999
0.215267230023212
0.214687824203445
0.210584773986505
0.207573138939157
0.204841810998997
0.200363581576428
0.197323713988219
0.196369420322935
0.189697341260267
0.195671818953377
0.194326836919469
0.188124706677594
0.190961444114436
0.188368722151168
0.183600502218088
0.182606556465024
0.181768800020329
0.179722103864626
0.181452522985122
0.18164408727833
0.178723569762233
0.173711982298135
0.172385603028809
0.169200494177784
0.170343199821331
0.169755944122835
0.167288896029493
0.170474670238401
0.167807832710245
0.164361291869156
0.16393750995164
0.163125037685635
0.164246690939618
0.16261178943042
0.160448173493964
0.162195072027446
0.15628837656687
0.160713525323844
0.152685551505124
0.154552167186904
0.159748509574891
0.155644385223698
0.155276815862037
0.152892593727736
0.147590588384364
0.149133348610897
0.150174935009557
0.148503186281889
0.148921603275926
0.143333174246819
0.141627129653898
0.147807340536638
0.145003234308287
0.146788606146109
0.14696990666049
0.146033452851163
0.141721100659874
0.138881367251972
0.144583462904473
0.140049039622418
0.13546696473113
0.139465801126016
0.136935595208794
0.136114565108218
0.136188656888415
0.137321099818475
0.137360202349324
0.136991400150048
0.136816118155091
0.132461284651484
0.132337472091927
0.133540751337814
0.13518932602689
0.130267738494274
0.130930755357474
0.131440892814309
0.130456133151436
0.127980078978876
0.129771493526392
0.1316319959112
0.128218801185088
0.128663547777696
0.128235770473235
0.130811524259318
0.126228526216236
0.12468184162469
0.121860044512533
0.124874590612413
0.123010995854698
0.126215389924192
0.119643814125724
0.121012141548341
0.125048946602721
0.125498307010637
0.122243428282811
0.118862096215404
0.119079059958834
0.120195248662123
0.117588417861651
0.119304007542687
0.121350031396577
0.122918030130824
0.117493441410894
0.121461734243549
0.119096237107146
0.118288662800412
0.121662891696407
0.117120038898871
0.117981789044158
0.118922176854481
0.115304478827573
0.117537292190224
0.116733910393609
0.11353478758017
0.116164833656095
0.113925480664141
0.111127631298384
0.116734331706996
0.113660481865107
0.119074515660289
0.113166426523501
0.113078407246333
0.113540179809387
0.116292344900141
0.110300561656248
0.108658691245631
0.115078816568314
0.112785749157633
0.112134163746252
0.113321448148226
0.109189583637267
0.112584604819908
0.112743055887499
0.113106341024961
0.107531222065853
0.112420292602276
0.110264272150714
0.109546677702759
0.111041297231986
0.109772080634357
0.109137787165339
0.11062964436871
0.107324082136791
0.108394367693562
0.109731149961539
0.108151960513898
0.106337960276074
0.105648263522284
0.107318523155527
0.107127662382281
0.108058295498155
0.105389875275518
0.100791790666363
0.103520980898425
0.104568141029626
0.105287828923365
0.106905287763012
0.107001910887532
0.103051722256524
0.104038370171743
0.104931079435427
0.105233594577066
0.10204672499272
0.099912567307378
0.0999440407180641
0.100757016805326
0.0995517902594619
0.102689525560148
0.102729482740724
0.103303718379658
0.100809402334901
0.101876329052149
0.0998787564649327
0.0996429627737581
0.100715798673468
0.0988348857357432
0.0993963196998563
0.095698153895842
0.0953854546808083
0.0987931280060102
0.0986390082111917
0.099892417475835
0.097229117869394
0.0980965922112097
0.0986311867030049
0.0900435006412682
0.0929309073310466
0.0945559773080756
0.0958553965106496
0.0954346333158171
0.094515331744039
0.0958626945943804
0.0905634580196132
0.0971683512037095
0.0925476395814028
0.0922067224718003
0.0922398791575927
0.0914399223443742
0.0903223844586405
0.0891174883703166
0.0926977426958732
0.0918920580163962
0.0859754449395121
0.0888105175866435
0.0860309076184233
0.0873979537077365
0.0853763742940806
0.0880293990808421
0.0849383754851264
0.0866296993557097
0.0879502517044904
0.0867449917510993
0.084653742201517
0.0869262696482714
0.0838654948955229
0.085506584185251
0.0873632450312885
0.083437323758704
0.081188512057939
0.0846855009807469
0.0800413734392062
0.0832112065471568
0.0824121185520856
0.079967622967587
0.0808856323098582
0.0787659622729251
0.0773760283144953
0.0793821411072874
0.079647629577156
0.0795678199455193
0.0772228544685773
0.0785178755696615
0.0776299782264156
0.0733835574196055
0.0741744356055614
0.0744160776532582
0.0787673364638172
0.0776590869017523
0.0727465574742433
0.0733480173980514
0.0730666062200507
0.071640936655252
0.0729964530618038
0.0763692772622391
0.0702551558597254
0.072601260475803
0.0732944191077071
0.0676840872878114
0.0708976432724379
0.0738172793346126
0.0716561526264102
0.071443819731468
0.0712952345558568
0.070563562458451
0.0690040072187197
0.0691983416870297
0.065910414223024
0.0685547418502969
0.0692074987603802
0.0676511400039116
0.0704332649176535
0.0663781870009483
0.064983242575953
0.0660882326581377
0.0673404537796149
0.0651495759819183
0.0644569243006924
0.0679593740320625
0.065339170245185
0.0649400401865518
0.0651896025472024
0.0630228201945637
0.0620028212255114
0.0626730787927931
0.0623160740349305
0.0620152245781044
0.0643233387464159
0.0620344286728784
0.0617012478556029
0.065092892833191
0.0651420086980156
0.0614779261673892
0.0601837223832151
0.0628960805887421
0.0624817169277903
0.0597836107042232
0.0590926514982817
0.0625415952038866
0.060275956324516
0.059680425898972
0.0627624540495872
0.0570989995913305
0.0577621040634367
0.0602471047568634
0.0599420173315281
0.0578410302963605
0.0589713030820489
0.058204612699266
0.0613167908023554
0.0579245685287341
0.0581750757355333
0.0577752120580849
0.0596943683305816
0.05636141171663
0.057167535460943
0.0552545409741522
0.0594393565605312
0.0577345860150202
0.0579670078286375
0.0566365438262086
0.0547614523591793
0.0570546517758848
0.0553447343248891
0.0587140177706503
0.0568292760693673
0.0541249018616186
0.054213358602211
0.0541193982083493
0.0572527637614454
0.0544509533081835
0.0540261553549094
0.0527347153749552
0.0538272426810395
0.0559081351343637
0.0558094544224284
0.0557655781535399
0.0539637120895273
0.0563119815963093
0.0520923184763782
0.0538413302275888
0.0541091061575515
0.0560169662197955
0.0514601505788086
0.0518082525057935
0.0508541715445452
0.0513948168485342
0.0529800592944851
0.0521219181330141
0.0526177305403546
0.051015759616072
0.0527835841685602
0.0519067265844803
0.0542173100394471
0.0521262800388507
0.0563623165510927
0.0511876961943024
0.0518686559916
0.0525138917894168
0.0526642298057037
0.0462558704727756
0.0506087571177244
0.0527457189795828
0.0501224914831759
0.049193476421259
0.0516638169961593
0.0516836384098086
0.0495225014661202
0.0507998753434825
0.0519079501649141
0.0512660656709453
0.0496219793785729
0.0482309258286638
0.0463696921508936
0.0511245020512532
0.0523144503364752
0.0468086047779193
0.0477477619301065
0.049600546554313
0.0524905212175662
0.0481569052319858
0.0472901607667176
0.0478810304387291
0.0495205550039995
0.0474502757843302
0.0517488196219974
0.0455082087174945
0.049950869278912
0.0476840804744688
0.0475628833521122
0.0502635397175072
0.0435365154224425
0.0477976188425924
0.0430084373405425
0.0514131251455956
0.0481154033540811
0.0484941863271192
0.0456196674005728
0.0474886440222937
0.0447795299370123
0.0444053999268246
0.0482364485689074
0.0445194280682802
0.0470673156025239
0.0438782119873229
0.0436620675168532
0.0476902106554405
0.0453174759992376
0.0457624151797712
0.0461097239502546
0.0441573955957765
0.0467243795391728
0.0400120617644164
0.0445675909253194
0.0391356751788116
0.0468076614486313
0.0450444036622211
0.0437865183813435
0.0439416809267411
0.0418226593589657
0.0420262721886774
0.0419134933988889
0.0426549434502807
0.0378271668892019
0.0395384194143604
0.0432184203348503
0.0404095009310334
0.0391985744601252
0.0389625412364175
0.0383058702549311
0.0400329735986198
0.0417768283776961
0.0407571060687559
0.0391467333193229
0.0396911940501727
0.0433740260640521
0.0342335118633275
0.0370753466702623
0.0362688753696905
0.0403172540796933
0.0376720242521546
0.03965960306612
0.0381053603083586
0.0386925324776242
0.0376398104008297
0.0350360829303282
0.0406722146118759
0.0364973082722722
0.0381485861725308
0.0360667524378341
0.0359220352244758
0.0363625746945452
0.0379879107157516
0.0370420266796682
0.0339551569088893
0.0363018780433637
0.0329635849472607
0.0354788441715536
0.0349137035782955
0.0358372561983065
0.0346903005994005
0.0355468183001401
0.0349860250957083
0.0350554338398394
0.0370337544532854
0.0356237076604096
0.0334412471550672
0.0338773246675106
0.0351096493819847
0.034200320187802
0.0319796737353814
0.0337538300614788
0.0352743333906262
0.0331045595890022
0.0368572934630285
0.0312866693147445
0.031817887731768
0.0328959751814421
0.0328661003610594
0.0284146431828077
0.0313210911845656
0.0324465692562791
0.0326247269258303
0.0301744722188188
0.0327040863898037
0.03179078568059
0.0315353643864259
0.0320435409286318
0.0287888746547059
0.0319452018298898
0.0291274815174537
0.031732552324437
0.0320020423911971
0.0330990027627203
0.0286296255134177
0.0297724625920429
0.0302073687448332
0.0287969381971716
0.0317114601322907
0.0289791383724611
0.0285595937921977
0.0285895335043145
0.0322399575534031
0.0330348332488267
0.0286866599587319
0.031324524153477
0.0264338734459561
0.0263583242955939
0.0287603046261793
0.0269305970005462
0.0267444388761379
0.0287926591487898
0.0308230501478652
0.0311124091199825
0.0289995903018667
0.0314381213915503
0.0280067850111608
0.0266188318673099
0.0275925042737808
0.0271892366883453
0.0281420580254318
0.0255014796500976
0.027324216506072
0.022181353434186
0.0290728669742512
0.022011033017969
0.0268289722823568
0.0255035727953274
0.02665079921942
0.0261124120354882
0.0279865288257483
0.0270399637753391
0.0248241858811947
0.023063560770716
0.0295479532034525
0.0260817126170481
0.027611344408775
0.0285333711555727
0.0304477122600921
0.026754800959761
0.024933253054455
0.0261848232706544
0.0235228880206376
0.023447049184991
0.0284383913454771
0.0216479567951366
0.0249838369708471
0.0265288225576899
0.0285036412524983
0.0261843048851243
0.0259673008540506
0.0249533339455538
0.0236973511096241
0.0245084072174824
0.0246088913376991
0.0240690833056501
0.0255681939939799
0.0267029805289688
0.0247023317322939
0.0245469797242815
0.0229784780660026
0.0281681591559182
0.0260411860894456
0.025365056766292
0.0263367487520614
0.0286948799959952
0.028074068338973
0.0248633744864083
0.0251419924420749
0.0257200335659075
0.0247818477495151
0.025088844061348
0.0235836801644458
0.0296114435074555
0.0221835383427169
0.0264455135548862
0.0230178081487637
0.028074741399794
0.023807586708403
0.0258731256538966
0.0224460348008018
0.0248993410164156
0.0213427117687953
0.0275274026367799
0.0199807173916181
0.0251242244174332
0.0242825009087195
0.0219481801880384
0.0244967017294121
0.0219555595885836
0.0238116136763386
0.0224689596445208
0.0258400033995177
0.0240034004682677
0.0222991347553581
0.0257824346570777
0.0255925356754235
0.0234816459700297
0.0226060982439662
0.0227760017822975
0.0218325538872455
0.0244041750907634
0.0213330929024561
0.0227866780285372
0.0267662080472694
0.0249980177974636
0.0204795103376769
0.0215070309227316
0.0232314642788976
0.0233176837404221
0.0240803491636387
0.0232326523504849
0.0213605596206557
0.0215077593927262
0.0258302589162395
0.0244188122276083
0.020657581154201
0.023107372173388
0.0244330945652708
0.020766873778251
0.0220725745295413
0.0216726288820443
0.0214659301139821
0.0225291674213827
0.0248628895306617
0.024775714570998
0.0229946152765793
0.0236399670630785
0.0231551010642409
0.0229723987223156
0.022391967610443
0.0223527449353983
0.0236790430529288
0.0238945198672604
0.0242322903195361
0.0214211894980199
0.0222041125935167
0.0256084152547067
0.0243706983494852
0.0229139517777082
0.0242003781276591
0.0212125119720712
0.0222698452534068
0.0226800751753135
0.0225597461403786
0.0210053553043449
0.0223891799388904
0.0219741504620992
0.0230613738723795
0.0218374472643264
0.0240946270495447
0.0226413024919442
0.0234457704024471
0.0239328573715688
0.0222958074994556
0.025087310995158
0.0230181053606934
0.0215668919396091
0.0239414767932378
0.0222409398997201
0.0219758800589704
0.0226245743197437
0.0235558840121092
0.0226958705610747
0.0232732078473163
0.0226838877792682
0.0216203454745695
0.0215627897236201
0.023354731205322
0.0219473309334682
0.0212769135700841
0.0235151931782257
0.0207957037174646
0.0234475115299515
0.0238102386150387
0.0270251164285812
0.0230671296006011
0.0221855355918667
0.0234321098578501
0.022393244381703
0.0205689155001398
0.0241155674406106
0.0210255164536085
0.0214456915043732
0.0213210644986984
0.0237324071952405
0.0222725885007611
0.0213601529809446
0.0231676094198598
0.0233041988803156
0.0239279807394361
0.0230992282268403
0.0224662635045127
0.0236166253376747
0.0233500497099994
0.0257637116556424
0.0238320430630949
0.0240973386334074
0.0219117217146883
0.0247625074104064
0.0251492179215346
0.0225251737044753
0.0228214729236387
0.0227880025968389
0.0228519752646916
0.0252874065309886
0.0248723926916504
0.0235394867614146
0.0249009536548518
0.0229301474630981
0.0218079318807086
0.0241042374142137
0.0231335443504763
0.0234509266250215
0.0219603144742099
0.0232147805439333
0.0230711550951158
0.0238950110192807
0.0219514873816147
0.0254010370031085
0.0243215343275069
0.0234679527313289
0.0253587577375772
0.0218276104986833
0.0238417758639664
0.0243136276735729
0.0254752120004633
0.0241909367924718
0.0232926093001312
0.0228938987012925
0.0262860564905793
0.024213620055982
0.0238924362282818
0.0246830233347381
0.0260152622511962
0.0254986415488666
0.0240317011600241
0.0237475631439566
0.0242972400353137
0.0236857517607741
0.0251846594262573
0.0264905026332507
0.0245175517563451
0.0221122418582398
0.0237737695882868
0.0236832829603921
0.0245254614921072
0.0239927644021571
0.0238524148367971
0.0254068274012362
0.0245787106983643
0.0267159488356581
0.0252083854433745
0.0254054542869992
0.0233085940243916
0.0255530957669654
0.0234144062283776
0.0224423158774431
0.0253667273291751
0.02635645941113
0.0253430222235686
0.0270864337625096
0.0263379998524803
0.0241549686089553
0.0235217492474696
0.026152844333933
0.0252161342704832
0.0241297522140477
0.0244139109965327
0.0257879696133488
0.023331503249847
0.0271125415755531
0.0244866209219227
0.0216596316679156
0.0245930157711063
0.0236676102181051
0.024853848167088
0.0245740228292127
0.0240287062110044
0.0245489798548005
0.0232322887593977
0.0237765613360205
0.0225776194682376
0.0236662426098734
0.0250858939379781
0.023032876179227
0.0247626944668377
0.0243339982616199
0.0250804941807962
0.023789801849488
0.0236963656572723
0.0234577761973641
0.0252823878802278
0.0257750183309811
0.0232434627988258
0.021766787335437
0.0229282351723069
0.025784852441507
0.0241306246543238
0.0223058263304937
0.0236935609656916
0.0239730439013152
0.0250020552350619
0.0239286399456509
0.0254576719289079
0.0239972854448283
0.0255617091612807
0.0246388884710994
0.0233440955935195
0.0227222117478337
0.0225456007930522
0.0240565024399194
0.0227195268956969
0.0225162258183139
0.0266669271207945
0.0230487005848581
0.0211237545528304
0.0245562019396277
0.0248260463789458
0.0241397614294822
0.0229955687727139
0.0210252039748763
0.0244276476637137
0.0237447844745709
0.0228975708912115
0.0216860814753618
0.0206200194974218
0.021047010174276
0.0231696399551346
0.0213199432107566
0.0217788908324304
0.022921317146295
0.0224775345507936
0.022035349443545
0.0229943649528504
0.0228585414254158
0.0244381590275993
0.0206437198299868
0.0215249714438495
0.0249156332485373
0.0217456833457137
0.022037504416001
0.0230651954140202
0.0218900720455929
0.0213565883504513
0.0222186945584737
0.0252967167602601
0.0246669155725666
0.0234615428661997
0.0223409165472601
0.0222143317332232
0.0210508060771389
0.0207175522603926
0.023413087945989
0.0229896509611555
0.0230003133353507
0.0242793577768269
0.0223342911344434
0.0213722687238867
0.0227461625394387
0.021457605890282
0.0224151672675281
0.024667490059498
0.0216836300658489
0.0228105939838942
0.0210292219342225
0.0216640839428688
0.0213154137000305
0.0217948670568842
0.0220644704340731
0.0221608677007054
0.0209700532149645
0.0226092854961308
0.0228413254358326
0.0221125981574089
0.0217220125539334
0.0201397902323465
0.021919963557262
0.021751990394038
0.0217827184294438
0.022009516530776
0.0219450571393528
0.0233640001724678
0.0238375573344758
0.0206598085305552
0.0211071731509923
0.0214502446653657
0.0236828090086978
0.0207844986207216
0.021594661727211
0.0191098190452072
0.020390400842412
0.0215162935940281
0.021404487477529
0.0236207043582846
0.0231276267508278
0.0218065966088737
0.0226412038082787
0.0205972382752941
0.0189950455153625
0.0217565217946311
0.0211235759248731
0.0178567857634522
0.0183924292480588
0.0203366826872535
0.0202236109014495
0.0208295927604972
0.0209570294610361
0.0217190925108737
0.021789275889568
0.0191638989005966
0.01987833183439
0.0205152933954563
0.0205187147674617
0.01925463508259
0.0213277410935333
0.0220729530554944
0.0207225814429454
0.0189156348491539
0.0175464641185814
0.0167163315725041
0.0181741522007449
0.020278979152202
0.0192074785667078
0.0217657968503582
0.0200444619835489
0.01853687370959
0.0185611196430416
0.0172519042636875
0.0186189918093603
0.0205642620457666
0.0194490940382524
0.0212383849782601
0.0204758462223526
0.0183823321029459
0.0187819813917522
0.0173253523445404
0.0202910055475321
0.0192190289710425
0.0169675827801553
0.0175527777182854
0.0185925048628239
0.0195403166518879
0.0176918352307879
0.0185939080519588
0.0180916550996323
0.0174976034304982
0.0185315942783457
0.0178413382043119
0.0183413407212898
0.0195159248606132
0.0186903253259216
0.0191560480082002
0.0172940251286514
0.0198946053923915
0.0173337960673852
0.0162738832055938
0.0187425768110974
0.0160551143414327
0.0180021215478443
0.0173223176284174
0.0176611865099546
0.0191804568241218
0.0181283240690797
0.0172350606036725
0.0176571307539067
0.0162600753525596
0.0178995685845955
0.0189369410956367
0.0185364627141697
0.0173809116769876
0.0181517219134389
0.0201027997289994
0.0193204858242069
0.0195180588296381
0.016557809739108
0.0177593666520005
0.018698476631396
0.0163267262326924
0.0186403514052466
0.0176591332776166
0.0175736209927694
0.018229995266764
0.0175414585051176
0.0179905284186238
0.0189175279194573
0.0184470960468809
0.017633641919837
0.0196951468477699
0.0168272025221174
0.0198781197984316
0.0189184818040197
0.0184195501181442
0.0183513807405026
0.0186485766983654
0.0185285684345232
0.0181006788920608
0.0178205984773781
0.0164574891567264
0.016406334055147
0.0165465548003023
0.0170385306003423
0.0182979957897062
0.017431732553378
0.0184148062997086
0.0171748847133421
0.0171984633723642
0.0155709409654315
0.0158257156617104
0.0188059842316459
0.017259993569035
0.0151245397240294
0.0171732514438062
0.01704787692696
0.0171711410907792
0.0166333877493697
0.0173125163492704
0.0179046301872306
0.0172670425829474
0.0169968119948714
0.0181519855782771
0.0180341655144049
0.0187764906131589
0.0189665174394665
0.017170340094532
0.0181376831536089
0.0166702546914875
0.0166890799424017
0.017161030265638
0.0164130842044377
0.0163895356489763
0.0176338373957575
0.017775019832263
0.0160892933281864
0.0166079594100612
0.0181532774840087
0.0172679445609968
0.0181981133270592
0.0168274996151392
0.0165767916320105
0.0178192698532622
0.0170784225860513
0.0166655814726475
0.0177691781449041
0.0196501165350306
0.018329822990933
0.0160475598939911
0.0166158215951957
0.0159490380442505
0.0177694297927165
0.0180159294914033
0.0186956334581743
0.0188037870435347
0.0171185842803414
0.0180721832634402
0.0194195637128956
0.0176455755060585
0.0155398364713003
0.0172438430244339
0.0170650322821734
0.0176733783684397
0.0157191860561455
0.0148630045579475
0.0169920054561806
0.0181357694441169
0.0169353728555375
0.0174831491895965
0.0188555486515319
0.0192188050472387
0.0181002603269644
0.0166746242219201
0.0175397651007327
0.0174900762036464
0.0163877664019802
0.0155222316018407
0.0165505179062413
0.0154839063931522
0.0168110862198477
0.0173862524852072
0.0183432087633312
0.0177187565376244
0.0179439662807767
0.0183581602416475
0.0170195339777061
0.0165934731951895
0.0192482200294998
0.0172646587144778
0.015907215724882
0.0162835526501176
0.0175887190866124
0.0179650077877204
0.0178202260459374
0.0156508809815277
0.0181549932994598
0.021989038912718
0.017008256393978
0.0196860504597953
0.0181763866383711
0.0183952590836244
0.0190168922357038
0.0179799737390427
0.0182555472694917
0.017818373874858
0.0183478882084429
0.0189513887882464
0.0169779929419814
0.0182672823861677
0.017519351109628
0.0156590181762492
0.0196181401111192
0.0185179398824323
0.0186697709638103
0.0183972589340402
0.0162127172353408
0.0211070911626515
0.0174236265293072
0.0179797823174079
0.0187487001865332
0.0179882602082226
0.0202784343001159
0.020499527636818
0.0195100977634207
0.0198142759167645
0.0200883312076325
0.0181257540139011
0.0193451944751011
0.0182505924021635
0.0184415311817896
0.0186467605794709
0.0205782919419011
0.0224593626147582
0.0188755406685595
0.0202661176054153
0.020357291636661
0.0175948477269528
0.020602776928667
0.0211111211445724
0.0205357610869349
0.0189320852914456
0.0211560270107263
0.0209601755254262
0.0183398464320648
0.0226754034276045
0.0213661267854529
0.0186117659826172
0.0203517980467978
0.0218595953810227
0.0201803334091225
0.0185068380428859
0.0246951168438736
0.0235777040798829
0.0237212584843151
0.0214139037628854
0.0208626580967487
0.0199706818281602
0.0222952961435522
0.0212609934657654
0.0200775657721631
0.0196621633243131
0.0214436513850135
0.0217419790997749
0.0197261633555016
0.0237088098491812
0.0210146071984488
0.0237393607129715
0.0242965238374925
0.0227127200920938
0.023276997580085
0.023940469462368
0.0211718795502255
0.0229072660502441
0.0240912292506418
0.0209955696423629
0.0234855149052143
0.020808277537257
0.0240019684670022
0.0252415416015178
0.0237115905418179
0.0239629570740009
0.0236605358171432
0.024091745476878
0.0215517381859557
0.0248756863955361
0.0258383787286272
0.0245692296035689
0.0246902997688139
0.0254409182815259
0.0265241321645566
0.025577338871328
0.0255474494778784
0.026386876098507
0.0276498778682419
0.0271942317888163
0.0259476352896034
0.0290718645792937
0.0263945272796677
0.0315623164776928
0.0308054291437467
0.0312932603515761
0.0293839935052706
0.0290699735169878
0.031151344984685
0.0318084957003462
0.0284255352774828
0.0311593894547587
0.0320977862505193
0.0360474455889683
0.031867253870449
0.0330629560205108
0.0348296070384459
0.0322900858476267
0.036762642719913
0.0372438794871289
0.0387246125990377
0.0389149340103876
0.0365200272254084
0.0365796804538457
0.0392815307267644
0.0392172595486699
0.0404368760077585
0.0428343328849969
0.0424461858377115
0.0393652639739445
0.0401404306814054
0.0422553401805256
0.040737998739794
0.0423834994097625
0.044862705228574
0.0444788047185999
0.0489176731500216
0.0501656485337144
0.0455051998291433
0.0457176364133377
0.0478659114453121
0.0507146445156252
0.0482282803867717
0.0473745658069437
0.0502021257320122
0.052194298696909
0.0517025153365381
0.0515350526562623
0.0540977079602866
0.0554693943722422
0.0562770795018398
0.0615590920759396
0.0568910054271045
0.058833823576602
0.0586778260569176
0.0639388599013024
0.0697412761267309
0.0698628376335004
0.0733480481077806
0.0738355941412625
0.0829935253825194
0.080558133227497
0.0875334848540006
0.0925409085769386
0.0935623441258015
0.0952598582497363
0.102334754139509
0.104966228726646
0.10824496216808
0.112017877702186
0.113157231988979
0.115767535112328
0.128203538477574
0.126796368660216
0.134950564860425
0.135026025494438
0.142933455572666
0.151080074530765
0.152467212597318
0.155502334619669
0.158888637068389
0.158369985583383
0.179146913707832
0.176807852141936
0.179423995434213
0.182994454294301
0.193612526577385
0.190949028629812
0.197709967532297
0.201225349478259
0.204464740937019
0.211013169590323
0.212144090613084
0.216612363751779
0.222811214678536
0.23070324314717
0.231716136468769
0.230103490935018
0.236051143631296
0.237201441628362
0.24451645795937
0.245329300336323
0.246110767826269
0.248225951586658
0.254305248157039
0.256031659602031
0.28672977446333
0.255108757422067
0.247496086021102
0.246722515002515
0.244304021968221
0.25413938814056
0.254717489163699
0.250889988942151
0.251108408198022
0.247763738521976
0.247353112041023
0.246297156905306
0.248625256208653
0.246160124439562
0.252580172535095
0.250286889668358
0.251018577478051
0.243815583834272
0.240435518035751
0.266606172596679
0.24705820621631
0.245591627762441
0.24423233142674
0.239011857739948
0.2464708342554
0.242218056357212
0.242615800467187
0.242428201769311
0.23465251248806
0.229870043914974
0.229705931159454
0.2323292326118
0.231409666422232
0.21989585575327
0.217611863803238
0.214906280804298
0.215056628472269
0.209282596876063
0.208047282304976
0.214794250206291
0.20584381109324
0.202162660180704
0.202149747476688
0.199258938466046
0.199800183132069
0.197191718827518
0.197596996362581
0.191056730431519
0.190695661831841
0.189738014812834
0.190142306367198
0.189765118697892
0.186930464045831
0.187101756209451
0.186642118721688
0.180509861878794
0.181327128214862
0.183696400069256
0.185291102885502
0.18700149211018
0.1857787727382
0.179992968681922
0.184686306696671
0.184991843948378
0.184862012996688
0.178271655916565
0.180639416918129
0.178877777108165
0.180577337629425
0.179056602504415
0.179973383044355
0.177074808469097
0.180284860951425
0.17847973833195
0.180642023056706
0.181415541646294
0.178168916649475
0.176343781379408
0.174418166220685
0.176143728990179
0.174608467957655
0.170020622162509
0.185957258972831
0.176316116428185
0.174022008713416
0.172892755535488
0.170592855327177
0.169804891823052
0.170630489977065
0.177200214117585
0.170156274367116
0.166803987728525
0.167889724904955
0.165993021855981
0.164929034528967
0.167875216268706
0.165307154670132
0.162221636296121
0.161587852199855
0.17010611117337
0.166313355546906
0.166736465041239
0.163972121403798
0.158303129620803
0.159144780389848
0.161800082093907
0.168326541717636
0.163642978589885
0.16357552719715
0.162450350171253
0.159266073962445
0.161812002314089
0.161305437876755
0.159238667871389
0.162417594644634
0.164965870383698
0.16488014149008
0.155871780724361
0.157712341459491
0.159871744939572
0.156491993829647
0.149802599319922
0.160174371970012
0.154273796642993
0.149660985224475
0.149727060938356
0.14401369045444
0.143643041714127
0.15330907186878
0.14249550526467
0.144268288141989
0.140049702062538
0.141626845966422
0.141658621107892
0.141942021479576
0.134210949999936
0.137184800849212
0.138749655329247
0.135423426736408
0.132481220925584
0.133319973677611
0.136811641173295
0.136313304170232
0.126610225368917
0.128013055897008
0.127913601056464
0.1319741733342
0.125659846939384
0.122105061215865
0.120571266485712
0.120816588932183
0.119269831223441
0.115516983983625
0.11578147808541
0.118465830493275
0.113882078742746
0.109723676149078
0.117881428596143
0.115520562686519
0.11187924125958
0.111990393480859
0.10982176512661
0.109275437270069
0.107769352694197
0.108596607340371
0.108223296435767
0.110112550950244
0.106934961014689
0.116616368287156
0.110138263761186
0.108479816679357
0.109569692863488
0.113037778795927
0.111092777261643
0.118120587187938
0.110913156827996
0.115789916909871
0.116779850038115
0.119248587042641
0.12120351019026
0.120547732983505
0.122447572002184
0.125756834434728
0.124419571866403
0.133976572255898
0.134561002998926
0.135863453920853
0.141144462108465
0.145933438804628
0.145218003230074
0.152689052919207
0.150429023398113
0.156808371328185
0.164168559448326
0.168524729193824
0.173160180132109
0.172760304788012
0.170259866235019
0.176631020171335
0.178707255139689
0.181722702580523
0.192245782538466
0.199519485102496
0.191050453113271
0.1918392509886
0.191885059687572
0.200884970926659
0.199616461678655
0.206531989594317
0.20675048302066
0.209243462591242
0.211723768100932
0.212443828154973
0.211884509594786
0.209183110865049
0.212013382764163
0.217898981672193
0.212655868713806
0.218960726016362
0.216207648153329
0.227988583592762
0.221898208423829
0.227241769455506
0.224625319353169
0.223860710483287
0.22658404166643
0.228808730151413
0.230138281856455
0.231766715488632
0.235251552840353
0.235283938718617
0.235989903283736
0.252883634914009
0.241467741154862
0.241579250170999
0.243168489452568
0.244818412517109
0.245393160922314
0.250110577318132
0.253301810839192
0.254246232293523
0.252918152648319
0.255525135389
0.257691635006279
0.262083850275216
0.26121504277007
0.262074497042951
0.262261580298023
0.264704060813561
0.265134702851137
0.275639719938644
0.273778387458945
0.272463085102917
0.273731096696627
0.27513534950116
0.274872448603271
0.275678811371973
0.272623298808618
0.279825272061064
0.278569457783809
0.277310570058932
0.277021094230666
0.276620531150513
0.276511121801063
0.274228994829997
0.277796450434663
0.284264081160545
0.27637400208932
0.276524959268938
0.276759563505557
0.279501359097959
0.27137577145734
0.277342323634542
0.275781184456623
0.273609142536598
0.271160089497525
0.274345781197964
0.272957455908726
0.275872426677852
0.269911563324426
0.272581488398592
0.270348311998579
0.274566549005357
0.273923534921259
0.275459659020731
0.276226686303503
0.275653378353498
0.275460648706089
0.280515010252915
0.276148623225491
0.279969580174106
0.281592076946242
0.281764456813733
0.281344270635133
0.28336211440902
0.282517172400965
0.283482362117631
0.279998356537468
0.28344331369037
0.283028786292979
0.277510778391316
0.276514310311706
0.278299974429396
0.274197263909682
0.27456834685335
0.269787521252566
0.272581882258158
0.265757389165294
0.268497846351384
0.261131562223533
0.263020034637872
0.261769517337301
0.255584741737041
0.251525605552238
0.251859667950237
0.248370503353468
0.247286393778881
0.243128132533897
0.241972134112329
0.24014754604839
0.243269519974311
0.239748875555538
0.236878824661496
0.236820056682693
0.236643749646646
0.235974925276197
0.237160733641742
0.233576957115422
0.235433627038069
0.234638352381887
0.234443150277001
0.232214361153627
0.234253907217441
0.232511068464698
0.230438314675348
0.232013217426714
0.233510872162907
0.231428447926155
0.231981341285082
0.230619786626759
0.232091061612038
0.229622702630151
0.228155439487589
0.227903679632768
0.229767510978302
0.227795729197012
0.228453304960934
0.229051697508664
0.230550883282467
0.229598029623177
0.233169582130992
0.228709176126566
0.229549253441456
0.227378892737873
0.228178499774199
0.226764701731538
0.227378309473224
0.228223889647786
0.228417142813488
0.229420910078921
0.228192101092291
0.230604895092846
0.228789341912071
0.229601877483547
0.226847055407986
0.231071928768358
0.228692147920168
0.225492324909332
0.230895314186878
0.225489572813662
0.229260539066365
0.225151635522114
0.226859085157021
0.226414854076722
0.224649233278723
0.224288584044168
0.222171590404019
0.218603934318484
0.218014729022045
0.214490976571069
0.215776569076208
0.211793445955665
0.213539079254924
0.206981964767097
0.208132410889933
0.206890196513535
0.204262134088541
0.201676317886773
0.201992713669095
0.200639134719068
0.197833191046351
0.199612997310844
0.194991380328165
0.194512686000916
0.197006102205021
0.198083769858915
0.195782908572199
0.194710176860399
0.193237343484719
0.193614573904902
0.194847487153409
0.19515148124336
0.193410832824805
0.194689431878522
0.194327414896919
0.198850986996893
0.195166344625449
0.198791982461256
0.198244821521002
0.198525305801411
0.198484471462158
0.19970074335516
0.204226497819261
0.203187678708454
0.202029599864959
0.203905089509132
0.207519869912161
0.206071795562579
0.206854857385672
0.208928427715608
0.207600619358168
0.206904201911721
0.210982189109667
0.209115244374166
0.207739433326403
0.208944306185823
0.208539117182357
0.209184882841906
0.210356016471931
0.210052410328237
0.210186906746104
0.207227965529761
0.208427065828856
0.207894506674014
0.205828761221113
0.205794954785429
0.204543759748662
0.205873856444517
0.205539018369554
0.203916204388592
0.20306697422905
0.203035268972194
0.202019103570992
0.200280212914466
0.201402608527001
0.200509593740435
0.19726020824768
0.19877591267348
0.199140326590935
0.197317128543806
0.196297149002384
0.197415864249949
0.196637955346149
0.196478262613043
0.194152287565441
0.193580313145515
0.193713531093186
0.193031296098912
0.191752120204456
0.192191651246196
0.191036545848003
0.190935802169487
0.191049243780557
0.188308702662494
0.188672633773259
0.186045532450701
0.184733157697358
0.183472121001443
0.184348777734199
0.179862944069339
0.182002471516665
0.179459612555419
0.177572904183919
0.1790537152902
0.175959748438229
0.174238614831131
0.173606238825185
0.173858518504478
0.17104683966242
0.172187402410687
0.170732317786993
0.169666394459868
0.171867909418356
0.168927137359474
0.168563755274601
0.171531682921654
0.170091510812009
0.168579884989545
0.167422922868983
0.165708243510128
0.166709364270761
0.166224685960459
0.164373044290933
0.161560934193607
0.159597028298999
0.157539442575551
0.155890392132232
0.154279076670575
0.154303092703508
0.154660727771586
0.155694378053888
0.153561950307114
0.155534199485761
0.158856826935535
0.159079429741491
0.162509746206005
0.167703983444755
0.172344256848865
0.178823937844384
0.186166240918353
0.191557077885512
0.199995411259131
0.207223989884895
0.215879663721082
0.227172692807992
0.235932596990697
0.247455424572271
0.257032780091264
0.26288621122992
0.273422140266792
0.280910331560201
0.29315694018956
0.297358804113122
0.306487974004655
0.315992578069851
0.325280215616505
0.332563794549109
0.335761175418716
0.342401235028431
0.350678099410893
0.357471320284625
0.362141634853077
0.36665882077983
0.37148877053739
0.376930470127274
0.378813095708785
0.382247131970503
0.381282745898665
0.387897237499459
0.387325777916199
0.39233123280999
0.392481933138649
0.393772947075314
0.393144287290945
0.391855768214433
0.39385216365994
0.393502102017244
0.39251469212782
0.395481599895292
0.395384088990197
0.399631964061413
0.397492817048663
0.401470579258872
0.404101215415938
0.408971090910867
0.407256921044495
0.412325492301731
0.412040070108102
0.420197782913813
0.422562091488507
0.424901427625015
0.432643204218509
0.43159915787628
0.436488442734067
0.445488902126152
0.45131113333351
0.459701710709073
0.464130372360889
0.471477890978756
0.478188543416119
0.483045227321778
0.487814454794751
0.496565922363196
0.499700916256912
0.503217401262008
0.510716251552125
0.506991308481381
0.509552981929033
0.509705180660394
0.507764752860977
0.507821040296078
0.504855485133612
0.508959331008419
0.501194936046765
0.50159781167138
0.50460605779986
0.505537899062325
0.507427745334339
0.510298680964606
0.521163899180138
0.524186246800279
0.534089548419027
0.542749037386163
0.551652887861051
0.558655036345074
0.567512736448919
0.580408396314574
0.585623147329751
0.598099021821975
0.604293673117807
0.614356170065284
0.628047235222488
0.637483615457259
0.645887441147908
0.660375721580141
0.65942044547631
0.674857535103893
0.687088116327176
0.695806112903462
0.710270994477392
0.719800944906863
0.740048915425224
0.7463875977726
0.7551123507414
0.774264612601931
0.788417954622349
0.791228314960186
0.79887084592798
0.809287559561518
0.816925422304811
0.828530408488844
0.832831650786587
0.832855802136167
0.846007868624251
0.845601382077089
0.845451326750106
0.851766754311036
0.845334820368655
0.842698591998834
0.846824028805491
0.829584107621366
0.826432472811418
0.825111596250779
0.825306043006873
0.824987288077538
0.822456818108429
0.803086963090794
0.806802958010768
0.811047566989016
0.804286438485785
0.804328206903947
0.800589629648461
0.811837516210021
0.815685124226098
0.826778994810742
0.831738460779497
0.844025503305593
0.84375546432582
0.848024709361887
0.858055297450836
0.851769806404046
0.857656003871598
0.863899429585928
0.872808854368695
0.877920942769814
0.890605787594287
0.874491156080131
0.885133806978493
0.892679650358266
0.871494761064395
0.885441895584517
0.880029886801853
0.88298283053946
0.874473345788749
0.875597469572736
0.862177121867943
0.864004214824068
0.877468034724058
0.865663578638985
0.85381832450888
0.854511231446889
0.837039631936271
0.835774871888811
0.831310524320651
0.827953644127561
0.81701037153597
0.810483580649347
0.800621325127961
0.789295491428403
0.783783238645917
0.773391465999611
0.750814890123445
0.743376416028133
0.722372732545962
0.702166552507294
0.686895713450309
0.662143693488656
0.643151698015427
0.616003699239675
0.594457692274483
0.573627588812938
0.5510858626632
0.52611155484077
0.49914026167087
0.484317023082368
0.46595740253233
0.456159842537663
0.442906245237316
0.431524217106237
0.426776025534395
0.418548260427731
0.411346769782412
0.414973620701636
0.40757618573701
0.402989787874735
0.40256871502476
0.402130802097697
0.393097070444232
0.386635845412715
0.384140503169417
0.376936251227149
0.369280785268671
0.366276884695584
0.357724168412609
0.344377857861079
0.337215878701458
0.329526533572251
0.322143251283512
0.313439340174955
0.299235568633834
0.291062490219523
0.279793162954012
0.270241421455303
0.256967836609774
0.242980789912996
0.230723759298576
0.225231367771614
0.213431142266923
0.199880935539333
0.189836802688044
0.183361689149664
0.175267147988557
0.166466486175126
0.158964017420643
0.155671152676311
0.144435872388735
0.140709967173753
0.135488043064631
0.133893560103195
0.132996385107234
0.127280413722276
0.122718095435677
0.122213804556338
0.12006613043088
0.116451860257104
0.119192433169674
0.116929387450549
0.115122485763895
0.114798185108415
0.116067171654652
0.117101518811674
0.120604831612315
0.118646891694303
0.119870942949928
0.1199078372171
0.120946397288184
0.121739471565424
0.120311880160411
0.121597509408223
0.119781146220404
0.121487755734781
0.118811554886303
0.117182383693828
0.11951601719736
0.119784702590453
0.119072109274013
0.117430000940441
0.118962969190169
0.114468683412736
0.115403503769629
0.11531504294098
0.11166939907784
0.115172024470767
0.115708297228891
0.115929843727215
0.117433036294721
0.119097025827434
0.114961367348912
0.115349492359923
0.120863657381911
0.121350345624025
0.123138611595659
0.125577986078006
0.123175052980464
0.125482729245487
0.128584914062545
0.132130134919944
0.13081627434593
0.129791638280022
0.133889445468183
0.131868931616883
0.13351219028384
0.131916218150201
0.137280039313163
0.135497268104435
0.131936559810971
0.132195653688953
0.139565365771681
0.137697744700005
0.13403736396743
0.141108985676998
0.139137029560471
0.13912015546118
0.143883307837253
0.149720894744354
0.153267638869256
0.15640721780986
0.160705360911068
0.159544667858249
0.169464118048574
0.177895390219324
0.178040271618967
0.182054593910493
0.184973908154567
0.19333443892517
0.189943993779948
0.187956656302678
0.189242425088125
0.185656420808746
0.183036595781381
0.172490013092228
0.175765853040897
0.1741489952986
0.170093009841907
0.161954552663442
0.157332196739742
0.161402898173403
0.161324632816582
0.161148963279229
0.1575946850454
0.158771931805057
0.160510990913625
0.156657865154201
0.159301986097343
0.161344544236382
0.162029067019794
0.164813165477871
0.157572858258103
0.150078144848311
0.15437141963607
0.154227751973246
0.148980682797256
0.149926146696255
0.14394986904037
0.141909023088939
0.148520625834051
0.140163387501848
0.139249366712017
0.138758746963361
0.13923476838944
0.140469724701277
0.136452371041913
0.136554262007916
0.134112038257627
0.134942788734372
0.127090358911978
0.123400953291151
0.139492942461756
0.135839117978239
0.122838199726415
0.130032465922294
0.123897960933681
0.121371301850274
0.119822967406917
0.125496183398058
0.125244791932167
0.125701692802931
0.120598412075787
0.118518399837652
0.12040578309139
0.115934114394366
0.119792270447926
0.119860443401469
0.116236639548954
0.119600425386347
0.11833871532605
0.112662145184644
0.114223649899426
0.112844802649282
0.114161580025918
0.111652074275359
0.113420696031553
0.11114674232275
0.108019293074165
0.115693335592874
0.109177349351583
0.110726264070299
0.116790266113916
0.119395328111793
0.109967486700623
0.119484041128312
0.116230816817686
0.113973272678818
0.118939845651248
0.115791250701364
0.126296269660772
0.120956257079357
0.120833888265134
0.114775505590986
0.117560725060781
0.120258074036622
0.118548371748522
0.122129397876655
0.120639271120732
0.120531389796016
0.124991153653076
0.132283062317535
0.129555442948155
0.123075135242055
0.130694959879622
0.123825082605574
0.126159954274802
0.138604312550165
0.154261829585073
0.142423413353838
0.143411460715832
0.14823424529573
0.148364205475361
0.156425700864152
0.159879514906231
0.173926084637693
0.183995621539759
0.1881418389582
0.190569244677012
0.195491023601193
0.207074307608513
0.207495392928757
0.213194640818674
0.215048944894995
0.221830986203925
0.223152957561346
0.234615807390186
0.224833520754465
0.216985249837175
0.231829583694176
0.222910554647312
0.209144653635508
0.21927079080247
0.232163813867636
0.217784529949198
0.21068343306577
0.217065744908349
0.220349671255487
0.209963003650604
0.206653110426158
0.206705200049123
0.20327618102853
0.217569226613463
0.214279911699525
0.210438262959319
0.21128501126147
0.198036197887771
0.206631568942121
0.204687496697372
0.197606507294361
0.194787031700974
0.200692813112046
0.191581090839559
0.191613928662977
0.197599731253785
0.192507980569341
0.187686555145047
0.181863608883435
0.195969723232976
0.189460201212183
0.176217578615282
0.172281478269423
0.181828540344536
0.173969097547756
0.182370536646889
0.186206662529109
0.180268707503909
0.187706567223244
0.192284419330809
0.170058937171165
0.173446365845459
0.180260574249619
0.189945507588859
0.189882460048104
0.180269201487326
0.175013274581719
0.18591905676577
0.18146754506617
0.19592180281276
0.19340818159249
0.172496609180819
0.197038730277807
0.197063566448391
0.196964162736483
0.209220105202045
0.205915214232724
0.199645467986793
0.211678686371203
0.205041807859734
0.201487400642672
0.216729560546808
0.207158791105575
0.200923161762143
0.216075759207036
0.218388385449856
0.210327334472458
0.203200049840831
0.195815418985288
0.215751102772243
0.216054209434668
0.230506448809938
0.217169018509079
0.229706012207345
0.253050036018965
0.262495273463928
0.270988422924961
0.281647205193994
0.24147525976137
0.255771563325428
0.277402751938054
0.250415008496703
0.284007814796239
0.294051237502722
0.272509466826475
0.287093293809048
0.252798404694054
0.259852863606664
0.255037331629253
0.267400798858795
0.263666366697316
0.263827769554772
0.268662450708464
0.270215761133743
0.27043478277711
0.250570346793976
0.239050943173389
0.210600054249451
0.243891296551911
0.263056839587504
0.189308899411347
0.221478586039277
0.292045158077918
0.24635728108283
0.221397362246985
0.247376669641325
0.278040205719056
0.246345776316683
0.220182432953481
0.234988039019908
0.232759682810716
0.224212252203041
0.270189158318442
0.317562691082154
0.240804408744152
0.216428032264766
0.29648419463571
0.375171100099612
0.264594615055816
0.245080285521111
0.214929441279455
0.220650827537481
0.35375968277992
0.273815992631395
0.259031166922266
0.242209989283783
0.127041855755601
0.214620946173152
0.255364592527871
0.29887447628515
0.242192501334392
0.336405593066007
0.397734960761801
0.241540721492041
0.358730809921111
0.289390903306315
0.164020805252373
0.260164158482766
0.241739654727937
0.297299795308041
0.322224680152206
0.359715937231197
0.35236539696992
