3596
4000.36533379555
650.420452594757
1
2
2
0.0579664815606126
0.0447041600931313
0.0546306807189253
0.040864707360565
0.050810378129754
0.0422307456117517
0.0512381600677077
0.0429622538522721
0.0484106450330831
0.0288224621704347
0.041079721972993
0.0441337782576236
0.0485715849900739
0.0391528060925585
0.0460144923124568
0.0376427129047766
0.0445874727898932
0.0443173875982944
0.0506503529682788
0.0421364715761031
0.0551319194449129
0.0428059435876998
0.0539796041881929
0.0351434952047255
0.0421433361262499
0.039626013667952
0.0487332162159322
0.0465005241149758
0.0504939658662392
0.0389621137155893
0.0486702228400629
0.0395470494856656
0.0363807697094238
0.0427739179065778
0.0495182487568483
0.0350253939736473
0.0428826532866795
0.0423373223306059
0.0593058495482111
0.0452792355648889
0.0514808444267561
0.0449101986199584
0.0435324088333738
0.0379604741467437
0.0420234922919055
0.0402054022310076
0.0437063478272273
0.0366810536082767
0.0480929664375243
0.0442101232682275
0.0518981560563503
0.0413035799375193
0.0457663797334109
0.0414919364512621
0.0312541450644794
0.0350807926469027
0.0396406206321955
0.037842385960054
0.0476272728772937
0.0438988367009282
0.04426729529404
0.0369451489126712
0.0461284431063422
0.0379425038137087
0.0443145540949452
0.0338054599549097
0.0410702251000188
0.0421522463548685
0.0492117071769909
0.0392004347220813
0.0448951317815125
0.0418189913538988
0.0482140643520897
0.0322612285484253
0.0512459520345825
0.0357166978393908
0.0436572687656659
0.0321818451840925
0.0418415460854054
0.034786101256681
0.0557158941153106
0.0298098341520868
0.0428720143676402
0.0383807820542492
0.0442045984256707
0.0359973916338291
0.0556714271802653
0.0332484110863231
0.0541309088105913
0.0353388028009297
0.045392614725639
0.0335871569336146
0.0377143295763267
0.0349896790394541
0.0523164391889406
0.0387530371324364
0.0450649814619421
0.0246116466643359
0.0495027571550789
0.0299742979792964
0.0556263684264744
0.0354164459523623
0.0444574236154231
0.0357750037332797
0.0276911688522571
0.050525574600373
0.0284496461437593
0.0423190511623279
0.0480007121126815
0.0387072083024031
0.0425755365322293
0.03157203749945
0.0357225323207014
0.0269501748997782
0.0536444885853197
0.0416898478650159
0.0515972316858486
0.0308031708513818
0.0387845825121347
0.0273615005837989
0.0514382878546399
0.0183104563481402
0.0516877252132701
0.021467817664603
0.039971514383507
0.0349412663295156
0.0472677909692394
0.0227642203212721
0.0428213532542595
0.0283055090012277
0.0437795111535291
0.0331857026612441
0.0517496901944794
0.0365129754152905
0.0470703263598868
0.0267034611377748
0.0368308246760789
0.042242185150005
0.0473636583462809
0.032220563839328
0.035685998766031
0.029273417918306
0.042944341956431
0.0339973276842908
0.0478499317797608
0.0240977918224504
0.0402611562454713
0.0329591523428843
0.0374556336558465
0.0184276002154339
0.0337506281610336
0.0397940977930646
0.0390554600205434
0.0323893163754669
0.0638403432304675
0.00366722338086547
0.0624717994257949
0.0320116140834841
0.0408211107746885
0.0344814038220647
0.033741672808119
0.0336080808805872
0.0288813735744963
0.0397966988813818
0.0317953350516793
0.0406227676985794
0.0388275081851996
0.0380965276845355
0.0451460136108457
0.0515271936773099
0.0428799732755287
0.0333903930260774
0.0603421468598915
0.0193864042055829
0.0424327666439891
0.0267146864493826
0.0493207349304407
0.0253076903966355
0.0473300151722295
0.0271316294808663
0.0315391925653573
0.0348911716061119
0.0348118698034743
0.0305785416223066
0.0460349521693448
0.0281853655544895
0.047971387804147
0.0335422116406496
0.0415434876874658
0.0444202050538377
0.0537926495174203
0.0259336521467203
0.0408131479855628
0.0263117456986472
0.0319313375418513
0.0498747187794569
0.0298904062886787
0.0292973449143067
0.0273478488366227
0.0357069774036488
0.0358089430554032
0.027624461274404
0.0428573655989244
0.0332180312775545
0.04127403352293
0.0444207364494427
0.0334421163546561
0.0350780037722864
0.0376735032466932
0.0425710298316338
0.0394302064449381
0.0394242479391314
0.0360237516211921
0.0397867620628239
0.03701125778689
0.0334711238156946
0.0322316581716539
0.03907307089355
0.0410392317459601
0.0392062522521527
0.0370334717002471
0.028559736076063
0.043807628132103
0.0337877034840411
0.0359512831555532
0.0327626923575884
0.0323996841159501
0.0381253640680815
0.0378072133269616
0.0395791330761066
0.0353574177114997
0.0365221945584042
0.0474513008312069
0.0310950616544518
0.0528106581623713
0.0362078991450035
0.0414807012006155
0.0375964236419734
0.0371404778549226
0.0355102630441592
0.0365079757273098
0.0359815875508959
0.0405238550862291
0.0367246205776019
0.0401106101016576
0.0525385237771168
0.0321310476817747
0.0419396213283448
0.0298477370781896
0.0576898528484545
0.0337281622786908
0.0521151342666821
0.02884950608213
0.041170605785484
0.0312761936482737
0.0487839799093346
0.0325740596656816
0.0378452762481727
0.0446629382885482
0.0482724055399274
0.0308609817653177
0.0408243806693296
0.0381751051837958
0.0357495460562541
0.0637676141511128
0.0307870054181939
0.0537469264141018
0.046531883560061
0.0296322791016532
0.0381016981955866
0.0295062733731629
0.0436664831908546
0.0537038313879372
0.0112843908038478
0.0377861125169162
0.0430857278388544
0.0418886060399048
0.0282182452089086
0.047780060107216
0.0376204193029707
0.0624195214760666
0.0519138329259573
0.0603424659382247
0.0576542474735869
0.0223838866287499
0.0707336896797434
0.0341869659560082
0.0404746962224054
0.0298974079590809
0.0392108733622041
0.0369702005817581
0.0536099430638056
0.036795908342879
0.0466214927665797
0.0347626190376168
0.0473168546211931
0.0546480659687046
0.041148528685264
0.0473881085235767
0.0404653334297493
0.0526384951894564
0.0433277720655039
0.0439856069506769
0.0434937895360894
0.0530166443104687
0.0420247559618089
0.0555188311292343
0.0483248159059744
0.0343207693069223
0.0481707195926669
0.0448815189595091
0.0303902529971162
0.0475973440171656
0.0451437945619561
0.0498287627016328
0.0497617566816916
0.0515603804632685
0.0414219467328293
0.0588664718321471
0.0383722763016178
0.0502859678271639
0.0500588655669063
0.0521192917837451
0.0501289797301779
0.0506360910432843
0.0511508096399947
0.0563374558610222
0.0555692407547128
0.0488484890417774
0.0620219170515051
0.0592802646926881
0.0506915516186375
0.0770877995144306
0.042595873744937
0.0564506350918369
0.0589169467212409
0.0599519015348731
0.0629057699651811
0.0539828986473823
0.0536141145661966
0.0605844878446995
0.0713291650553239
0.071434137999629
0.0592751480102809
0.0667004781459507
0.0770265988140301
0.075244618928551
0.0659619483701715
0.0502450133853031
0.0748002132724256
0.0617928806668956
0.0932832991263929
0.061421212968304
0.0718705115449894
0.0728461495095101
0.0631585890367113
0.0899039046890653
0.0779313406417324
0.0831146508047217
0.0797635447597637
0.0896204489176361
0.0736908725401476
0.0994698632357708
0.0897555387495488
0.0983784639042551
0.0956793297946461
0.104923408142981
0.10569372288664
0.0948982960399084
0.100512913968585
0.109724264033732
0.102179009252837
0.124909176320351
0.118279419359537
0.130999829967367
0.100995787410171
0.117800532302105
0.124149213004976
0.103599609806402
0.121193493875508
0.108987268107622
0.126766512986245
0.126545350085798
0.129984465280617
0.134053079711747
0.140980664106395
0.13609503814381
0.148083314732286
0.131778611077883
0.152044571450161
0.14180003703314
0.168552749258961
0.153614727973825
0.170606344734692
0.151689565894248
0.165652271048769
0.165844242710154
0.200039353048947
0.165790859881514
0.166206025313661
0.169220538268785
0.167868709841522
0.179676686719115
0.183253127508945
0.191043759652658
0.196439273482755
0.205961413038668
0.203926054407875
0.200283522518007
0.206010892652553
0.187355117762742
0.211393394098248
0.208865381785405
0.214849125969395
0.22945337460462
0.221566335201275
0.21012963276048
0.254579860231762
0.225991268928027
0.233376412917335
0.241876903972632
0.219763596372203
0.242595981298863
0.242129609239705
0.255277878097251
0.253781692275538
0.25480979242158
0.250204412399555
0.248268743683791
0.269628294067123
0.272434509287072
0.280377064006642
0.286039434418817
0.302555085644241
0.286767584663445
0.29256102201875
0.270705307883306
0.315706417850391
0.300549298089629
0.317399463118178
0.302280583479337
0.299456015676118
0.333578948966221
0.302588153746385
0.302380910630657
0.32328567061487
0.319524182707062
0.32111725460457
0.329985809320177
0.345467770948679
0.339317923293072
0.345473698741538
0.356088612992722
0.357556468814943
0.367339792516976
0.363887334996478
0.35663079927153
0.38083797735433
0.353174679891443
0.39404722548043
0.394539324531855
0.39254340621004
0.394502626216594
0.414574448184004
0.405474672425435
0.407282794287174
0.403319362411808
0.392937406605056
0.414058078307256
0.424028510938081
0.427014800223325
0.437650911646648
0.438784493723539
0.438879869314436
0.436896806973697
0.456206758776242
0.457110334727228
0.483684149107506
0.463603103837657
0.473898753766395
0.466484151516298
0.492121218771214
0.482520505284378
0.484551475803642
0.502872118615699
0.5000497392446
0.484209306660488
0.501905587614548
0.490454043494156
0.492421388023352
0.508174135038307
0.538209765854076
0.510006022773261
0.573215839157273
0.514266811222715
0.54676673665262
0.540159333397413
0.595512483511209
0.538696033565718
0.548904663359057
0.557889223784098
0.581404313513831
0.543673144118673
0.619507154781541
0.582230511070066
0.620309609307806
0.584229518147304
0.579989267992031
0.617300800000375
0.619549457946544
0.610191701522893
0.642097303756913
0.620450700697333
0.614075099906974
0.644577123712656
0.645774201127927
0.625414067282554
0.670927952939342
0.628859550365252
0.688994769432922
0.65146469024605
0.669982566580416
0.669848209496087
0.721621746579448
0.669817401498718
0.726482400141497
0.664716568720652
0.707088054378239
0.683292674744991
0.746638619399964
0.668926114164533
0.720117334100079
0.700053120063704
0.780614505390822
0.744299603060698
0.769464931528818
0.780928558891371
0.769407855863058
0.768410220911463
0.822307344062757
0.748861696710222
0.796043792867285
0.778739248539414
0.862214015844239
0.783606194730228
0.802547310521998
0.762599780340182
0.853165076935684
0.769810328941748
0.788663246677464
0.804196423434352
0.845895267796076
0.766503673640078
0.862523999736605
0.767584015764381
0.889023239422681
0.784387056096091
0.828034909925743
0.851812671488543
0.905772365739817
0.881079682913635
0.924340070756538
0.879330313221285
0.934504408194845
0.810768682972636
0.885811537886751
0.876037030456083
0.965535985271555
0.85202490553928
1.01954900197785
0.91447592423899
0.988425819584503
0.893081763153796
0.961011101661627
0.907070429724137
0.991152796736691
0.942961356899725
0.978367156951916
0.982967682785185
1.00430099354598
0.981045527450303
1.06820118339754
0.944501640770673
1.00994331745392
0.961986930755656
1.04471811615551
0.940887901778917
1.10789472723329
0.997262351405155
1.09368002523853
1.03551360985021
1.0415684053364
0.984379666412072
1.16273307206344
1.01500609883347
1.17675856358407
0.967109679044476
1.17643533016106
1.00629272024842
1.15976593902114
0.997432233934851
1.10244852100204
1.03503448870333
1.13924103125431
1.11432468759314
1.12687319208355
1.13136010297762
1.19649852200571
1.04324635406718
1.13668322954408
1.03183140022136
1.20440240894327
1.09570060525102
1.15510781723474
1.05412292341533
1.170906901697
1.11438634738472
1.22799683491755
1.07200157213804
1.30940529628299
1.13294312742536
1.27167744177563
1.14203584166385
1.32722692615587
1.14867104812914
1.23385036452933
1.13630800849861
1.2079184735601
1.15393734113881
1.26247354268858
1.14593731030648
1.30931391990689
1.17215455121792
1.27308925157163
1.12437812178751
1.28020310497936
1.22489485771424
1.2006697565813
1.26005758183975
1.22518929230506
1.14620687024785
1.24740389242907
1.20843485524275
1.32833947025062
1.26941831878003
1.41474754936768
1.14296697019161
1.46795399584355
1.14276975405715
1.37603565322676
1.30662176078758
1.36223661610002
1.28358955092562
1.37532524907718
1.33930027868607
1.37112712377823
1.21631953735207
1.41860884095737
1.22402586688878
1.4789197323226
1.26127318154988
1.42242294364307
1.31696745361581
1.3952458241471
1.1917621662811
1.43858747637036
1.3148318127176
1.40754191358293
1.32754405194067
1.42744840623894
1.39387715761753
1.42989953652
1.23672588637328
1.42114589527597
1.42177261769329
1.36993053157179
1.32995125570645
1.51256074480009
1.23525246856371
1.37537411614996
1.31053085034199
1.46762265284351
1.37459146017621
1.36452781749146
1.21825306941306
1.59229881039109
1.31567376773812
1.48340731004504
1.33744900483514
1.54649002037995
1.54871252868252
1.4030251663061
1.31174342934889
1.70155371405771
1.37356782239075
1.473393829901
1.38484408658874
1.7232164483173
1.5905607394866
1.53084694802299
1.31753620351301
1.26234972111034
1.4490469239192
1.41185823078715
1.31724979000653
1.43144175289788
1.30167043099654
1.33667227652318
1.30176041498471
1.56268186200449
1.37394823928962
1.70192588034745
1.40380512105512
1.55542901078052
1.43830841852477
1.48997262255415
1.43670392474762
1.4676381680249
1.47382434176171
1.79637429185187
1.35152553681929
1.38698966803055
1.30018941523606
1.47119520109218
1.36063176956996
1.41042211775295
1.39660294110926
1.56789186073522
1.4435114909909
1.50452689593142
1.30552640373363
1.50409954557831
1.38859279285883
1.4992654337921
1.42698880145553
1.49462987486418
1.47080763971283
1.4355735425731
1.44866176897374
1.42535202768511
1.42737644348149
1.60868433067705
1.50826250451735
1.39686544960539
1.43340949522262
1.48477831410206
1.36764134273768
1.51054505887754
1.4288002045402
1.55939721373055
1.45864635748544
1.52255866590368
1.47253092080918
1.61946673303944
1.40721852795284
1.48497096409297
1.39850226527119
1.61989730604929
1.54243781658028
1.61398994419542
1.39704956559683
1.45282782660418
1.41671783488632
1.56361619556545
1.41898267102403
1.58347162682152
1.45633648899984
1.49526450769162
1.28482731696058
1.37050250309156
1.42269137667704
1.61104443315838
1.39568500590509
1.56817983023064
1.42951221923761
1.5372414197517
1.30099878757839
1.62049587053147
1.49184419679424
1.47578704125123
1.4986659000841
1.62693471433904
1.41789426595412
1.43042514829578
1.41119324105615
1.46137192377185
1.42242352729506
1.44762177547255
1.45794016808038
1.48804474247963
1.41964992778607
1.72007807778666
1.469439725569
1.64063933965963
1.46793514622097
1.41840090835331
1.40133037924511
1.43554579718463
1.37115099080049
1.50455491819865
1.41687624508409
1.516452694772
1.41158481109043
1.53349021490539
1.42802517807497
1.36534205841054
1.29365038934651
1.44889572149288
1.32185923082073
1.49795329160808
1.39278068482636
1.37734325775763
1.32989626163834
1.43654018263587
1.28353333094096
1.39496764300978
1.28476638430335
1.43088804650352
1.35220351518545
1.43042938058861
1.30499905200185
1.53818983431708
1.31236563540045
1.49524289302316
1.34639125902791
1.35418332513792
1.35214531778573
1.35474843684821
1.31736812212625
1.31206046209724
1.34778567692738
1.39800183530896
1.34162342200054
1.46841120028904
1.32222736273105
1.29747688343664
1.37901301404118
1.46950126944695
1.27823820593212
1.41010586919234
1.32803906204148
1.32158631362646
1.32181958046874
1.37631690749225
1.28894013297111
1.31666965272466
1.29133594917824
1.27174080067198
1.25712884859105
1.3262497777984
1.27900347237699
1.38928603116018
1.24131887310065
1.3374282390027
1.29364220066769
1.33299412398852
1.28714447550474
1.29757084428087
1.25119586872076
1.26419740571916
1.3570307878791
1.28188631818734
1.16218514191223
1.25557469710713
1.19772307657226
1.28313435875467
1.1701061059524
1.21770701452121
1.14564611304935
1.21629221432512
1.15694681630505
1.25787892659752
1.21144758626206
1.24452357656701
1.16486955890119
1.1749729798484
1.17088198594267
1.18532036712194
1.19770969386133
1.21239558423602
1.12484329964239
1.15846489585129
1.15107922960607
1.15942726132206
1.07778302448382
1.13561988313747
1.10091479019934
1.14792894650916
1.11248825695523
1.13579317466251
1.11246516788808
1.16343928203763
1.07659848357585
1.09359485295326
1.10134219696894
1.13353693799477
1.05491370562046
1.09497462638125
1.07454384633876
1.07844847398597
1.04041915914983
1.06983198658941
1.05199031034335
1.06922835785773
1.03296045083609
1.02668826175807
1.05442157651152
1.06757229509391
1.02361010522587
1.03010812143581
1.01078892797654
1.02976409807207
1.00979733431209
1.04823024377719
1.00587701865358
1.01235643701088
0.971359132153285
1.01039928664579
0.980134196470662
1.01371305549684
0.969161527209582
0.962136156209053
0.935472709533828
0.980413619968427
0.961139510033848
1.00796580158682
0.937711840350411
0.949525963255453
0.931926160427392
0.94530856815153
0.923225697555444
0.930750669676369
0.920451991246249
0.930168882129378
0.924026307168289
0.895944084034809
0.895922210789532
0.902771176786689
0.863212606639486
0.906019276407139
0.895581220827308
0.907067996587099
0.879329211210421
0.889958753245954
0.84544872165845
0.864985641262196
0.848627308877568
0.863015290677537
0.840559988357811
0.839272565870083
0.833176965960455
0.845326207969566
0.832213081093122
0.833610537529616
0.799985947858664
0.804951501887592
0.787536089329544
0.831759485608429
0.826105075849634
0.832387171788267
0.795522820453576
0.814495510922599
0.792891885700463
0.800883132890413
0.784916437340602
0.799806874052536
0.785487809883022
0.765782382051473
0.770208132190886
0.78563169904593
0.764763859142404
0.767328792837398
0.757336576352274
0.768487292658784
0.733685961757591
0.762631802436988
0.750949637727311
0.730368005188917
0.740660492146971
0.740048646370513
0.715728099758761
0.745182230981907
0.711505842037857
0.722787308669984
0.726934208957056
0.724874031447857
0.711512775366413
0.708781842323683
0.702688275867312
0.708962748491891
0.697409094154676
0.694329539405853
0.683503287427031
0.696632937632929
0.677180327996169
0.675510114554193
0.663422277200984
0.672753058909191
0.661432345743668
0.665376968761243
0.655108985074362
0.674398326282669
0.641811592558942
0.648311556106346
0.660695915547858
0.662862497809824
0.638670562079284
0.645353351886177
0.625349724666005
0.642047991871979
0.611098718231366
0.643234906562467
0.626971158612291
0.627710968413877
0.606842959000455
0.609954774928239
0.604627584090031
0.612040534036401
0.604791814919994
0.600682065779762
0.60811223494837
0.607692084310295
0.579571193849874
0.594941945795156
0.576603929914918
0.573325680341698
0.574687202157131
0.583555397586015
0.573058295880672
0.584949435093692
0.568985168564142
0.560466331799094
0.561286649116347
0.56133269052566
0.551948440289583
0.556225337650815
0.547939829740691
0.558374991588076
0.546345418112391
0.553427751336284
0.543906579351316
0.543263481462134
0.538079092967533
0.539158862086019
0.527174203372897
0.533888003396212
0.523303153453032
0.526523104243987
0.514603784830158
0.519335984403296
0.512431223051669
0.510248377617708
0.508751613900107
0.522534735217479
0.509819295464529
0.511099858673347
0.493699314568153
0.497829977010488
0.50364542571512
0.502390041176609
0.489111636687236
0.50738958458149
0.495679062625798
0.497050841144422
0.489726758564148
0.482405927035454
0.483029203785486
0.492895180360297
0.477876838699584
0.48188304616572
0.479284526926507
0.478474567977245
0.477587388887
0.472644680480463
0.474441120394015
0.478161049807319
0.474845060735145
0.474796181774835
0.46626742953496
0.481938412033058
0.473844644398364
0.478772214678811
0.470960488130981
0.481216464508357
0.472944349055952
0.473792176052934
0.47928324372048
0.477634146651117
0.473949413122937
0.481010711584311
0.473539495066182
0.485309397320096
0.474103290591738
0.477524387218231
0.477890836311714
0.489550354825495
0.489989583069637
0.488671953384852
0.49104132636398
0.496825773052778
0.490301808474277
0.491348374134274
0.498317631732305
0.502903890756801
0.500704865991614
0.508171534550866
0.497037285868163
0.507480515887306
0.500901220680242
0.51498180808629
0.511855405664211
0.514348888998396
0.514466702409439
0.526673063741054
0.518438934527691
0.524687858389892
0.51897203647928
0.524985907737684
0.542135735063048
0.550545301535007
0.542311083695375
0.545079167200805
0.536480942087338
0.552356989332538
0.55263281026416
0.558613138652438
0.545665557820954
0.548390949161278
0.551703446455477
0.569264403251749
0.571037464510076
0.575467848461101
0.568872410376768
0.581285154442847
0.573604316214872
0.591935115293739
0.59440688972085
0.592658935733455
0.581574556587833
0.603345524313389
0.60759567918884
0.611072058697177
0.601563994819582
0.611864304295998
0.611634356192176
0.616891705018781
0.609517483641851
0.6128124532714
0.615203137077607
0.624566509339083
0.632162041939759
0.634612636107671
0.625594382984771
0.6247776155811
0.638271062157521
0.626100038017658
0.611965210787649
0.633440426211156
0.620147298290385
0.635697135774848
0.626771866400053
0.624911134527162
0.620157012155924
0.621179572912244
0.612583910649382
0.607962542389448
0.612756151499666
0.63177856946306
0.607625199144169
0.620579269990893
0.617201904569785
0.617250399092045
0.617594367231389
0.628503953188122
0.610707593970131
0.615785716012105
0.618632905926902
0.62501861591048
0.626031834312707
0.627536503837596
0.607102775780433
0.613170463478171
0.617251481502393
0.625535144666031
0.614874474022359
0.616086838086499
0.614263330715791
0.617555380928636
0.621494700725485
0.630601095939565
0.619738681832265
0.620431265775473
0.617491368200278
0.632378713146811
0.623101972866593
0.615501142115669
0.613518779807662
0.620373013744537
0.610063613374881
0.62552169843453
0.619647453291877
0.617850569213377
0.607057858983058
0.606532230500535
0.611648485000831
0.611715445802005
0.604637929469017
0.599017701720684
0.602818533537301
0.605677870687763
0.599096776656328
0.599171107446015
0.581158471959701
0.581209646742827
0.587321664781596
0.580251407492749
0.572889033429519
0.582466717910503
0.567726894435668
0.564802050434979
0.564936751320357
0.559549402086702
0.549113119167832
0.556105239809887
0.546047701805355
0.545962336987242
0.541264529627532
0.545027997179259
0.528503932739258
0.518490569920037
0.52255026024416
0.526950060734324
0.522445716265648
0.511776205705235
0.502166286234934
0.508720238506708
0.50576546948935
0.500658473456415
0.498844791718595
0.497831575541371
0.488599815276477
0.489207605474268
0.482989271515316
0.483084427330961
0.484912657983196
0.476854312269852
0.470748781999799
0.468692272382675
0.463891735020696
0.465738734915168
0.458976891265618
0.464820349333781
0.457580173985149
0.444262414640083
0.448120447216235
0.454588719504297
0.448980597824746
0.446054081565074
0.439929297843208
0.44353167859828
0.43898654304329
0.437633390214289
0.43723936535793
0.439455035137113
0.431841905118076
0.426047044638105
0.432298916824646
0.434595970278901
0.423901914742134
0.422352880293742
0.41924039075442
0.421241199160168
0.413617724354621
0.421308224043792
0.417746731364872
0.413599981700465
0.411517345036255
0.409634055027108
0.406835607985825
0.409943460757021
0.411059373517502
0.408479317553614
0.408280496813148
0.403639798180736
0.399893277122502
0.402388622328745
0.394802692235208
0.397428850995424
0.39891618848545
0.397602432821471
0.388280501555616
0.395027098975172
0.397613470072106
0.394080938109199
0.389980461646973
0.388220043554739
0.387903286040149
0.387283611430012
0.379374713284275
0.38178456769478
0.379887977875434
0.378785408991682
0.377121035579574
0.377254713476986
0.373945897962748
0.373485574705829
0.376224387189973
0.378501586830462
0.37407565826
0.381054671661969
0.37664625994165
0.368697841708608
0.367688844632246
0.368346362372579
0.36229954795845
0.364890625705762
0.365347607545306
0.358345276476446
0.366876224901487
0.36680592111449
0.357683553674461
0.361527743425295
0.359835164253839
0.35941630648308
0.362344353452402
0.361837024836215
0.357729507650665
0.357779401693225
0.355095960705667
0.358655032484917
0.353349938292952
0.354644296588339
0.354448659240644
0.347904849606338
0.350776127485531
0.350502678359582
0.351081899986756
0.351193518752124
0.340850790922759
0.346156589578027
0.348999592780277
0.343908120732199
0.341556815518106
0.344130403870135
0.347911867742979
0.343001154948748
0.340408271981013
0.337927759319038
0.343178590633812
0.348676502846982
0.34102097328625
0.341622346750429
0.344143636567615
0.335992350150488
0.338928088936062
0.338221362769927
0.342404872157418
0.340442515469923
0.337925958422733
0.337003479088097
0.335522305067148
0.335551263678185
0.338799300752074
0.337970888671209
0.333904897536899
0.332165615071763
0.333996726824331
0.329022988814445
0.333499634714327
0.334212557806004
0.33212783708954
0.33403080363316
0.326468918459229
0.326716499709318
0.330230724459387
0.330394411698164
0.327808558181506
0.328018678573004
0.324749539055529
0.323028124033162
0.323206791809369
0.327759738650982
0.322681702128171
0.319150739626825
0.324380667836682
0.326350046497704
0.324529217352816
0.321806199272167
0.319452883662044
0.321885933880905
0.319441311998433
0.322311187823309
0.323672833837349
0.315475509956497
0.31468600506054
0.313810325231605
0.31907123627133
0.315527616140873
0.316510664290091
0.311693957987614
0.31156650868177
0.314784076889486
0.312373927911581
0.311181639551009
0.307857100392973
0.309038826921982
0.310600217226089
0.307821059791318
0.304832233986869
0.303245502407948
0.307936206192981
0.305328421135651
0.303058171524299
0.302437845071109
0.310123022990208
0.309072290697476
0.300250158930709
0.299638656706218
0.300776502015143
0.301026047602297
0.300412802642179
0.297787538258865
0.29885450289089
0.302986264345041
0.297018372151209
0.296071474583731
0.295260716210995
0.292882880439008
0.293996028224637
0.293339028709531
0.292722806383107
0.290241494601476
0.28806616151658
0.289099340091955
0.289883383818753
0.289628724564014
0.28822649542623
0.283071287579745
0.284723601997788
0.281298298234144
0.283538678233611
0.285761162618514
0.279261670604486
0.278197925591259
0.28441542852475
0.279098578477463
0.276633023168311
0.279674110659687
0.280979694441857
0.272323324212694
0.272387379487075
0.269786272633333
0.270414623859362
0.273935897883781
0.267824245897424
0.2695716902517
0.265563533432281
0.266635308086794
0.264434386695215
0.262737720294887
0.264528833597551
0.262935241826162
0.268804751942701
0.264764943039749
0.260373093108664
0.261272166924045
0.259717116818769
0.26551795402147
0.260147199907486
0.257402678257542
0.259129390189745
0.256006334646455
0.256137920521673
0.256491503125637
0.256899752614437
0.253685964387548
0.250872481787983
0.252971241036471
0.254510008064317
0.249121476797516
0.253382875262054
0.250133141483715
0.251963198428696
0.250310750949425
0.248868624473265
0.247043376229065
0.245611380823891
0.242492230025777
0.24863738563641
0.244347707035096
0.239469444875188
0.246065134625519
0.244182669791843
0.241458715089668
0.243691987233328
0.23960843530043
0.239468771433831
0.239877010128908
0.238429889303521
0.23779875910295
0.237881925435789
0.238028371088081
0.235723927300687
0.235270822437281
0.23497093716407
0.232929051850069
0.233549095307784
0.231577742275174
0.233916657411563
0.231464949320491
0.228764952955884
0.228740835567047
0.226101556801369
0.226443746172533
0.230046191300408
0.229399117896242
0.227695958307344
0.225238066421088
0.227226930924328
0.226151674379764
0.223446793463622
0.227042009866025
0.224971685723305
0.221807032101806
0.222317864405159
0.222868658599738
0.22149108463985
0.222605399503201
0.220513470247129
0.222056132852711
0.2225927678327
0.219476085942892
0.221911569090027
0.217713047404122
0.218033439960005
0.218450963335317
0.220171426721981
0.219384140939668
0.217548925478474
0.217284039773773
0.218582739617767
0.217461892684102
0.217037979485295
0.218162696443125
0.220141904923651
0.213904358181106
0.214499601125115
0.210780187189427
0.212903957943697
0.211750077492993
0.214569039605435
0.213639347352676
0.213582927448961
0.212250838242074
0.214751440519256
0.212760461682872
0.213464448631365
0.208704279557088
0.210187944964671
0.20649195416548
0.211248625213056
0.205926078616985
0.207333657418791
0.206991292597966
0.207523911369007
0.200792916813731
0.205852226507337
0.206432139031801
0.205496372176798
0.204603917111839
0.203254197281526
0.206394828417371
0.201753525989484
0.200608391065049
0.202694029602945
0.205416091371969
0.200800828305737
0.205086031343896
0.203302316923692
0.203146499367558
0.198847598574082
0.200218329594814
0.199898323469629
0.199691918035883
0.202969309402842
0.200915414439006
0.200402214959007
0.196646527773165
0.195059312344266
0.195933014500173
0.199406744255056
0.194616888510801
0.195441191512995
0.195645788469479
0.202347519565462
0.195293898654223
0.196932767205153
0.193771539226503
0.195351070916464
0.19579254658314
0.197503436516219
0.192366381266342
0.193014435801983
0.192823518675056
0.195957698721195
0.19452997430996
0.190467091590788
0.189651722559861
0.193098731121383
0.190358193732258
0.192690597362016
0.187960173419329
0.190504634581728
0.186955295874505
0.191364204361303
0.187745686878217
0.189338562323117
0.187265027731354
0.189884106596389
0.18717506104959
0.190451733372226
0.182206271709924
0.183970469161727
0.183651807895453
0.183752813699638
0.186251136741637
0.181192850491893
0.179638101070291
0.183284245215924
0.184254970311085
0.183936121138173
0.178660456522359
0.181673033549299
0.177966045278067
0.174521018369636
0.180163735326052
0.180642943142374
0.174271901884038
0.176547406185475
0.173248459937622
0.174629617012928
0.172323694885812
0.176846067432562
0.172315214702187
0.171922773122706
0.174456512928074
0.17415733715756
0.172591483400268
0.168570025456579
0.164827876523525
0.168716085635961
0.169938387546279
0.171190827777703
0.164281859537066
0.164590342299771
0.168342392098268
0.16379626274396
0.162076331909894
0.167709266591522
0.166570256925861
0.164801632082682
0.162388655593582
0.165061537136403
0.162937548608368
0.164588789588408
0.161180439923377
0.167655595357436
0.158248401526763
0.162629429106983
0.155374955986541
0.15696430745098
0.157258982271317
0.158801452884236
0.157342261332384
0.156622087444839
0.153395590790458
0.15674144256406
0.153384413444169
0.156630358132785
0.15934849800732
0.154084171027169
0.153129190389642
0.153656727386987
0.152704319989385
0.154853010164768
0.150574712346791
0.150829186476065
0.150586995591518
0.151668959642582
0.149249756167657
0.149544511093897
0.146850304572898
0.148578763387097
0.145586613310025
0.150822109025562
0.146465241062526
0.145556119095797
0.146476488589728
0.145215827055607
0.143704203324118
0.146401555672486
0.142286126115451
0.145415004062906
0.140925939357814
0.14320282277087
0.141701726766102
0.139228630322724
0.140611664908657
0.140133953602407
0.141426966495649
0.138209893792565
0.136734100122848
0.142412796109102
0.140765156961457
0.141257121284468
0.135403521256344
0.137464267041345
0.134965114642702
0.139108617395972
0.136291750829471
0.138929931635657
0.135851623157238
0.138360629424386
0.137403508836983
0.135735099564164
0.136665383714945
0.134744364873785
0.130361473406416
0.133669542189731
0.129990564969675
0.133429824866995
0.133453266438181
0.134028741087239
0.13220506833765
0.13720228912988
0.132044480062757
0.132976147713874
0.127200096512902
0.132385480649651
0.129428184325589
0.131453484963744
0.125334365245942
0.131930247504315
0.125902077988554
0.133631551886154
0.123504724536663
0.129523725769634
0.124899579868365
0.132446157010982
0.127538071018126
0.128876143430665
0.121764113304081
0.125805758550782
0.118594803154682
0.128472080556145
0.120380603629451
0.128175658969291
0.124512927214054
0.125644063560398
0.115939389258791
0.127827655625417
0.114279146301394
0.126935376513761
0.118796211611666
0.121532135030989
0.116290884138905
0.123063959277073
0.118352413044838
0.126476448813053
0.113292572369379
0.125503231330519
0.119226505478847
0.122026842628792
0.116913724933624
0.125360035067034
0.112635554656285
0.122114318888696
0.111024633544082
0.122000394820327
0.111183732075993
0.11754789552569
0.111772035542008
0.123245466890878
0.110373051034501
0.121427467928913
0.114675184206918
0.123537280887847
0.114190560721794
0.120461964366439
0.110992382308291
0.117189431966717
0.11491664325335
0.121476705727105
0.12084103477706
0.112081110114679
0.116617495860078
0.11262236873661
0.122636173856521
0.110699535400583
0.127035698219761
0.103936151108119
0.132135011603007
0.102960923232686
0.134301617060392
0.094053975252437
0.133406519763144
0.0989512777375643
0.129028095365092
0.0991422992855596
0.126531251298846
0.103241356504849
0.122191790092347
0.111365652445361
0.118397300121792
0.112588648087736
0.113299241611634
0.117054220697659
0.112937799701784
0.114220043376868
0.110674285586994
0.11125760713674
0.116443677093154
0.111654642078323
0.117877096943742
0.111200981722772
0.116812905615371
0.107690281029745
0.113281870332024
0.112195773981466
0.111975000742421
0.112507453642981
0.113134889919101
0.113341785857098
0.114091129715247
0.114488920225852
0.114597402817261
0.108905698587582
0.11275259106725
0.113017276882923
0.11228080226815
0.109975792081708
0.111149776441294
0.111473505991852
0.111939910143287
0.111057831082968
0.110924446097692
0.112134373311722
0.114888583693874
0.112550030967917
0.11277968767277
0.110221575034916
0.114041707728279
0.110981265738954
0.114881677677762
0.112718701642126
0.113482153401422
0.11163978216003
0.11434102539005
0.112093030498865
0.112016269169585
0.114438682155307
0.111486734953914
0.112974589573578
0.115521450225188
0.112159010280598
0.113451688937131
0.111996713053617
0.113116641566635
0.109773775112305
0.108956225279092
0.112507068441048
0.114479206803606
0.113215042274307
0.111045900764079
0.110534392322958
0.115995701462033
0.114514363312015
0.112458961189262
0.11327185542075
0.110262355902036
0.111218382941661
0.112107598605529
0.111805884077872
0.113536135562038
0.111662893715468
0.11615062410509
0.110913088135781
0.112122775529779
0.112254085050916
0.110651644154429
0.114808868615499
0.113113256220632
0.11125213045324
0.112540784453581
0.114729587570218
0.114790149867449
0.112687121908798
0.114220082398627
0.113967061532305
0.116540298848453
0.111367527292006
0.111367735859804
0.111301699999264
0.113518198331419
0.114759608575781
0.115625980364366
0.115423088007444
0.114705314472218
0.11298173893325
0.114629054033752
0.115263780060643
0.11506200535829
0.114814421545788
0.115088678120738
0.115755436183634
0.115711825733005
0.1147402914288
0.115926161748449
0.116417893941345
0.114473687379225
0.114010388991985
0.114643309847186
0.116689625235067
0.115155030302209
0.117247146250754
0.119239787992946
0.117348855111045
0.117510196585331
0.115994609666663
0.117910361365053
0.116476759821894
0.116764826700486
0.119440247017298
0.116937773104668
0.117007282598428
0.12013551135262
0.117401278764615
0.117411035349884
0.115626606266667
0.117591887895741
0.118344051721898
0.118277069656945
0.119744035961683
0.118468509370568
0.120532461932731
0.118111519676262
0.119604090988193
0.119331857646086
0.121009552376986
0.118109406949059
0.121024999465084
0.119158319487656
0.118933128662761
0.121790706197772
0.118849454322393
0.120167887607547
0.120903297529134
0.118221232466279
0.121052907076209
0.118825783675932
0.122318198409631
0.121478595491408
0.120318607748702
0.118647672894997
0.121953587976007
0.121351700387988
0.123320619035214
0.119866894127884
0.119581225317252
0.123333858390499
0.124526140369771
0.122958944285484
0.121508365819513
0.12445863459056
0.120726582656772
0.123912552017682
0.123159817169553
0.123506268163341
0.126821628925736
0.124419937667047
0.124316328026795
0.124089524720273
0.126022818422885
0.122877767647159
0.123868307397202
0.123709386372604
0.125996995015835
0.124804072638486
0.122858119943963
0.122859266297809
0.121457315590587
0.123815916591831
0.12260830239923
0.121431556611947
0.121791592595252
0.123006164650747
0.122890556624301
0.119814532834017
0.12066032029997
0.122800819667846
0.121587917249608
0.120107245567402
0.119774206080732
0.121243928108727
0.120885193951052
0.120925879065098
0.124579998176348
0.119324115111427
0.119952609341562
0.119248423031561
0.121970335132577
0.121063412694018
0.122635066904727
0.120472941683976
0.119721482640205
0.116441590076148
0.120224791139685
0.118831483443405
0.118423494198413
0.117556616040154
0.119044871232756
0.117884893386079
0.118290278937107
0.118381369730402
0.120448162389189
0.118381076500554
0.119459645005116
0.118076947277142
0.11763990980058
0.119473528485567
0.117937857985836
0.115857317323356
0.118234821566885
0.115119616628583
0.11963857480902
0.116105539694529
0.116063360933354
0.114702549816866
0.117444326021775
0.118576494885
0.115766892492191
0.117177197312558
0.117897847244117
0.115818438065005
0.117080176602026
0.115448370757495
0.115406384972826
0.114491086271118
0.116903127900528
0.118112014107535
0.113855551504392
0.114202929252737
0.115174308243233
0.113906579454157
0.117607133156621
0.114292574499827
0.116027423939028
0.11242413973549
0.115513103600926
0.113227064973232
0.113052126744458
0.114080970110164
0.114354145997048
0.112371821630141
0.11446556959502
0.115214350597831
0.113057824227353
0.112451332081835
0.112211860656867
0.111084287738195
0.111247510850529
0.110888524488805
0.111476484566409
0.111678758637951
0.112384662133097
0.109296371225794
0.116206473630123
0.111647169112188
0.110987495348585
0.112070802098163
0.110734739493101
0.11494101382434
0.112526677075107
0.110538504775236
0.110784013600472
0.109150641830006
0.113016053963254
0.110574572776675
0.11009360675919
0.110784148313356
0.108297443407707
0.110407719812066
0.110732117587285
0.108163150806579
0.110829259438693
0.11079615388305
0.107550619569485
0.110186411524302
0.111443258016684
0.107330829560295
0.107403992921605
0.108023145075806
0.109925196698576
0.107888693196978
0.108369475043879
0.105370398570187
0.107359596951097
0.108826307152857
0.107446096027658
0.107293910012548
0.105434344202954
0.103526401095578
0.108851981584229
0.10423346549684
0.106780056487623
0.103515276826142
0.103364391292215
0.10423412537418
0.104009729475286
0.103461634733848
0.103991083747032
0.102751764992459
0.101309429159509
0.101481104284076
0.102117878952244
0.103707145469562
0.104288237851185
0.0987965763732917
0.100764285018226
0.0994146943678205
0.102255264354571
0.0993174653061408
0.099672167379996
0.0999532247323904
0.099195220578249
0.0985493282085829
0.100924062162972
0.0973196750424915
0.0962236740291171
0.0959110207499509
0.0968589729051142
0.0947098861374854
0.0960410727662947
0.0951012544762675
0.097843552545423
0.0962422034018986
0.0953321539022377
0.094332726555287
0.0948760153095233
0.0921841945109215
0.0939096508275267
0.0944254689030872
0.0972958836223709
0.0936915039884506
0.0944835672509721
0.0941811327207975
0.0927618160928585
0.0938587905140479
0.0903181003807434
0.090431132220049
0.0898100190089033
0.0913779115665605
0.0953900187809595
0.0905014942494762
0.0920182635675635
0.0911731065479928
0.0913854832770892
0.0913179321736001
0.0886693591768959
0.0889390634628754
0.0907769858956534
0.0912750136765145
0.0923028179743857
0.0892832793589925
0.0912383621265517
0.0906099746952117
0.0905563638532513
0.0923899067855208
0.089013630810739
0.0887576798882073
0.0904860187255779
0.0889097152347085
0.0888800093220164
0.0907809043870799
0.0873723311856267
0.0855860839431705
0.0893055048931528
0.0893359543423637
0.0906250209237777
0.0885826401278857
0.0889652622165192
0.0894475152882545
0.0914772334995893
0.0901125227806698
0.0895642755796767
0.0864978423245041
0.0864374230791917
0.0860793254628833
0.0842411028207622
0.0863655833333476
0.08736399932444
0.0854592736979135
0.0860188701867816
0.0871029847476307
0.0869388226285385
0.0853564209194875
0.0869075026530282
0.0882605299714418
0.0902847350682283
0.0805479227110587
0.0878378982780576
0.0838239273701058
0.0849450975910656
0.082468986244711
0.08743583575713
0.0837436591964191
0.0860450304922749
0.0835546212461786
0.0824698469230647
0.0823705230452424
0.0858126899063617
0.0828936294938207
0.0855440197320169
0.0825905959137077
0.0857474264318524
0.080019269645688
0.0831504496672125
0.0822650397573793
0.0847763945626161
0.0866176454632861
0.0829217036086373
0.0807342108409592
0.0863189465062733
0.0812016305041892
0.0914542704543537
0.0808621026919248
0.0827255047615441
0.0811082364920646
0.0825374771919036
0.0836853466526971
0.0831587034750093
0.0835964923715936
0.0859644037991034
0.0876441095832561
0.082164349134058
0.0847415731463953
0.0816283003034924
0.08377642942376
0.0828010491957857
0.0813091490517311
0.0810647289798959
0.0805769714473121
0.0820448547720967
0.0821732915295434
0.0828812644422583
0.0824471875226348
0.0830377073739598
0.0830207520360697
0.0845555548247333
0.0841535536181323
0.0819702058678038
0.0803511460526481
0.0811464226049643
0.0845020805120036
0.0842278240629436
0.0889338447398116
0.0781694298275395
0.083473937550384
0.0808311291549607
0.0860639885667901
0.0828489020211311
0.0837967773855855
0.0841903850283627
0.0834276015840774
0.0837161195010826
0.0851062390840543
0.0806724159508782
0.0802191425658624
0.0829417367188707
0.0823417739718708
0.0855824369375898
0.0800929729955062
0.0819694343125825
0.0801635648128873
0.0833252430833565
0.0818517281735899
0.0875582747796471
0.0852643700188485
0.083217305823752
0.0825869340094072
0.0797822727823968
0.0843425218475337
0.0805276292119706
0.0834350777743732
0.0798836588390844
0.0838918364224381
0.0801990572621903
0.0833674005916979
0.080918721433714
0.0830183679009869
0.0831146802162667
0.0836156103390603
0.0826744008723381
0.0846118312373249
0.0808152307250193
0.0876925671127787
0.0833125693032206
0.0843557401831423
0.0801192965901449
0.0873195798983154
0.080587477134861
0.0843039633698859
0.0832550718976449
0.090366993335115
0.0871452457180599
0.0793173466885237
0.0885518567003452
0.0816537465774323
0.0878644645172177
0.0840064937267735
0.0865341637580597
0.0881627096000186
0.0858712165382625
0.0844877891541392
0.0867144398591291
0.0810706554213965
0.0832080502252247
0.085027878664411
0.0881588670376071
0.0926457262146896
0.0873055786987837
0.0855831524838273
0.0868897914692833
0.0825007364151686
0.0952766566552908
0.0834806472799809
0.0895810930769812
0.0861489314424304
0.0872360217352285
0.0885213771221673
0.0880160804587595
0.0876713945124167
0.0912461895422055
0.088589856521475
0.0869465181121933
0.0908837937266872
0.0890297081845299
0.0908798074587733
0.0887929661322744
0.0911287506414912
0.0912351040007506
0.0881218941527716
0.0935165970357562
0.0928262751523187
0.0897558749704376
0.0915670693782607
0.0918427875785543
0.0921500759953613
0.0924202930051172
0.0953077667448171
0.0936286286244972
0.0956250264911354
0.0938796157061409
0.0937507526342436
0.0939539787890302
0.09475473439846
0.0953985188037277
0.0965114400379467
0.0906446439437725
0.106386252097826
0.0911576670121702
0.103468571991338
0.0912253894178149
0.0992073591007373
0.0913246358919446
0.100621547159762
0.0929658228091206
0.0987809153714949
0.0956449453391452
0.0971533628712185
0.101073216057303
0.0986033207642061
0.101448311012756
0.0970312179150409
0.10248760421329
0.0999637870941005
0.10073835716614
0.0974955939852754
0.105469637628998
0.0977067840393702
0.115393556794913
0.104670360203797
0.098007481910546
0.105331864930262
0.104825691197623
0.115150825525321
0.102468872218754
0.104048118461463
0.107852932784488
0.10536546765844
0.108435304035397
0.10553588471586
0.117908820728123
0.108432930918838
0.104555674218859
0.110816347794249
0.109685277176908
0.114857480391021
0.111314037707951
0.110849782186436
0.113585130376337
0.115818931909805
0.116696979052025
0.117706500128721
0.125515207428871
0.112361156340444
0.13156559932934
0.116661392675749
0.126635030077351
0.118041295930829
0.129611581075534
0.122955464877561
0.130799603855844
0.120027723956579
0.131706473404382
0.127288280241118
0.139169650280314
0.124711699429994
0.137232702018553
0.135750599522286
0.138269478286034
0.147700259944026
0.155807189784421
0.139769794922166
0.145588821909618
0.142284365311389
0.149918610897666
0.147018651305944
0.149808511259396
0.150676345124506
0.152403370019787
0.154603435001207
0.156320933795545
0.157671947731271
0.161103296398539
0.158341139563552
0.166245915102939
0.161289624483962
0.181871894427266
0.171750151759291
0.17955635393535
0.170380212083113
0.180069043612876
0.174015103538054
0.176435402135291
0.179820966655483
0.177966554633912
0.185469424182271
0.187568299657008
0.187985435986942
0.190920898326292
0.189626754992398
0.200276684893545
0.192655778658226
0.215404296463754
0.199394171991683
0.213392148372651
0.202384084903574
0.247355747484543
0.229539517642421
0.224188296683668
0.247997857123204
0.235579272128487
0.27203026626953
0.255706473200287
0.263762847278557
0.273450080495679
0.283634255357327
0.29397055240536
0.304210727509689
0.304455802510553
0.315351031187321
0.323372035888183
0.332879587249037
0.334062054526341
0.370781307495237
0.365550665099116
0.372490062556266
0.371258185655751
0.388363076057561
0.404130540551841
0.411893357970142
0.413725916613922
0.431177179243081
0.420440405164338
0.481452410627745
0.453908046698259
0.472237961290078
0.473480277581267
0.4930667230383
0.498678299891463
0.505269501905734
0.530854356385897
0.516654279726647
0.541010223492866
0.542395299541641
0.563885375774739
0.564527784222127
0.582134367142023
0.593776340775843
0.596913700347926
0.608479908525713
0.618524846768384
0.623960689694359
0.627167619221333
0.643156272566313
0.647527455283353
0.66283674470067
0.698545658126377
0.733197147567012
0.682876833708595
0.646757804208772
0.662191492482856
0.658125648096399
0.685441068439561
0.679436186814062
0.685356434441614
0.691421002230811
0.662952976446765
0.677319017454883
0.680965883154653
0.673126331964741
0.670744833499889
0.690057280651399
0.688005033402963
0.694072021215988
0.686475971209814
0.661279950042796
0.756527414286409
0.671949372289299
0.682692428919406
0.678268145959771
0.676663812754368
0.682302488021207
0.680218312358127
0.678289910072609
0.688757262459041
0.667502531520063
0.662316992627008
0.653876006585164
0.666532047384196
0.669133237719253
0.627562252402621
0.629752983090252
0.627942501965099
0.612146056543166
0.60779951732366
0.610056973522473
0.648500892125737
0.594842632861143
0.586075019690603
0.585080291660112
0.570666231201246
0.568016583842654
0.573361108570715
0.564586002243723
0.552770915519953
0.545827418752743
0.534934639392088
0.544197594533073
0.535847041302385
0.532747249475535
0.530813527545258
0.529058847401648
0.52511449719957
0.530424944276361
0.52788880187394
0.523332397904678
0.519615190931917
0.516044804680363
0.508976187607147
0.513126802875189
0.510325059997104
0.519458096987189
0.514412245155369
0.507560748213991
0.503661812839077
0.506562589938169
0.497790236521692
0.499180343516151
0.505104593600124
0.500228300749196
0.499761138946074
0.505929581339378
0.499405920430367
0.494994819641507
0.496170191331845
0.49859716893093
0.49133207595814
0.491187146958089
0.493766732386765
0.501027969769101
0.506861089295056
0.49032643710177
0.494238517141307
0.483214262691822
0.48634159143217
0.489574822273714
0.487458079521822
0.49188367310509
0.475920370007036
0.479509465449095
0.475393941327169
0.470056122843804
0.477617775712589
0.469447057016613
0.470284594072734
0.478707326535164
0.478110958867661
0.513950004388481
0.478449155467582
0.51393282172921
0.473199310265683
0.471278910628826
0.465800975991634
0.489057190767773
0.468795682891148
0.46740400553231
0.474114478278439
0.470514070532587
0.480127700193988
0.465627684658465
0.465106040157126
0.466284208213262
0.469736878155639
0.479209755991796
0.457873263080765
0.461607084667545
0.480519429427471
0.461374321911462
0.467828064318751
0.490568957667376
0.45504515770796
0.44535326390095
0.438218569117286
0.437004956716087
0.437314039607542
0.444574086706817
0.437141884933091
0.429969481989484
0.427621091044066
0.419440452983692
0.42485307569901
0.41409784955161
0.420146548525094
0.418091187522965
0.406483706676813
0.405893932272798
0.393176941533891
0.41005865824012
0.402344729506243
0.414675314004033
0.38850487128732
0.395631120048045
0.386118320617518
0.401977506172976
0.390933186453504
0.380533625133291
0.379496690216244
0.37728490741341
0.373635305380741
0.373360362743365
0.361822511230852
0.371842581137401
0.356452061237447
0.364083434001153
0.355343489531997
0.356944804731526
0.347481015343112
0.344322683227097
0.339498883277581
0.345289341239993
0.33427072851953
0.346691606414335
0.329622103838764
0.346483408192849
0.34142074444165
0.344110197677663
0.340919348507446
0.337859861512873
0.337513213363465
0.343851620770643
0.343124916637693
0.358572036760907
0.344844207450869
0.356941603149619
0.344016252507459
0.358321509152006
0.362261637534111
0.363053582525589
0.36475499982258
0.367346622622379
0.36931509373222
0.383821912898522
0.386047315648939
0.390360650460055
0.394404749544301
0.40665457309346
0.409049390320364
0.425311173665292
0.423275039161385
0.432120700205138
0.460005938422095
0.463681783014807
0.469740526324363
0.464153823592769
0.47302823262465
0.483294612053786
0.481789730564153
0.490203789328455
0.485640659968517
0.513566660137184
0.511222641660516
0.513958746725773
0.52717967234122
0.523861547425446
0.530779874789983
0.543472441624492
0.541430554128213
0.536891648942693
0.572802160992857
0.56169248510403
0.558323606085627
0.556534767383712
0.564259224939894
0.565544529392747
0.560023458339504
0.573134945017566
0.566558445599434
0.591476970495608
0.577278367962739
0.580740521194376
0.583817630345686
0.58208063970267
0.585481200241327
0.592826298940229
0.596709828726045
0.604594463494658
0.598704364715913
0.604430391936817
0.605278283686233
0.643811843229779
0.629942574714071
0.608197715788669
0.624938368493326
0.625601357768656
0.632981850786814
0.635309275481791
0.643237827017428
0.643888324484861
0.6487826281342
0.659828419761204
0.645092317366698
0.653419292721366
0.666565194546444
0.668170614124926
0.659944728674323
0.674698847173542
0.674022256422417
0.675161973330829
0.709385819618892
0.683360235967483
0.679539328694663
0.692784715421483
0.693904107931106
0.694497735805869
0.693813563246253
0.705581354424687
0.698079603800338
0.707230440112133
0.702283702721899
0.705463089211526
0.703180509329029
0.704417415371303
0.704086056132779
0.714675425793821
0.705955070176694
0.705188394042926
0.70121219946113
0.704961091427366
0.709847478345744
0.715507463915161
0.710404489556484
0.714907783551818
0.708286745066954
0.700523043086171
0.717110178113674
0.705726127703229
0.694318807825966
0.700501418891374
0.70595774914527
0.705977797424907
0.704853013271107
0.715132348518888
0.725576239431679
0.720977463595782
0.718301069465941
0.727987447617031
0.717701811264084
0.725638128598019
0.728887256135508
0.728540515468848
0.740452851319533
0.751040568879777
0.737689877023578
0.752381234707023
0.74447876132049
0.741551340179818
0.754623386228931
0.751846393874376
0.737570553256682
0.742763257859733
0.740082411220267
0.745109982582307
0.742963137662442
0.742942184760955
0.730740429348875
0.731566084505279
0.716079828973713
0.724071046235693
0.719232687163997
0.713244847252514
0.70564648010397
0.699467744274852
0.688704467042627
0.699116391554092
0.689030282776736
0.683464131268296
0.677913909527535
0.677653221615985
0.67913184966545
0.673879103549503
0.670909203868502
0.669354310027124
0.667778251449307
0.668343990863272
0.655927089610118
0.665362917786338
0.666953778785623
0.662936812929743
0.662429726418734
0.66471091941572
0.660988187918829
0.653071782365519
0.658075243631592
0.663819662809188
0.654791194601461
0.66551558736863
0.664220503309852
0.656897114998058
0.652872995207381
0.656787172318054
0.653419471898595
0.655816633274339
0.657900184260568
0.656954681344441
0.653354006389004
0.656204405782958
0.651422931679785
0.656671667032217
0.654217295540518
0.653112772374807
0.647380782770878
0.648843202278751
0.647538004641374
0.656379048023348
0.647976357804462
0.648323315142562
0.649152032131127
0.653541866588686
0.652900746179014
0.65600715035
0.645934097383157
0.654971079317627
0.65387481285751
0.651854760740672
0.652802069635128
0.648208393959583
0.647987771774198
0.65195149954494
0.651876290173461
0.648754574187168
0.653411642749821
0.646523283432754
0.646601085907986
0.634604173107513
0.640210605617399
0.635162017086193
0.629416364542752
0.623941049226307
0.61628268352812
0.617798283398017
0.613000929930336
0.607355320699006
0.606373799525223
0.603312618066956
0.593836188690622
0.590249294648329
0.589649739836886
0.587063255866381
0.583257968641523
0.579164715652212
0.583341327195093
0.584821729459025
0.576927269333485
0.575716451130573
0.573213117601538
0.572484040780651
0.573348094881826
0.575128711898863
0.570681469895108
0.57672804808013
0.576557170801233
0.570088623370119
0.575035082330045
0.576443972196949
0.576269135818977
0.579709464913995
0.577970875531663
0.580651077324201
0.581506856152971
0.586382810017152
0.585595458332946
0.589640736951197
0.593457011912891
0.596785094247225
0.596689989800709
0.599417279675975
0.599359577499553
0.601028095811846
0.600501942910514
0.6029178070661
0.60581058474876
0.607420492112353
0.60560527432162
0.603804920375739
0.606439295127202
0.604276682074698
0.605965584665546
0.602694880972459
0.597492556620852
0.60246467849623
0.608031647367037
0.602360108945096
0.599059772306258
0.597977470739889
0.595840168204718
0.594939494093495
0.593494534444778
0.588949867733864
0.586831634784051
0.589420925293858
0.585432418477082
0.583364445602978
0.582302139926017
0.580913129285288
0.577483639817318
0.57686875751087
0.573094627627334
0.573787564690737
0.577286365145575
0.567890789605843
0.566735901635372
0.561908663151554
0.562117085055352
0.56144147487957
0.562686515368047
0.562203842237891
0.557715630791796
0.560541164682092
0.558766667420332
0.550251711257141
0.551201376270676
0.543111291277328
0.541637083673402
0.543894312476016
0.543278673850818
0.537007610775994
0.53348673696148
0.530223014639162
0.522965967147163
0.523535908884426
0.517359510178103
0.515912620944757
0.51234275122408
0.508589327551103
0.501408110702885
0.499403379250779
0.500771581197951
0.499117864030082
0.500236127094523
0.495344354948582
0.493674551984706
0.491243135284601
0.488570551702795
0.4885323555941
0.487820604645295
0.4857424504606
0.481820330346335
0.481335089649296
0.471712409718131
0.46879498572031
0.460595464995929
0.458598335374148
0.452411947137101
0.448397466319205
0.443135977544111
0.434648632903654
0.432423337105901
0.429751057633985
0.426621993598686
0.429478576209314
0.430803034341613
0.4350627480894
0.437420695720766
0.444252436257789
0.453356106155327
0.464930717190496
0.471592737737059
0.487137478568417
0.499408166531909
0.513629689013779
0.530983748357732
0.549355011726835
0.568927175528448
0.587966338484084
0.599887478042188
0.626307617653563
0.643182084410287
0.660176628805698
0.678653505522434
0.698697424586129
0.713560066650276
0.731053178458939
0.750341134940315
0.761531815092459
0.781997717375477
0.793692823773252
0.812799937668221
0.830773676122865
0.835536940178254
0.849336674273285
0.859055081835284
0.869624531419128
0.876326692229894
0.892133017917967
0.894042746040938
0.901920137824951
0.909692583823552
0.910461438487582
0.920175936079709
0.918990821820924
0.918165536890648
0.912025303210594
0.91726180710131
0.919753888350808
0.916889594630023
0.920728989270687
0.921245982358777
0.922735056726709
0.926599421493729
0.919538826095159
0.926380182911167
0.92855886362751
0.936404332522463
0.9363323534663
0.949991617523819
0.957307728773266
0.951835500949125
0.963831418245347
0.983427070897927
0.976284961535256
0.989754091802746
0.986623486026792
1.01636909987666
1.01368031465748
1.02863835109258
1.04097027252746
1.063730511436
1.08111821054435
1.07222649809953
1.09448272437107
1.11935039189908
1.11121227722939
1.14059813408831
1.12738613805376
1.13316843688292
1.12891700496569
1.13623791392125
1.13847176508568
1.138471307591
1.1273691058355
1.12422014512597
1.11242470952152
1.12235660207371
1.12003552132472
1.10126144259732
1.12436120042074
1.13190240796656
1.11874024231748
1.15003755078003
1.14621531280208
1.18012872470853
1.19180829411064
1.20293221897397
1.21789549008692
1.23197385909238
1.2361479260624
1.24792338474191
1.26630961608072
1.25260742170429
1.29951368408855
1.31738816804913
1.33500862834744
1.36730472819238
1.3595074969038
1.37348021730365
1.40286985911423
1.40488860024754
1.43165494394267
1.45300462812329
1.44851677306481
1.53190823078867
1.54999803199457
1.61433328167263
1.52761851320344
1.58503360982795
1.62433691456939
1.69803931055946
1.64893170777269
1.74703910691518
1.71763156822817
1.80774205225987
1.68588850617439
1.76097170820281
1.73727114189684
1.76581628847361
1.70589873564463
1.75504813524293
1.78289821448639
1.80236081127257
1.71092557999016
1.78886001856602
1.75837988287629
1.81321527468161
1.72072961216589
1.82556208089116
1.77129519162933
1.86520074334517
1.79568578093822
1.75219985989735
1.74117565910757
1.8985024727818
1.78028363213593
1.81901039729927
1.75513552412537
1.93657100759774
1.80035342726236
1.85323938555177
1.96410344464133
2.00332534350894
1.90009610363015
1.86424824340859
1.88177830103791
1.95368205117704
1.90734141485793
2.01703533567064
2.01193047841553
2.13371214916798
1.9934600909344
2.01791006806687
1.97869027601522
1.97513346127
2.07175973447672
2.27951801250556
2.05113545005683
2.21164463917519
2.05416606893848
2.29857456032579
1.98681186011921
2.11975686391926
1.99227334720558
2.29171335689357
2.10516648821814
2.03443415048823
2.00636426557008
2.17521378195597
2.03480395320842
2.28129830121727
2.23980206796391
2.2297724419309
2.05983929824333
2.2932536296101
2.07059584011464
2.22379211822231
1.94831486475777
2.12275980758172
2.17015302038423
2.14576595154272
1.85137873386667
2.04576547765407
1.92364008617072
1.98885693648886
1.8758412031312
2.04590483875063
1.77965594396958
1.89608222891021
1.69501778754162
1.77210836805874
1.69321757419463
1.68457787948572
1.66220863042334
1.65204880308247
1.64612360936867
1.68661945810198
1.64378817139993
1.73853721131053
1.59944717457872
1.66660998169431
1.61877298982229
1.63912534465933
1.58254932448012
1.59260156715638
1.56897532607019
1.54560760872601
1.46807725042406
1.49552404652508
1.43108242020306
1.45171909253985
1.3887689090746
1.37418224086845
1.35059646558199
1.36430701323806
1.28370081327658
1.2486782480073
1.1929524059544
1.16814421290222
1.12450204355304
1.09069445222945
1.02748967572263
1.01801425691399
0.960349705009205
0.932073747751766
0.904062161714382
0.887120185888202
0.837964442646571
0.828749358964648
0.793999152873344
0.785216697255759
0.750943277192204
0.724598945656925
0.723494681755214
0.713069833816296
0.697912815477702
0.686622800346648
0.68656242494294
0.673813927394852
0.664378794375266
0.672385728427095
0.662983390417953
0.661562120183251
0.666365220789941
0.672954153774451
0.668178162182958
0.661991806203097
0.673106037430092
0.673886855450326
0.673765780466557
0.674367836791023
0.6656992269853
0.661334713303041
0.651786330425321
0.658348051760308
0.653738749614711
0.653688305462624
0.644208805965843
0.649712759398291
0.627486432617215
0.64103763996649
0.624831042352491
0.625582852852178
0.622623947435917
0.628598662269429
0.619587352122221
0.624742180419427
0.618812292895753
0.635003603416238
0.630641623099893
0.635444015219695
0.63013043072746
0.643128494462627
0.644775699701144
0.648211419242779
0.640721060201154
0.648928688498141
0.650051249668757
0.654682735677812
0.664657851059284
0.653955342628038
0.658113227397344
0.659519900659282
0.660047587864177
0.668515195162448
0.666824984528624
0.660503719560248
0.649551439392266
0.664816830459349
0.668147442725662
0.669276811686683
0.663154628147434
0.670132331609412
0.671824498428254
0.682692289452132
0.699987610104608
0.714533403716829
0.715036246365863
0.724378969324543
0.758884698232817
0.760730475969286
0.780403837173181
0.81095114716697
0.803574178259602
0.841276373601231
0.848354671864312
0.836327103899678
0.843552041343766
0.855656273744799
0.846353680013477
0.841817967335791
0.831195180962162
0.848143096883703
0.800434971495628
0.789864749655399
0.776156087736117
0.773315187381464
0.776070129103797
0.78445099104109
0.75472479649214
0.776457598777587
0.777748639395211
0.767099199855624
0.782340548815661
0.78116131257204
0.777488933181984
0.785098653104187
0.779679594250417
0.755188464875665
0.759030354683397
0.747930870606108
0.74880702777983
0.735600931265232
0.727578048127319
0.745266917215358
0.730588916740187
0.716183316523659
0.697652334603336
0.724658798611371
0.728567565586147
0.71395965922133
0.704139969843254
0.717659049578319
0.711855566554674
0.703714043267587
0.690982532957705
0.72200603459785
0.685961790884873
0.711648459220863
0.690481943104309
0.68278744649023
0.681211416183916
0.675857432924843
0.669574727981113
0.675184002378714
0.669213749525603
0.662944148280333
0.666257638651754
0.684017403590395
0.675921633529767
0.651969963725749
0.652623495299087
0.646862111895595
0.655813076727017
0.680229786904485
0.651356491005389
0.65140627140701
0.631587121145608
0.642210191258681
0.636503206061334
0.650640059337421
0.623038867934419
0.651321283848791
0.640035725915022
0.647947941846923
0.627926527217937
0.6423983017589
0.624403564195088
0.648582598261695
0.633584066622882
0.640050597202578
0.63230101612105
0.636691128024354
0.642118974059028
0.661806022362814
0.641241572955763
0.631193090139006
0.652636395819755
0.659224597674452
0.633867083341656
0.661653760828394
0.668560915564721
0.666900731898865
0.67243226314657
0.678195421458462
0.645710156914121
0.671156714909863
0.669031035906126
0.702608744691729
0.671141353093122
0.665222747724523
0.680126949741098
0.699484895223192
0.726619658708752
0.733636874686218
0.720550126820323
0.765445597667695
0.734303797286417
0.744235835937605
0.784982361987687
0.839787520915314
0.789259654837282
0.82005803367889
0.818038552119915
0.873509339456869
0.849287762308379
0.902832902868839
0.894128971049145
0.920989506430303
0.911393688932801
0.996200160109927
1.05134279915206
1.03616237696578
0.978283836596928
1.07095788924744
0.939321235492537
0.979291648789611
1.00868968526896
1.0751584641761
0.994574121208991
0.995303802838365
1.00439283191809
1.01250332392646
1.00825359770527
1.03305042493766
0.97313678054075
1.00924314160415
1.00094678583107
1.00460226251089
0.992982109152599
1.02648993479932
0.968570074536163
0.963469609499461
0.929107244912644
1.08633263844627
0.945505292639502
1.0258152154021
0.925537081102875
0.937900278006352
0.923520023135788
0.930595352236174
0.912911741288278
0.946212591898591
0.902351086698981
1.03467591740901
0.952728754052594
0.957070733108523
0.956758361512062
0.993492368728142
0.896593448255551
0.995866371282146
0.95025186960217
0.937083331493503
0.897128381817243
0.91683951636356
0.912686670465916
0.939723363733196
0.869590221827831
0.968161578821686
0.921048954334577
0.920305974898376
0.883699723815762
0.970739019673778
1.00065559332118
1.01664373698705
0.878264683224565
0.985935963971976
0.865324400060064
1.00436021309449
1.0304389098589
0.965279740482208
0.943938310497181
1.06087742647958
0.904715300198927
0.986951032938103
1.08995165731403
0.941884589256163
0.902917371224644
0.992896541941875
1.01008677987455
1.13066428671287
1.04609587907125
0.965729473881505
0.915652090666674
0.969923882572099
0.962407426046271
1.11803287713894
1.04426633436795
1.27340247127503
1.19317669715922
1.2679229516885
1.52587152485074
1.23323703759747
0.993393959537147
1.42551931118867
1.09774510037757
1.16665881521861
1.18446177749899
1.14988733072481
1.27999604664705
1.19210450195304
1.19320394242868
1.27425088464807
1.21238238413663
1.25244096218207
1.01697251445986
1.51436303311684
1.04666162418026
1.28101298812969
1.36703700287581
1.20408802992959
1.05921765725351
1.0340422433157
0.925679960192723
1.26861642645519
1.14784115729873
1.15224043188256
1.19881612574871
1.29972278784104
1.19196045814792
1.36633641684662
1.10856086601047
1.09668449885573
1.36498662924294
0.985569627270057
1.19541030997571
1.49580622333498
0.82652172525584
5
1.40637893553624
0.833206886066642
1.12912125476999
1.80823546170975
1.12111124014505
1.34415488980421
1.59223663195298
5
1.31204881328641
1.42928491136825
1.82142505783475
5
2.8424136516908
0.930314115771529
1.17296815081967
5
2.27076761503811
3.82695382291465
5
5
0.905242952897411
5
5
0.950972414845747
2.15203569166483
5
1.66465650151088
5
5
