3596
4000.36533379555
650.420452594757
1
2
2
0.0331373832793468
0.0187416870002946
0.034369096673051
0.025497951748794
0.033361778803288
0.0131850069650106
0.0248859782072786
0.0250056864784039
0.0327215173275354
0.0133830246265159
0.0213242826865533
0.0182927473912681
0.0274397101952526
0.0130516515415907
0.0252223691060276
0.0224096607379949
0.0271217818197415
0.016434540735786
0.0298355432485783
0.024804297836433
0.0264217236127338
0.018534340581527
0.0401964700760075
0.0180526522923988
0.0263548945314815
0.0164706884154811
0.0247055515860979
0.0217355515159948
0.032441227934955
0.019516965886872
0.0289020185672497
0.0190598003852324
0.0220098677947258
0.0267380597612438
0.0279016709669125
0.00957485032971724
0.0175881121433767
0.0221841324697513
0.0338092396687465
0.0177482725900678
0.028819765834072
0.0249242598041486
0.0304258313455957
0.0168342114374217
0.0263244220631532
0.0196572059339537
0.0204273532662847
0.0157706136239214
0.0294244949242023
0.022937664683689
0.0314673417643054
0.0174622106159121
0.0292400336701475
0.0300358815475718
0.018202607691874
0.0178452341378235
0.0201127407002463
0.0185955847680001
0.0251261922620779
0.0189987676620784
0.0268747272348986
0.0190728263890161
0.0255465058922369
0.0231058180248724
0.0262533295996476
0.0142411260165746
0.0236548756167256
0.0251172673254313
0.0284275025630041
0.0204568190993356
0.0228193961792174
0.0116914857864294
0.0273526599330584
0.0162057912978128
0.0339017051023084
0.0249915591911961
0.0295431169349564
0.0137748906164084
0.026654197050059
0.0123564978550136
0.0362963747741116
0.0123583729953168
0.027579342801069
0.0204821511574384
0.0181354523100982
0.00757537080868977
0.032454921743823
0.00858816771947096
0.0351784473031995
0.0153732022691173
0.0301069760937898
0.0214562754380803
0.0239960292800404
0.0129461357737882
0.0257226839791185
0.013233620560169
0.0260226639987538
0.0083575937500336
0.0303491875135607
0.00568852795382864
0.0319434558251364
0.00666660664549681
0.0435992760438664
0.01717540850622
0.00262112414107737
0.0385368105945256
0.00916521944907589
0.0250135733458324
0.0295325535127259
0.0192352170378444
0.0255098683382833
0.0156287832684526
0.0188291768621905
0.00717206410583095
0.0275980020630653
0.0110104322373265
0.0285542388523962
0.0134913795352658
0.0246990330027233
0.007202672798437
0.0339873521670027
0.00710887321598741
0.0411174010000224
0.00600295174643695
0.0215909700800401
0.0157361875776329
0.0317399616408459
0.00564958455260344
0.0316413934080806
0.0179712513174093
0.0277473429392773
0.00921848461313733
0.0286103771823808
0.0106028332026988
0.0433359633913418
0.0171372958969982
0.0207266577049663
0.0201072365910639
0.0120478375345002
0.00422252014921839
0.0220405125740807
0.0161649890893094
0.0282108896354691
0.0147100942594492
0.0340843645864625
0.00683354621345011
0.0218498549890928
0.013013647383872
0.0221119142710758
0.00521870088509193
0.0218509029290822
0.0135244410973035
0.0133712687256514
0.0149579532547049
0.0444544623536881
-0.0219933877297793
0.0445619977206869
0.00326966376914635
0.0355929968609877
0.014310935745322
0.0159382934330976
0.0180618096808855
0.013436909950121
0.0243830448018944
0.0125518358369147
0.0215503895077559
0.0193453912995672
0.0221801052382939
0.0280182313650601
0.0253102745174139
0.0263517095400225
0.0210369612223215
0.0293662242198864
0.00384268434714043
0.0272001772722131
-0.00489663671359895
0.0362393632486876
0.00847602389235704
0.0265848997500323
0.0111947225216041
0.0195920974099172
0.01597060285058
0.0198449215122127
0.0128507827083471
0.0290971378039387
0.00525782527642663
0.0250743405719685
0.0127721552147362
0.0241071939289909
0.0225001934479967
0.0313901191041438
0.00480640043028091
0.0353995830311458
0.0109187278117265
0.01829033488635
0.0236989249829556
0.0111710896890801
0.0203698265094955
0.0137170275824348
0.0193760620246085
0.0224493696901795
0.00947091540686987
0.0194108113095774
0.0137445270899299
0.0239256705481103
0.0140865263446434
0.01256433835928
0.0149356872636389
0.0156869920357327
0.0138406727452808
0.0195683174940097
0.0241198551093173
0.0185097225270699
0.0260050210135979
0.0150200132975337
0.0215242793829715
0.017483929081684
0.0180217499195917
0.0212176889643693
0.014074095300901
0.0292094467163797
0.0180567589712142
0.0233287728743028
0.0143710468505254
0.0151812132385531
0.012818133433714
0.0165369010576369
0.0185883270340515
0.021062144788878
0.0123219692727542
0.0158249748179623
0.015513702530304
0.0198326195524382
0.008632866585425
0.0291106018458657
0.0198245152792123
0.0281979041599507
0.0188425744948099
0.0180894381950817
0.0169285435902419
0.0185087013033129
0.010853470288024
0.0197583134897798
0.0117524366977164
0.0198215091910559
0.0269256718370358
0.0101060857353027
0.0244970794408547
0.0143315814613304
0.036551957993891
0.00975478012531272
0.0354777030382619
0.0123736658488365
0.0228165133019719
0.0150123384776648
0.0256129484372167
0.00960190558760592
0.0225366742777646
0.0286927155086806
0.0319576765077069
0.017954752238172
0.0242118529702665
0.0204910131043856
0.0168456763708889
0.0337816023864237
0.00757624425685857
0.0397241240742859
0.0145377119465335
0.0189436624486513
0.0310135540300338
0.0161121029167359
0.026003586923714
0.030157706435907
-0.00658711754724091
0.0255989786402526
0.0214691131943499
0.0237889269440829
0.0150530822543268
0.0270575934139034
0.00864642173746746
0.0374785532710322
0.0305307556332199
0.0426887870573272
0.0266275902971316
0.00585202114023461
0.0428452534460956
0.00445074915701631
0.0254339726858788
0.0138193544344071
0.0226248266373161
0.021190942388807
0.0364887765197902
0.0150702854909143
0.0297268882416912
0.0133341377434884
0.0259318542962303
0.0282736022294156
0.0206133697841337
0.022895501707856
0.0166417389676068
0.0306152280219535
0.0292838923070128
0.0273840657812128
0.0182628510263486
0.0271356035278065
0.0202749396476384
0.0325491832877826
0.0254133137632124
0.024109469239619
0.0331027644059234
0.0257937131413958
0.00869255879496276
0.0253472147732126
0.0275583329767436
0.0257959870570482
0.0225579207728522
0.0272836139296743
0.020817726219921
0.0358165002177745
0.0171306921209406
0.027218002079796
0.0239575551636268
0.0338871197741913
0.0190965789251657
0.0245963841143704
0.0314055530923571
0.0288496627204661
0.0246496608038084
0.0250806641366374
0.0323458398461201
0.0250260249714196
0.0282149815002928
0.0458958336807003
0.0168722150452629
0.0378982608694454
0.0330862509470428
0.0360409347965211
0.0365735680320769
0.0290927712586914
0.0293060768882235
0.0331072910257278
0.036989088715252
0.038655761079492
0.0295904526627414
0.0323617173451172
0.0463571156610171
0.0494366233305566
0.0434061450916164
0.0307174263726949
0.0469586279464371
0.0354257756696931
0.0544530934777092
0.0175917783455999
0.0507717225540634
0.0489372722966035
0.0336034153141434
0.0511324354480975
0.0377956491938778
0.0501991454046812
0.0435595794850891
0.0561116846257058
0.0395426685108852
0.0539946654127244
0.0446779837006216
0.0598996003810534
0.0522361073184168
0.0647531074830565
0.0552832168096163
0.0558128518378194
0.0602755692275259
0.0710391677041203
0.0494720334618083
0.0724560080581048
0.0609088849690352
0.0774659523379772
0.0511474661940477
0.0669540433358316
0.0831632157613746
0.0616661203703583
0.0691548521345879
0.0612478969232491
0.0773039779946055
0.07542187955897
0.0717947454073058
0.0733838938533878
0.0848035021509224
0.079469610035347
0.0992603631580769
0.080929629409092
0.088657447199136
0.0845818956723463
0.113365516198593
0.0863147662628951
0.0926953839631799
0.087214512598553
0.104235190507241
0.0952984707214276
0.123758198243347
0.0912189475190039
0.0886933302260665
0.104903343054046
0.106679162016756
0.101939551063429
0.113396847639009
0.116071372100797
0.121261847778351
0.139780973870021
0.116753902935479
0.130098965771117
0.128920975416257
0.120108019968923
0.141229375432889
0.12651970647121
0.14065689287325
0.144024946817056
0.142640473423364
0.130980348962594
0.147679224140759
0.134660571999601
0.14525024170355
0.159466898633046
0.140607997052023
0.152402490689284
0.145714676455896
0.160174254730351
0.16242540257944
0.164287529326504
0.164080997348256
0.158857482568967
0.173664970970082
0.176707184717293
0.174427246754666
0.18140342711803
0.167083806099438
0.17139069902495
0.181577631428866
0.172512158776972
0.192536949386541
0.173799912947282
0.204853398123827
0.195627944636344
0.195481264508785
0.21587169789221
0.194535669297901
0.190154637944537
0.206655441645135
0.208581130100127
0.210669328274712
0.212987959560554
0.220662236479406
0.229013074964438
0.22893109306445
0.231755591346169
0.233372295656575
0.230004014507141
0.237658766883545
0.240191263793293
0.23628282723207
0.237900998132522
0.267701082869991
0.239213692019338
0.274721985180954
0.258439540510392
0.27149361996938
0.268328444644317
0.247160364549181
0.267255596330976
0.280655627313506
0.261628097901834
0.264684087624552
0.290039219403094
0.288665421222137
0.302065187719703
0.293632196168043
0.280667413333903
0.290857117858889
0.290574956445133
0.310563223720913
0.294179458403545
0.312016534030663
0.304497070173985
0.316225193199565
0.322684426894008
0.324715659619674
0.327953297182444
0.342407080989816
0.309563181082927
0.347510338355557
0.33227566626983
0.332163516493983
0.337652790769208
0.351219671516853
0.343177860720023
0.36376552879969
0.351560521868143
0.37409106923469
0.362447631577113
0.385947572019567
0.378036708105312
0.388051148228303
0.370817211331103
0.408712657348455
0.384633953712684
0.409131933734128
0.388322384101872
0.411075534116095
0.404048259728995
0.392448987810569
0.402619662721234
0.423689770588755
0.425127210427428
0.448850754052523
0.422326137726116
0.449377677860456
0.43134617341643
0.449691672312874
0.44137782483238
0.458863817251019
0.448896228414348
0.465338348389417
0.435704041380137
0.453661594980602
0.450247027931693
0.49360356297723
0.454213803338829
0.493345305431449
0.476583727020791
0.479886485687679
0.473082211092344
0.472880686928542
0.492098008583979
0.528146229175488
0.487605324361054
0.509408232782407
0.54687761441266
0.528501199950486
0.495956784421758
0.536012260900884
0.538496885480277
0.546701355951793
0.530649903648117
0.555017632591976
0.532070911018041
0.549719071306883
0.546497740736973
0.58374485110288
0.585950287229159
0.58278564846422
0.568236944961045
0.581333388987696
0.593857782747979
0.609720680803917
0.555344291237774
0.588666434022122
0.557844664567464
0.649875814358438
0.598800148676917
0.615259708978764
0.619105539472436
0.626405285109562
0.61577360046212
0.625375949909871
0.607844749664756
0.644213185347031
0.603679728763135
0.674342106315737
0.649838921632978
0.655412240791474
0.588914803681318
0.709190908814571
0.65552660075706
0.66399903018562
0.656043841316786
0.699877570208801
0.649876710445042
0.706296163857506
0.656738404219912
0.662621714295037
0.671358760762224
0.706178769810168
0.722929752048475
0.737062934328725
0.690364565101978
0.757499138580332
0.718667079667277
0.764664419504187
0.72440132710933
0.739269671843858
0.698750386039067
0.760933800288597
0.726047635032837
0.775624712305046
0.693942945363488
0.791066046218421
0.758418967867553
0.809863674427351
0.748107171071666
0.784064378295091
0.757568965247399
0.814620226504634
0.720408814470504
0.783205633799065
0.747379225983876
0.8202408314028
0.785246286129512
0.837925563932659
0.745023103008298
0.867478811631101
0.780345835710535
0.89150440713352
0.760734578536839
0.859572255839931
0.829999640670049
0.828583802927501
0.853906021419605
0.846613967748818
0.811353569211129
0.828988026334451
0.819514472984155
0.888272449906671
0.7909086556337
0.876343530485633
0.859490984541219
0.892448476152161
0.817369269089666
0.848212682553794
0.91084419121673
0.90959868517481
0.808194763903531
0.831270895678972
0.857566955533404
0.963477743574035
0.874630462140544
0.912653238223931
0.878873187562128
0.899372640396767
0.875506396560258
0.935113882602215
0.886627147747179
0.903988537404798
0.894621891753817
0.868278287029544
0.852197091731433
0.939788887422676
0.947101753199912
0.989246917945038
0.905238466827007
0.973809312817538
0.899816827377602
0.939383264838529
0.914159867098658
0.937432820378185
0.918476680668379
0.981685638196349
0.92307947585943
0.966379022005531
0.920868272961662
1.0160942325435
0.924371678128219
0.97794719727691
0.98396608814301
0.988892786938627
0.89279251922499
0.970725433741684
0.961175497692094
0.975365226194085
0.961058158457396
1.00883163982932
0.940626122011156
0.956020334924783
0.984719643087767
1.01501969648037
0.949948318143127
1.01100807374024
0.96877952647854
0.982223432093878
0.959963324499663
1.04596221712747
0.990201479433697
1.02510619792174
0.981073229711721
1.03791497434124
0.942200107467449
1.07132479867518
0.953184780389194
0.996293278015418
0.965419049146947
1.0238645723015
1.00023446874252
1.10263083800681
0.956850812572219
1.12545524304297
0.976857831306063
1.00606146357682
0.965697112311004
1.02718684803364
1.01693576216088
1.03816450865375
1.08217949993785
1.08186658757097
1.00469045266107
1.02701912620934
0.955843920728125
1.02437268846181
0.993305669161705
1.04112668560006
1.03599557838842
1.09240997650764
0.995788850199264
1.00518825310224
1.01937396061639
1.04940964530375
0.956067088831232
1.12662678700379
1.02722865171343
1.10542970746929
1.01387729199133
1.02215360839513
1.06225057093188
1.04982889662603
1.0033139768691
1.09389868229782
1.01555745908948
1.07022714679669
1.01095459254601
1.11440300233385
1.04294346916428
1.02735972787579
1.00773590775311
1.07630067973265
1.02104567395464
1.06617775251227
1.06488975682034
1.07593871454719
0.994731499898859
1.0609905325578
1.04358160119877
1.05297349033209
0.988794783219988
1.06091202166548
1.01777744109746
1.07135896150179
0.999269562675802
1.12309363022631
1.03594090360599
1.06535819990818
1.01615731048976
1.06822703060397
1.0483832693961
1.070836997381
1.01956125843506
1.09915453334486
1.02245768366027
1.10768992609056
1.00565320525715
1.06376984715199
1.02668142544073
1.19047653368102
1.0215773747327
1.06362019205707
1.008366105767
1.10284726118902
1.00713764681704
1.03580732138988
1.04462644576988
1.08457624062464
1.03593055400477
1.08488332951655
0.97580453818411
1.08089226691087
1.00234951489108
1.05508943833097
1.00565735083818
1.11102882059937
1.02152229592457
1.05772331692549
1.02020430842964
1.02176744296221
0.997203838938303
1.11137574698213
1.00851353630862
1.0537181818728
1.04789452349461
1.06190595965195
0.998385086638094
1.08466785023556
1.04354689644335
1.03471427835747
1.03767320363471
1.04374633221942
1.00514474811693
1.06545544060012
0.991338799271364
1.10706862511305
0.983604042747169
1.0855054478909
1.01354352072799
1.0122743243672
1.00650914296845
1.02347244570491
1.01087548044989
1.05219277271089
1.01158382204684
0.991484239137678
0.934370732917191
0.967248428133882
0.971462243975296
0.994013262514827
1.00781442885336
0.99915286369609
0.970686344815719
0.982710338497109
0.945268274136868
0.996327006121922
0.950585626018047
0.98055383061002
0.978714879083626
1.01484774446757
0.938082724775964
1.00835136895569
0.951253890383247
0.971485682221632
0.928474843890109
0.95598318877184
0.929990244901245
0.959369272857971
0.943057510623097
1.00331342081703
0.950153747776139
0.97013730768334
0.923509232508859
0.938305461823924
0.914232760197695
0.981765069207116
0.889838079599249
0.974386144845332
0.915020087770677
0.968392181179535
0.933096293769504
0.93305349393201
0.921817648962107
0.921229054263194
0.8897074807782
0.89949632477201
0.886741489456852
0.917049460061351
0.862589940241009
0.93122834616331
0.860472205924718
0.89706976010473
0.90324546002499
0.909383407449439
0.884599889298192
0.891288713099128
0.851405516618644
0.888967832078358
0.862292075518775
0.878328353348424
0.881389160560625
0.893349023766608
0.823494769812973
0.881891577327221
0.865366886806527
0.88842696904982
0.869339576371424
0.858695229627187
0.848943565196657
0.881138518037114
0.841570978483596
0.85142818484581
0.80259832845333
0.828297346229292
0.806027100845786
0.837470755021464
0.817752098636653
0.84915359479431
0.805225588881805
0.807161507039161
0.79986376559215
0.820291697974827
0.815764590435137
0.829792805256669
0.787097984893553
0.824573446614048
0.768928926024026
0.80242595899171
0.791160061770154
0.784251407759402
0.784930915702351
0.788062743383196
0.764236955163482
0.774107024992603
0.771399001161277
0.785219628711278
0.74726745628486
0.764404116791768
0.734667621695453
0.761328169110765
0.745743898360506
0.737454443150083
0.728741283063346
0.768208793301356
0.726391629655533
0.737036288539423
0.723460043709295
0.728540037647933
0.721402658174612
0.715178763469369
0.705279394781457
0.724854551767265
0.719482747034364
0.707901286766611
0.685409924684998
0.713459873657047
0.675106867967302
0.692660879312354
0.680983834947991
0.68343911411146
0.665390656503612
0.688964777522183
0.674076291949669
0.672211940203117
0.651587362638075
0.672157585708435
0.659271159588087
0.676660004564447
0.634391998770666
0.642793739293708
0.634925805579496
0.64786941428572
0.645540347955598
0.652979176213483
0.627779846048571
0.634546842118241
0.625418179997045
0.652985219904134
0.625272789751244
0.624334753060175
0.605966767271645
0.630948947689344
0.613616448803358
0.628016041685743
0.59751403747687
0.611340632811715
0.592701083077522
0.605597289458268
0.593931527941762
0.605984096466327
0.588193801672571
0.591851162923072
0.584047996374127
0.593561028582501
0.576293440933038
0.598439144018127
0.564428274414151
0.565113033943934
0.572416110989126
0.571255533767108
0.544555222129944
0.576405932442133
0.555992490794659
0.576280859949285
0.552614456836226
0.570501680861507
0.553007914581433
0.556084026166237
0.530914061940844
0.545704919158534
0.534740130194546
0.556607169167706
0.53289927366169
0.537128585690623
0.532037530630632
0.528695173375696
0.519156894975434
0.532731331923643
0.517755103692003
0.52991900392313
0.515245777267627
0.521858900154272
0.510349667158253
0.523520590243333
0.503484768936388
0.514342904562901
0.484165861871938
0.501425677467634
0.492521174809858
0.496546956054938
0.496781516969999
0.503681015818227
0.494466755247537
0.504932606871166
0.478075141361798
0.493810191162396
0.477194038546621
0.483406497364368
0.475481345524637
0.479832463897892
0.460644734068865
0.478541652272172
0.471204050320388
0.465794134078387
0.457244411317183
0.462770538596935
0.462354737340148
0.465678058145785
0.453510288479237
0.452608268381595
0.45167681011385
0.454405190687929
0.441078132770241
0.444504085253483
0.444084409673629
0.450126978747042
0.432840382862812
0.445756824216854
0.426534814129946
0.440409025775174
0.424898976373157
0.437174637515511
0.423780824192126
0.427114572454898
0.412070967253444
0.422142385724531
0.415564799153549
0.419980566617077
0.412664524246964
0.413090343929628
0.406463414232233
0.417363706055267
0.402630833818764
0.411323589618615
0.400259436246873
0.398356171046772
0.39159580956054
0.398889350742903
0.386181870896848
0.392726780339183
0.390741814904069
0.391032071025063
0.389065779154411
0.38725137797683
0.381237323174725
0.391429343400538
0.381856509129986
0.380375768077482
0.373429736179399
0.383925667740673
0.369422291994045
0.370698129308076
0.367761291959136
0.367874257963696
0.365640011355879
0.369260830738221
0.355805733057171
0.363584375722803
0.355893456354306
0.351604502268234
0.361009027723526
0.359923971913496
0.34631463879185
0.357806894878308
0.355257730848252
0.351518935421101
0.348853281448724
0.359957316449661
0.344443931757672
0.354075006452699
0.341386304376084
0.341181203782979
0.335937999118087
0.344130214420374
0.333639837017235
0.341242952352752
0.335188851288254
0.342988569507516
0.334092745479429
0.342118190496078
0.335263356050091
0.338951424675906
0.337054006449831
0.339575829602562
0.334341356445329
0.336057289477587
0.341070951630557
0.337097916317956
0.327808418280994
0.335652080419227
0.333905394151083
0.346286928783106
0.340021329666166
0.341993170860046
0.332912154911202
0.34108447747789
0.33652476374343
0.345405584024884
0.346647034545245
0.349487934944937
0.34695364528767
0.35379985902617
0.355530371801218
0.355565293658581
0.35227447909459
0.367209873626109
0.362833604458687
0.365657037185229
0.358968087142216
0.364608793339176
0.37009062307961
0.370001097668062
0.363621808230894
0.371874675551783
0.36544856533854
0.380259029312458
0.379368945372928
0.38375441143834
0.376304535936941
0.381097326300734
0.380035097326175
0.384858831574532
0.395698417021332
0.394838171162995
0.386955867447538
0.401406697857229
0.404433234519745
0.401347318094833
0.397313614064072
0.4051746477906
0.40038071275861
0.409034062071946
0.406847145312845
0.414864018578195
0.410114885715758
0.421648993306315
0.422698412260696
0.425387196321213
0.431582448944007
0.435064893514076
0.432126661182701
0.445598488116919
0.444818605171414
0.445315166889192
0.44174255353702
0.450828444568487
0.440092087465353
0.452167844920779
0.447261576272706
0.453089331267018
0.457183381513947
0.460347052662118
0.461386929798343
0.45978321336491
0.45307875549431
0.462923213686045
0.465179681531484
0.465911338533527
0.454622645365964
0.467044618736409
0.451651277168739
0.454855960632603
0.456646781607889
0.461994555662164
0.451001623723356
0.454461220571604
0.458589658822891
0.459425555810803
0.448914735973156
0.458515199038082
0.45650452551743
0.452296412665733
0.459738509553205
0.453910000146619
0.450817189691338
0.462281491822642
0.4539956280948
0.453678436579378
0.454485078260161
0.457794070196335
0.44662312985867
0.455648750929289
0.456169553823782
0.46450518806924
0.456111919046147
0.459248079196507
0.45077126885632
0.454813244871054
0.455726631238537
0.463209088450239
0.450262624219067
0.459722117211978
0.457768485972056
0.45555122357265
0.452166012147569
0.458188907313903
0.447154841900657
0.458314350978961
0.45632548317217
0.446816460696788
0.457617102073803
0.457308507831824
0.445157189843705
0.454009289441977
0.454921723327685
0.447538814091613
0.439847707398122
0.453674712972804
0.457326968085919
0.45279762322437
0.441897774562675
0.440988921026151
0.439391744471064
0.441563686373746
0.43715694650401
0.437629470394928
0.430487499672949
0.434528274859996
0.425789247926456
0.426849263450755
0.419315091415558
0.419584790748901
0.409061324778717
0.415611140085628
0.408355109662098
0.401276703080157
0.394473836777429
0.410871218123401
0.403338086654329
0.403113500023876
0.394822464080948
0.390472915330018
0.379676695124296
0.395706892082473
0.389758313401748
0.388385788055285
0.380557047543321
0.377223241471974
0.371065670599757
0.367732734040192
0.366973664590527
0.363538244477042
0.361975578562906
0.359256299356795
0.357218670348607
0.357567027797628
0.349192471365795
0.347136794430977
0.345847914980825
0.345050745602972
0.338501626455181
0.338570321466448
0.330603248874967
0.339677519491772
0.338990842929379
0.33100360473595
0.333022248804979
0.331203700552055
0.323254993708219
0.329831931052153
0.324079090313844
0.32834744655703
0.323147297429362
0.319054246532317
0.313611642919494
0.315653980209183
0.310715148467592
0.310713397585129
0.311304514752421
0.313155797257649
0.309794946055755
0.303585959622562
0.301414374885133
0.304063671911077
0.304258281291293
0.309709130801605
0.299082627268199
0.298002183062454
0.296105299212821
0.300790418634123
0.297596892560264
0.297488985924627
0.293788107010092
0.290861311498944
0.28919927807714
0.292582468459699
0.291936113759935
0.294316083783014
0.286639081438684
0.28426890641075
0.282495071411555
0.284792091963688
0.283096595971643
0.287739730909383
0.278584905566743
0.278922662063429
0.278824008421268
0.272670102201478
0.274914251904243
0.278656514051239
0.272634324250904
0.272778321394679
0.268301800172457
0.271875435181972
0.267723752424741
0.27101116108901
0.265480665566695
0.265375508587541
0.266693754869749
0.266908015425635
0.261545191413925
0.262207756051841
0.262961685557554
0.265379172664988
0.264474034211947
0.261272171629995
0.255832293171293
0.260410974882505
0.257766915767792
0.258309235462226
0.258436793897846
0.255311922912524
0.253510593517269
0.249549546635015
0.2532462682428
0.255745427221599
0.255143927383178
0.253124977195374
0.251558319077769
0.250276705350143
0.244743876861829
0.248201993729466
0.2461778256676
0.246618509467327
0.248671575382062
0.245074393803043
0.243948685164143
0.247032528895001
0.24465819860822
0.245512196003115
0.238364194644874
0.242854500198493
0.243091242433317
0.23897267414171
0.238168730367165
0.237335478363094
0.238976675091981
0.237572585551236
0.232670533618286
0.234381368734007
0.237234042752973
0.239733586865319
0.238116939899881
0.235766557884386
0.235337419415461
0.235553106730746
0.239023797320408
0.236692604616345
0.233217069906027
0.233790767620676
0.233170220101087
0.234385287947624
0.230752291651293
0.231947980329694
0.23613434017034
0.234499834108954
0.226112405051934
0.227729971079531
0.228480074549945
0.228476756099857
0.23425125605594
0.228658694202768
0.226817584340759
0.227954264726093
0.229135351731715
0.229163233007534
0.223507945330798
0.227821349961216
0.223497421060752
0.225049941303953
0.22414498563679
0.222766486061252
0.219811063719572
0.22233846202744
0.220615072149085
0.220028654227944
0.221734373217892
0.222008434927704
0.217878122713026
0.219451281040422
0.219004639373754
0.219166996960302
0.218298418566637
0.216857185596379
0.215417677015338
0.213308481269137
0.212945364155046
0.212850544680287
0.211623881592639
0.210443545580498
0.210296325368301
0.212436192118846
0.21245609745068
0.214508128513318
0.211110533622544
0.207182180902707
0.209233049537823
0.208793869056074
0.209451165451915
0.207733140856445
0.206877727033574
0.207003982349404
0.206698524359129
0.206924659616917
0.209115525722723
0.2042261317779
0.204038238168487
0.207926216169805
0.200201085533576
0.200693326258445
0.201574810229382
0.203371407259177
0.201022517004485
0.197151100251953
0.195242702441763
0.198318814406149
0.194558479334664
0.194983293030911
0.195979859457768
0.194570958307708
0.196374486669436
0.193797613412638
0.192086295474002
0.194386246973666
0.193147355068108
0.187929628550814
0.187392272999433
0.185723630544483
0.190095383772461
0.188462555537866
0.183658839135547
0.185327235583861
0.182613158971279
0.186432584874211
0.181283171402373
0.183022768041304
0.185395984992764
0.179962982327899
0.181327998725869
0.184898211305318
0.180747660631572
0.18023830876996
0.178168931363231
0.177177407180825
0.178244913134542
0.174970821794255
0.174140287304098
0.176246883955461
0.172771253095193
0.173663932814881
0.170422492687712
0.170570101638605
0.171015848877485
0.167343659398516
0.169377102974522
0.167752958576497
0.163783549287758
0.166620951418233
0.165326148117427
0.168064177425519
0.164583036217463
0.163578964773692
0.161915265034419
0.160843278705147
0.159049736720527
0.163292466868203
0.161436648771639
0.159175802767821
0.154004273709359
0.158055104655302
0.161512875575143
0.154710466551901
0.158082714217151
0.153556701902321
0.155396690961225
0.156112983668435
0.153163646709596
0.150274914205201
0.151113468746596
0.151602126664128
0.1533192157774
0.150255380129164
0.149215607936177
0.149836243094205
0.147353555561133
0.149042307304577
0.145482860969092
0.144837916010003
0.149040419648965
0.146301525527733
0.145928938659753
0.145906675414353
0.139808839131212
0.143188364279425
0.144011934965762
0.141423174656498
0.140678830119915
0.141849521891399
0.141899516750738
0.139306660091593
0.138216275140809
0.140173404968875
0.140051657802745
0.139205698578677
0.135919428496498
0.138589259947965
0.139428458860908
0.137123355722375
0.137312829336562
0.134583184620169
0.136625959172417
0.133919897772819
0.128832134648364
0.135069746701314
0.134959100816078
0.133619355086577
0.133328338494395
0.133419481256032
0.132725751746061
0.13034969417121
0.130704288595603
0.132848895549678
0.132707998582259
0.130061087253164
0.128756744511407
0.129945786490842
0.13232520241209
0.12804151212866
0.129171353942354
0.130667053149443
0.129936211874336
0.126749756150242
0.130745253592644
0.124752353267714
0.127019732539386
0.127798247338812
0.127603820147653
0.126765162970183
0.125831467454778
0.124108182072557
0.126939139510678
0.122791964190052
0.125319106023486
0.126228264970221
0.124065046606314
0.121535009740895
0.128138668034809
0.122366909704831
0.123545098496607
0.124656202999098
0.122508923998745
0.121659368178746
0.121772039148203
0.118911852317765
0.122447285472964
0.12037947897237
0.120599654245438
0.117761803343503
0.120453055659151
0.117410723312912
0.119725420581707
0.118843987444746
0.116123046908125
0.1154593459539
0.116357214390688
0.118031940583173
0.118364310408579
0.121281243926726
0.115730120564306
0.118213030589443
0.115059121892982
0.115943531590387
0.115875282277096
0.116808083750666
0.114098468136767
0.113817709622721
0.11666835038941
0.114751819860509
0.114033314629544
0.110060083874511
0.111344957001027
0.113433804503234
0.114763258475953
0.111917863223133
0.109400129578896
0.111625632063958
0.114981417658765
0.114889877418285
0.112400573244294
0.110433189641917
0.111766896668438
0.112387910831307
0.113214727187422
0.109835064206331
0.10998139294111
0.109710094266253
0.108324353816356
0.109701029569334
0.108968102963602
0.110230284245664
0.108038877128459
0.109666842566651
0.108051262740471
0.104994534835578
0.106484687867953
0.104484370494635
0.110787441190217
0.108585073428187
0.106898442936022
0.105935542451408
0.109405586366206
0.104922291326424
0.105338171315691
0.102305685967967
0.102622236941119
0.104668223835246
0.1040124015155
0.101410798980632
0.101334842478093
0.10150205964457
0.102962034769827
0.103196149954137
0.104222578893062
0.10019564948076
0.0985099675675701
0.0990779362017138
0.0975384732497
0.0988453575251997
0.0997592729305317
0.0958966210899928
0.0989103646050487
0.0952979465436989
0.0993862796647508
0.0953130802519536
0.0966260208270511
0.0930400076351722
0.0948536509972475
0.0956980943491998
0.0962611457274247
0.095132598771752
0.0918548580517198
0.0915050828505232
0.0937008509417421
0.0939802233283832
0.0936192987883606
0.0898481182336779
0.091112553716993
0.0915273416680499
0.0874246109146166
0.0874552016600742
0.0944059890487888
0.0919805694596308
0.0869093224126233
0.0870596044169415
0.0895073411826442
0.0904437039783942
0.0887435556962936
0.0878276120131878
0.091200737232384
0.0848479007092594
0.0887598674593562
0.0837465675409905
0.0855255427575987
0.0853796653629927
0.0853585885925914
0.0849781784436115
0.0835759631500481
0.0834243192961521
0.0813731141948983
0.0855535731248337
0.0844197877515576
0.084653263287103
0.0827243247084576
0.0826900108413054
0.0837894704868445
0.0797539531387427
0.0820765367322285
0.0793193693454284
0.0802755663489547
0.0779275206988005
0.0788794839075067
0.0788899561352818
0.0783697944883944
0.0771674892851591
0.0822198215928742
0.0779857414290137
0.0794922328082781
0.0780022044819936
0.0788165234250905
0.0789114298209276
0.0779875840089564
0.07205883637741
0.0780158735990258
0.0755753797033494
0.0764712131064702
0.0749114015226552
0.0751207660600875
0.0751806727405215
0.0767435200646605
0.0729867603892629
0.0743821872375575
0.0731133907286189
0.0744437009604713
0.073112169452169
0.0739361163883732
0.0742133479452285
0.0723088281075218
0.0723217863302022
0.0720666103383797
0.0719489669466182
0.07263289008844
0.0700210143025114
0.0711170437482546
0.0705807066787372
0.075000139415872
0.0695360762387542
0.0706948112099439
0.0725782996451299
0.0695647374524316
0.0686840392376795
0.0714267872068481
0.0679992770313867
0.0703040449898724
0.0676115543463274
0.0707363605372783
0.0681518883294234
0.0695657895573357
0.069231342872062
0.0706958433873909
0.0665591967512083
0.0704144727770583
0.0668372351602926
0.0703226781243132
0.0620530197718917
0.0674993784272257
0.0628564560945954
0.0672718075505454
0.0602160578956481
0.0709217572773108
0.0614746543439907
0.0683112619526643
0.0666157056267984
0.0696979558590928
0.0611508728305142
0.0636225821720891
0.0597344555072494
0.0678531375938279
0.0614503762353466
0.070356796386266
0.0642629763850124
0.0681082198932503
0.0553785310676871
0.0642635085777347
0.0570350032771705
0.0639809971017593
0.0610330557055581
0.0617955049475189
0.0607325224623314
0.0649417695035932
0.0600621936927076
0.0693916060755888
0.0560570819951664
0.06606510300746
0.0578574377109346
0.06502652192383
0.0559138585235775
0.0685974519577899
0.0543422802669572
0.0675860495845803
0.0573141556383145
0.0675477860005105
0.054718509106215
0.0620958922989734
0.0589533366247556
0.0664479051850991
0.0594415897644051
0.0708370947949525
0.0609171918806649
0.0736673632198504
0.0581578649868457
0.0626141220527602
0.0517260920301857
0.0609649746131888
0.0569623466822468
0.0635933528831833
0.0635950198662256
0.0561706050629624
0.0613879971732856
0.0553503662082875
0.0680752620395187
0.055084717605901
0.0678277977438776
0.0487653233818867
0.0724451504072089
0.0462053044778008
0.0777996659239457
0.0387064925373067
0.0812725152599471
0.0419073519394994
0.074647631044235
0.0452180861489705
0.0734585179558665
0.0449410535809123
0.0686651083125622
0.0559383874396715
0.0616187600389517
0.0567301390254052
0.0589713166186736
0.0633128469099982
0.0584258540858185
0.0587072525483023
0.0581032869143419
0.0552420414013655
0.0616823175276473
0.0560210767851373
0.0627939442405909
0.0585357379686138
0.062320656651514
0.0547817996953375
0.0612152416045436
0.0574720158414546
0.06027530711385
0.0582015376146538
0.059934360929131
0.0560341872282743
0.0585507776523
0.0598299473006148
0.0586374954093925
0.0577807569968274
0.060519338666276
0.0569867396003435
0.0590582485090653
0.0556988372773384
0.0577027925713927
0.0575972349115415
0.0587449177836061
0.0583808305684744
0.0592500072380194
0.0573383897146698
0.0598539517202116
0.0588444946181632
0.0601511637867744
0.0583186157422354
0.0601204193504067
0.0567162011779576
0.0618885666131682
0.0593035885847672
0.0602923219279994
0.0584756306035723
0.0606645505100674
0.0605008923243761
0.0575664949409145
0.058586140933639
0.0587714885567638
0.056881905671127
0.059570572242993
0.058819888373796
0.0570702186105709
0.0567644900215677
0.0599748040627166
0.0568214187726565
0.0598893437018187
0.0579431409946852
0.0606286967948449
0.0567148125395472
0.0600506814017046
0.057129004104995
0.0614176107360982
0.0586669509259898
0.0574500789461519
0.0600252215337735
0.0586175738194019
0.0581493047407294
0.0575825402209293
0.0588577127409103
0.0581703220900334
0.056849456775364
0.06119740680035
0.0578751091338272
0.0593305081352593
0.0583231548052075
0.0602551979047088
0.0582728371021173
0.0586292891271148
0.0575159303188372
0.0585448924063838
0.0607691655404275
0.0616614874923963
0.0597272142735732
0.059667950677417
0.0604626138038912
0.0609769867533884
0.0574578150667545
0.059416260576937
0.0575083650049373
0.060389392919679
0.0591688453099823
0.0589920770831756
0.0597873839815802
0.0598379272101695
0.0596759780517085
0.0599747683929424
0.0606333694510022
0.0590604766908567
0.0593482654545827
0.0625766298235872
0.058296741509682
0.0609013138295535
0.0614573427911818
0.0594732019746663
0.060090548272443
0.0589133781709589
0.0610022237104053
0.0605562763912322
0.060614674205248
0.0632094186248596
0.0600773204114009
0.0631494615376803
0.0625606468749895
0.0604992647171689
0.0630160414232316
0.060438287758315
0.0595195826358998
0.0636420171163599
0.0627080230433939
0.0614560931338178
0.0619181610934276
0.0604177489505178
0.0627370107503016
0.0646477764786938
0.0596039240103826
0.0647537391573068
0.0604853055120621
0.0604290829457983
0.0636296615040725
0.0623598555158899
0.0627156088220671
0.0617813509641428
0.0626016497590185
0.0629963969420156
0.0631804340252361
0.0610772755081152
0.0636073374596589
0.061917727883485
0.0614139888910061
0.0647543155608774
0.0628443567438353
0.0634684552110542
0.0637212959781653
0.0622659614387967
0.0631692431852931
0.0617342420018784
0.0627886916265571
0.0653497345757578
0.0644993086333079
0.0633373510738555
0.0620082469051438
0.063274405522129
0.0652278567236963
0.0629437970904898
0.0645512876014323
0.0653251953096158
0.0650866606089739
0.0653582720147207
0.0655740295887578
0.0663889004615966
0.0642879026971367
0.0651024945275299
0.0629016171328162
0.0628685580261703
0.0651586098090035
0.0645704521963284
0.0652204725932875
0.0673526280662811
0.065761456677939
0.0649977523519136
0.0644381766165819
0.065537917631938
0.0665112746759574
0.0639688983208109
0.0636119146074069
0.0643877067790436
0.0645527104703185
0.0666840113832062
0.0664860071628055
0.064317698153044
0.0652060251494555
0.0664453355616309
0.0640542773402955
0.0630916223772124
0.0631010346097761
0.0653925083245957
0.0626330407107216
0.0645202343042012
0.0631450121858422
0.0637077864120899
0.0628762903523048
0.0623282426674702
0.0657873042226399
0.0611497174134528
0.0639089456837453
0.063942215900324
0.0633198882703912
0.0638510204392384
0.0646509474309028
0.065365791301708
0.0646335099174477
0.0619029916103204
0.0625473127794651
0.0629115285190245
0.0612926727231764
0.0624876326369481
0.0638016296264136
0.0625421647615305
0.0628608386277582
0.0622563274717223
0.0645049906224014
0.0611578965170672
0.0637999737914478
0.0656004327704405
0.0606104954442688
0.0633092162242605
0.0635857752165046
0.0617863861396995
0.0629026099642433
0.0619393127355603
0.0616170268663091
0.0628933059167102
0.0618139623286038
0.0600795845434912
0.0619469913498227
0.061000694467346
0.0612307231449557
0.0603299678360987
0.0618440572602605
0.0603434090392006
0.06076637940159
0.0597138127597637
0.0600931733446645
0.0564666591861717
0.0621077865112262
0.0607066641248303
0.0597953807106593
0.0569474372596883
0.0624874958030274
0.0596319252949521
0.0612970351658069
0.0614489972148123
0.0610058882974905
0.0568753195446734
0.0607636976738309
0.0626224259500768
0.0603009439468017
0.0593527405625991
0.0590774648678655
0.0606545939368705
0.0604317220136011
0.0602258024632677
0.0605299023392452
0.0600710466715488
0.061251967637867
0.0589535755104054
0.0599536033369556
0.0603298285423739
0.0582271675599692
0.0596425028113474
0.059516362739025
0.0588659118414446
0.0632575537529007
0.058509133883084
0.0590953428303243
0.0610626157517623
0.0583744945183721
0.0603725711407032
0.0604481705018084
0.0582349644249269
0.058975036714656
0.0582879847939043
0.0597093948735958
0.0589261289853661
0.0606912824738025
0.0605856195328458
0.0582336560020497
0.0570578466624516
0.0602446553675489
0.0585898794590482
0.0584625056278447
0.059122054471329
0.057418184001163
0.058306918327592
0.0581910060199634
0.0576279752446354
0.0563554623002329
0.0582954850594457
0.0596927753826672
0.0579796447508083
0.0590125925324208
0.0576184181229205
0.0575428472671862
0.0550568754996767
0.0590661322329363
0.0568641276688624
0.0566347452611522
0.0557663740430594
0.0553904511912025
0.0567595756445584
0.0547316712999291
0.0543697569392313
0.055604420776146
0.0542205974707467
0.0552677257869862
0.0551921366434384
0.0563589250290362
0.0553611486776191
0.0537945549483498
0.0529700499842923
0.0550989378237164
0.0558628393479487
0.0539403325714456
0.0529188681779303
0.0565067710465726
0.0499404415867001
0.0555249684131342
0.0526903315697152
0.0549960524239602
0.0518757768424602
0.0533485867629414
0.053180540480412
0.0563704784640519
0.052240665131002
0.0525372566829884
0.0515456655619518
0.0527258231915666
0.0492723303807952
0.0512418575703313
0.050790399501474
0.0518704580097515
0.0509032719946488
0.0516529620367958
0.051036407977742
0.0516549040352812
0.0482807643648127
0.0511299111141111
0.0518955224206993
0.0535118094062259
0.0508845330851451
0.0492267444249413
0.0507142251767672
0.0483148189911714
0.0518123080974223
0.0495147566984787
0.0498406203641056
0.0472893560098309
0.0497811700285319
0.0505986126582527
0.0493759451884827
0.0464159852404122
0.0496210795606313
0.0488853312674033
0.0492322236548826
0.046429493271338
0.0473273386822611
0.0490877068872632
0.0492756684069249
0.0488204073333188
0.0475586045089749
0.0501042552274545
0.0464718800075242
0.0451103316029476
0.04908881259244
0.0477479933017301
0.0480868989101932
0.0477509009801539
0.0495359288234414
0.0470544841677751
0.0491939145136719
0.0464242755310509
0.0480551141513012
0.0471031632770543
0.0486406636956993
0.0481781654841258
0.0471621262278216
0.0487354395567836
0.0474851176932892
0.0488880910249661
0.0475867082812613
0.0490076981064079
0.0458743763581252
0.0464463699803299
0.0495741590880683
0.0457078748879541
0.0454722804241239
0.0458908162875845
0.0463048760675194
0.0474563253002706
0.046675128389068
0.0458359796957129
0.0479936134715123
0.0471057416217438
0.0474875636860316
0.0520798808708437
0.0409572733264001
0.0468119260154928
0.0440517800835179
0.0449991359705332
0.0451800141456032
0.0469927899020125
0.0457185091651279
0.0468515603038379
0.0443559722792397
0.0470603813989349
0.0432673899475387
0.0458804780170135
0.045120610493281
0.0459578475725518
0.045536864578648
0.0455668975990739
0.0416494388083702
0.0454250908325818
0.0438829391065169
0.0461222474455101
0.0459349691132222
0.0453839002167055
0.0432229026118354
0.0475425152640839
0.0409506309027455
0.0529614917904066
0.0410684873819384
0.0449644062511496
0.0444062321207343
0.0444738270774341
0.0437687526512159
0.0464729692637712
0.0446846603446131
0.0460615980642884
0.0490930938749361
0.0432625526565415
0.0461387638305662
0.0425518660127682
0.0426453182560891
0.0442494607436803
0.0443638969212331
0.0441030808990308
0.0446614434571234
0.0435597106608468
0.0426429983284079
0.0447399749367739
0.0433372125854952
0.0457622618398036
0.0451418196812993
0.0450726723897271
0.0450475798611528
0.0416410543017192
0.0429453482876046
0.0430308671362428
0.0447260612523649
0.0467610257300268
0.0508610239534671
0.0393619882640667
0.0469028388938978
0.0428863961287833
0.0463014846090957
0.0441839420034068
0.0437439132792595
0.0455172516377792
0.0448933634139863
0.0445064766827593
0.0462472457106206
0.0454603273906081
0.0444216464753644
0.0432951670338575
0.0426660101391194
0.0452348473097766
0.0416154656130149
0.0435925112109995
0.0397920728748447
0.0459030242225326
0.0442351503469391
0.0472854205247929
0.0466316542808752
0.0449188636278965
0.0442723506899822
0.0415156487957363
0.0430916300952783
0.0422159078479953
0.0465239241831886
0.0432392112286243
0.0453320494664918
0.0399751438931711
0.0436737902595712
0.0432583915757375
0.0465198612458317
0.0432529994146289
0.0450240695742515
0.0433170707615312
0.0456610475299583
0.0411432167324304
0.048925741642593
0.0424808847841164
0.0450392355133006
0.0419330093843398
0.0492328674459072
0.0417974754610808
0.045920899909061
0.0417527667693142
0.0493350390800568
0.0516155821441864
0.0417631066027023
0.0505488279346973
0.0420811783281842
0.0472276428937644
0.0437274454215233
0.0462487009397897
0.0481415552573575
0.0451679877034444
0.0435947878939314
0.0458672686990944
0.0419703448265237
0.0455245252817963
0.0449109758327271
0.0457110451938025
0.0511634894654174
0.0451878632046547
0.0450636111453604
0.0471887532644449
0.0400104656657386
0.0565461509500854
0.0429644463570061
0.0473596262356524
0.0450246060953374
0.0451041546939521
0.0472361834199054
0.0468573384206746
0.046252130716364
0.0492265151469387
0.0464059045052605
0.0447206493998628
0.0491227911706368
0.0458375012475954
0.0472346719712404
0.0475936296222186
0.0473454096818048
0.0482157801288973
0.0471622865015748
0.0496363505010903
0.0493686878511527
0.047781405016448
0.0496715639135408
0.0483535108223484
0.0486080760258057
0.0460442143563687
0.0509459078981562
0.0499296005437875
0.0502316089413108
0.0499529497879247
0.0481416605367436
0.0482602879497006
0.0487391552112389
0.0513499249269648
0.0523877998544308
0.0436566241206853
0.0640824512362463
0.0425453611064322
0.0581900467984375
0.0444759845835251
0.0533893113042836
0.0468335498109366
0.0552844473278086
0.0476000486184439
0.0560844517433886
0.0489098011639133
0.0511849227154413
0.0535701382420636
0.0496135720200342
0.0549566818484067
0.0502374879405907
0.0556634608473655
0.052092795926257
0.0537347243673229
0.0514464933959964
0.0595768409704741
0.0501507820848805
0.0648994793487998
0.0526408362958844
0.0506135287884748
0.0575471057231967
0.0519696802524335
0.0642789571986107
0.0547736366519338
0.0543092375620722
0.0577448220460304
0.0557827245037984
0.0578849304722082
0.053201017434411
0.0661246205228329
0.0599197621642279
0.0550930769951121
0.061997587740886
0.057087946139669
0.0644211221900446
0.0618033215408937
0.0589560108548327
0.0594907311706561
0.0643350925725434
0.0624450663432889
0.0624980908699544
0.0712244189535485
0.0573446275937225
0.0796663421829285
0.0619770747376322
0.0733371406251679
0.0597932849399053
0.0695090163330108
0.0663068822628488
0.0762678755169447
0.0627942087146357
0.0720937092661311
0.0673314055384064
0.0831465857673949
0.0645202524059674
0.0769732389106022
0.0746591658003236
0.0778236641778198
0.0827467687506208
0.0893714957844553
0.0765825353835962
0.0853086734352598
0.0773233772342288
0.0865353283013311
0.08126037157812
0.0848224209494753
0.0863104047063829
0.0857344842634033
0.0884530226643691
0.0872401278041507
0.089020689244107
0.0904064283595823
0.0862423026473345
0.0960644148077561
0.0905710419243566
0.10841622798273
0.096940883569861
0.107887434273426
0.0962744137475138
0.102908411116675
0.0996453239780872
0.101344400333117
0.103302324090434
0.0998534570987531
0.104880043139781
0.107470508031423
0.106871038302078
0.109759993506046
0.108979927827512
0.118968655466539
0.107922072909925
0.127973763854146
0.112324885731133
0.129412848397344
0.117371365235101
0.1548392753346
0.133263819961758
0.131443699099962
0.1516846535929
0.139696477657017
0.167393516624864
0.150923308191317
0.16303320838924
0.168926707097525
0.175719567003213
0.178875958021006
0.185786677619052
0.188555272724497
0.199205719475796
0.204137341073625
0.210489880019717
0.214051037322517
0.23271246654848
0.224535956582466
0.240925468879643
0.237810642792033
0.251456000473469
0.256934756355994
0.263582946196635
0.262621396597469
0.283196341978574
0.274482126919954
0.315432817321941
0.29143448317501
0.310663963151058
0.306915569818883
0.321747708336784
0.324448660294014
0.329650584222826
0.353675305544493
0.335313866247672
0.360480583724049
0.354773155521119
0.368437206626584
0.370424355798746
0.392117092120211
0.391648934315192
0.389483888903797
0.397888481079113
0.405349469117092
0.41225201701695
0.411166382840052
0.418650983906568
0.42560593230784
0.434149681660775
0.452527543960506
0.443070230817705
0.446562688394911
0.428881767633937
0.440411065530841
0.425487986818545
0.450167745830558
0.442382401911906
0.43566986385091
0.448381283831689
0.437183609778422
0.442166698479367
0.435231946188127
0.440970744659095
0.435508257840945
0.444150272290274
0.448661908130479
0.443609113459636
0.4552661864872
0.420931423986389
0.490587971822108
0.436791573138148
0.442779276487349
0.436236228964941
0.436483391459612
0.428643687162718
0.433634703427404
0.429785924632385
0.445625506895394
0.425044296792114
0.424318579397736
0.419402828544019
0.42309853633926
0.427806744311132
0.404749829736565
0.39366599673848
0.39388725669596
0.394431759143027
0.397725385575391
0.396329131436967
0.413756328164994
0.377280801519068
0.366759482096107
0.370856487930237
0.364236321734519
0.361618905342401
0.365165431173621
0.360486017048351
0.354429447626832
0.34671301722869
0.35044634831925
0.345951437915676
0.343111806592889
0.3432249624286
0.340911157026563
0.345012564890374
0.336228080953975
0.33747081952355
0.332133492511067
0.336537271454214
0.335559797937568
0.328913302465582
0.328012245635209
0.333743545578686
0.329817031481487
0.330141826127204
0.3250969380545
0.324205685308235
0.324588994729064
0.329885588858534
0.322856141458488
0.325174497011995
0.323467368969604
0.327655249894392
0.323061172284549
0.325688833923864
0.326175067919935
0.324031337976716
0.320709993920315
0.325231927959602
0.318286598656029
0.320161547078875
0.321762683195031
0.317369778893788
0.331579259474004
0.31167161979629
0.325156325160937
0.31410429669001
0.316443885191436
0.31687317257116
0.315686634448166
0.316677776841206
0.305581532597595
0.305307802368945
0.307394418295718
0.302558464314831
0.308978895321975
0.307518296955436
0.300851247410635
0.310435294237641
0.303527214375086
0.337575148733337
0.30523713500845
0.338678401002733
0.298741032294041
0.30599878549153
0.306972203021963
0.314684435595184
0.304682102675469
0.300842051186915
0.307185790073048
0.292535067838702
0.307087528052785
0.297465220305225
0.302987937538556
0.305385108828015
0.30949167655512
0.309996517249312
0.302265890800082
0.295411956674947
0.306655229242045
0.304301976057083
0.294924848789446
0.303460135521004
0.295649484824967
0.289372258325225
0.282024252300329
0.282496424248351
0.285395997013235
0.284983792363904
0.288190849179612
0.277004982556548
0.275852062206571
0.269782479175635
0.279685406046995
0.267433830118825
0.271585216098822
0.270327950188718
0.259673865228976
0.264006650441694
0.251802197874865
0.270965341443169
0.25766764857195
0.26847681378659
0.247971614434338
0.254990743550887
0.247449168285449
0.257271267176545
0.246137776726668
0.241033153404434
0.24261505021154
0.242483806063283
0.238599284447126
0.236067828055503
0.227222088621949
0.243505632664094
0.226963064034152
0.234529169442047
0.236555866358793
0.22649807865072
0.216015208731422
0.216464009305733
0.21325923411924
0.216090624200942
0.212621534397197
0.218281880532876
0.199466170890684
0.220662802986507
0.209448832281919
0.214952114465813
0.213644716641559
0.211839036001187
0.210622015137134
0.215307320258488
0.213768011280948
0.232458751260651
0.216715587366895
0.225033283232248
0.214772687304715
0.226283559916332
0.226982223397063
0.226702127164023
0.226087509338
0.229462399047126
0.234248676313229
0.242696598145735
0.244643864075735
0.246489053644954
0.252311065018524
0.262991096696819
0.261947310583348
0.274925131949668
0.279979042977258
0.275658030022168
0.305728025322848
0.286433005796231
0.304736608695596
0.299114122442353
0.304101940735088
0.313366301757984
0.316552058677073
0.320840194302802
0.32467337594343
0.33664631647351
0.333883840071336
0.332386344343128
0.341139559729297
0.342960020588409
0.348150578657591
0.34485396736597
0.374752450253514
0.343863741075466
0.367874506976678
0.368316536225608
0.372408267689511
0.37009316014146
0.365525542795147
0.376000640799594
0.368938272286795
0.374734692208269
0.378006925624328
0.38981405953265
0.386514650716007
0.3817601521393
0.388138596641015
0.386751064419768
0.392048046631992
0.396617468603582
0.396467062643316
0.400207192785458
0.401578425323351
0.403548136823359
0.408587421101263
0.422287575806048
0.421137718590142
0.411126166505909
0.420837771020628
0.415805087685003
0.419996956270258
0.418952417657878
0.427570680018491
0.437475331608678
0.429060870268163
0.43489880236768
0.436437344468422
0.438341898073663
0.443823155327961
0.439831868348828
0.460735269812041
0.446988676000456
0.462431488637941
0.44546867654293
0.470150338862653
0.464586820502557
0.45872439141057
0.470025234355738
0.47131806290313
0.470979633512804
0.463176659145704
0.467975594768558
0.467795559756684
0.473022838789438
0.468312234915223
0.47334331031433
0.473350260228339
0.474494008899046
0.473032746215378
0.47954698682189
0.475313171689725
0.467712715072091
0.4740985044499
0.469891513039658
0.468905061212885
0.471922164515863
0.478036159631981
0.473435784270649
0.463607625113694
0.477481705258395
0.480675566287467
0.476557526567182
0.466797976952927
0.461497258294861
0.474138525084501
0.473195286894824
0.480536888934523
0.474272490693978
0.47985396452495
0.487015442508053
0.471367407234896
0.483619999615892
0.480757326138437
0.483013688274702
0.483548923153795
0.489452921653957
0.489435261348945
0.498638133916062
0.497920199727772
0.496510977595498
0.496882788031362
0.492967082932944
0.491656141982779
0.497526310861223
0.486275766233991
0.495968255218565
0.485711868998828
0.48732787086432
0.480189915441041
0.488084714926381
0.482196576581512
0.480048084658129
0.470597189655167
0.474235798763155
0.466885018845976
0.471262722208557
0.458141050867992
0.464811788718432
0.459172040604632
0.454554094199188
0.450349623703823
0.447304365994494
0.449622084134693
0.443760855374701
0.438685555457065
0.43539276104857
0.432682309510943
0.431649655638435
0.434198518121227
0.433593483832305
0.430515308137349
0.430776832702381
0.42755583713401
0.432131138387161
0.423875418325111
0.431097484414804
0.424087043671608
0.424648807556104
0.427782511566011
0.431265899180093
0.42567217314602
0.429308332537077
0.430173161286075
0.428114836167329
0.426074111103405
0.42550948236872
0.424099066411512
0.420384832442593
0.427524614118686
0.421182164404938
0.419336321352846
0.420995534381014
0.422370764283637
0.424362223587012
0.425619105831047
0.42206316998322
0.421934511327324
0.422433736208255
0.418447670586046
0.422342857509396
0.418303038668029
0.414816244740988
0.42396811317311
0.419385919200807
0.418220832654892
0.42513648783874
0.41687051267458
0.424074622935127
0.415938981675799
0.421117643662619
0.419854080267657
0.421001667398296
0.421090760996544
0.421817621770522
0.418329304603873
0.418391328261174
0.414928228104243
0.417007344394125
0.414016869499611
0.41156402923294
0.406197787979294
0.404009665810977
0.401891194596174
0.398299018554806
0.397303707599503
0.396905913804007
0.393726775565647
0.388268630229811
0.385014416209286
0.385187181407003
0.377849825774847
0.378135021282703
0.372440364452214
0.373524650427957
0.374855509599519
0.370330340482011
0.372058153478815
0.366552131277392
0.369367534371122
0.364009150892653
0.365339857326754
0.360954607856063
0.359854816786024
0.364532103247592
0.36038467869109
0.361245870231147
0.362834751198765
0.362005355691377
0.363934424610571
0.363840869027723
0.365560993738084
0.369488194100258
0.368384525320338
0.371482090718382
0.372420002411093
0.372747783804545
0.375006995257671
0.376489022206747
0.377613954482825
0.380844834444336
0.381357063060703
0.384531982084254
0.383839153262327
0.382347011880114
0.384525104276553
0.384353438036137
0.385107575041633
0.3837413918872
0.385924745243892
0.386777043408867
0.384297119620211
0.387032821100533
0.382589258360751
0.382122807611997
0.385558937618654
0.38406951020337
0.38463291067954
0.381418850511377
0.380452271926627
0.378942655422006
0.378010323742026
0.377952816832896
0.374118732204154
0.375052003083133
0.373266622312212
0.374040567989322
0.371985410765078
0.37113336687642
0.372090775088667
0.368505218873696
0.365944594074657
0.367998054070829
0.365386634050172
0.364218279073862
0.363747897951028
0.360740258436006
0.361501475143147
0.359700014790782
0.357311267242897
0.355500299109423
0.355413748237916
0.354897673814692
0.354434387541488
0.351578921909712
0.349243552446017
0.350037873299789
0.345400554215329
0.349126464932294
0.343339822049517
0.342467330849838
0.338818195697555
0.340424719311545
0.335892036379333
0.331716890275316
0.332362254623067
0.331017184841323
0.326937777614661
0.323154440132765
0.3196680062456
0.321557378262389
0.318204573732095
0.314375426127752
0.314920343870787
0.313571309754639
0.310730521995092
0.311634922641295
0.309076768583232
0.309799011417324
0.308988289052244
0.30658869071166
0.30646744741405
0.303398969052166
0.299273571811397
0.301888585247239
0.297875099474857
0.295811086906397
0.292105683807333
0.289428588694678
0.285408505897404
0.281577250130303
0.277283500484582
0.276555635910696
0.271786639245654
0.270820023857626
0.269874866988963
0.270831976293437
0.275382498818523
0.27544601411923
0.278689384693951
0.285518009350915
0.289128616699277
0.298922972735373
0.303495945072098
0.315777409832972
0.32694724234278
0.337216201856982
0.350686071497435
0.363138427292996
0.374603328940607
0.389001525747675
0.40119905419901
0.414605384315835
0.428355631785564
0.439406943229026
0.455073711296509
0.468373072879266
0.477023746718301
0.489628384394097
0.504059974513841
0.516259029949866
0.528473406321037
0.538001513671192
0.54953927474506
0.557145233689245
0.565053160078678
0.575505496142559
0.583205427526649
0.592548514225724
0.597582527356564
0.603614965283049
0.607165147157734
0.614680610813025
0.617814923469974
0.620798733621682
0.622508673989218
0.624087319587928
0.62243901992773
0.624665471591128
0.62254976065288
0.625801639323766
0.618488868611493
0.629233033189245
0.627268679896487
0.62599173098704
0.627632604880331
0.628824411688582
0.632999901104902
0.636695176152268
0.634178814172076
0.642874613836841
0.636914237153067
0.651942189677342
0.65008273089005
0.651454581341413
0.672784804386742
0.667731632910917
0.673824820708392
0.683866745821132
0.692861787846107
0.703008234220592
0.709168549405725
0.717481772862707
0.733152280070831
0.739591670633583
0.740863008704009
0.748119781969267
0.756181549464638
0.772024023439478
0.773932427142611
0.77816381243602
0.778681836979703
0.776008659782755
0.782089689916027
0.784996302265506
0.780548542384739
0.781846838355508
0.768702782685693
0.773305732848126
0.7649285773264
0.768540315794097
0.769013323126777
0.772139018200707
0.779186632842418
0.792443031519817
0.799878580510911
0.799040865314472
0.809540786914966
0.823262228716057
0.84227250325287
0.842062886329127
0.859061218076613
0.867358679723795
0.886158607001711
0.899588128636495
0.905619469771315
0.919226227427964
0.922421221192032
0.943596548751098
0.965920198424913
0.958351377289511
0.980324741746083
0.997263603190647
1.00904481186046
1.03918852252521
1.04678411115018
1.06770892405387
1.08025478325038
1.09256539599901
1.12610773142137
1.11362194719786
1.15488719111912
1.14470302929373
1.1753443103282
1.20967560066123
1.20636886326277
1.20937105481038
1.24210275220966
1.25628029218632
1.24981487711003
1.25457146014196
1.25673930937538
1.28128405316257
1.25176466012272
1.25810194395676
1.27680631399234
1.26815204320377
1.28502990123108
1.29134583892173
1.27562235743668
1.28154130402167
1.26998147681732
1.25765818778431
1.26111328931819
1.24571131020965
1.25856373608874
1.26915601311017
1.26989077183612
1.27120003782904
1.3176803277045
1.27342127187524
1.30413162365073
1.33013700009853
1.31574690065077
1.30142674947058
1.36573814189193
1.35104660693477
1.4186026901311
1.39977107524721
1.3956133629154
1.42572800056481
1.42143290939423
1.40960671645726
1.448878125283
1.44565422347409
1.46489667075995
1.43445301923918
1.47552399064033
1.44566645551379
1.55507960238262
1.50722817184847
1.47418692077281
1.47956868839699
1.56400593347519
1.52808343330811
1.52362268729739
1.5266962151555
1.51234137122433
1.53898564195041
1.59810552257307
1.58609045593223
1.56073975323021
1.54913306306464
1.5947787521138
1.5353416934569
1.60679468182474
1.53479130450605
1.49375098886895
1.53053895467669
1.57472861455652
1.4509110346945
1.48867183201307
1.43756048116162
1.39525571790637
1.37476955122719
1.30887820985929
1.30979309310803
1.27567660095203
1.20205303787694
1.18653600091774
1.1441838714163
1.14451939134973
1.10712926837439
1.08832085011671
1.08153816962392
1.07354630201294
1.07540326155662
1.04831840142964
1.04483782404978
1.04040059085871
1.024169461903
1.02806293539929
0.988168073995003
1.00074916778429
0.994346566784828
0.967180326990874
0.951244217187527
0.949019159436514
0.924272962990714
0.916981388328847
0.898829751277571
0.868553640254199
0.844735775220225
0.830662410154569
0.807568537675039
0.783435935888349
0.748622596929612
0.733770610548614
0.69603225877892
0.662849269729808
0.640324533156818
0.61451808947326
0.582875759870708
0.560572978491577
0.531071230313597
0.510866794456156
0.491512035851248
0.470098179381725
0.454657288358796
0.431711337696297
0.422845582631237
0.404914481512623
0.390649777451559
0.383892642853817
0.372723460689392
0.36041973334854
0.353556033573336
0.350457204122918
0.349799610320905
0.339892568631082
0.339519404435818
0.333732345736102
0.331165023653447
0.332347316666125
0.333569722987217
0.334410833756727
0.334278273939568
0.335062485946985
0.335631056375104
0.332495702275712
0.33958448583097
0.337549440913051
0.341870105053773
0.339060135342876
0.334723019340302
0.334135661901372
0.331991369810107
0.330145672787163
0.331247402348612
0.327790938090438
0.326570531319236
0.321456147280032
0.317055603352874
0.320337279160103
0.312846635818896
0.311029129833879
0.313743215688839
0.316956395023941
0.313512106901623
0.316785267230571
0.318993698613646
0.319475668512909
0.319295580578069
0.325483918748234
0.330689593913186
0.331022009563222
0.330183899907955
0.329146729861109
0.341564587945631
0.334741255794754
0.339138390106813
0.3477362258957
0.345797019337619
0.346208360889257
0.337160918060862
0.349326651632388
0.344582961032957
0.349083525264633
0.346834890431583
0.336904440189134
0.345335457804956
0.349923961711624
0.353213759223332
0.346838316161619
0.356885715572749
0.352755928171299
0.358610409009077
0.36468734353528
0.365440501289503
0.383958681382489
0.385164157862992
0.396488415125224
0.404319928401392
0.421543687993412
0.42972215110206
0.441119904322361
0.442264228614495
0.459485997212272
0.460172402071721
0.456606292022968
0.459371792469549
0.462389496546526
0.449397835091879
0.460162856290159
0.445786515770621
0.432067688985073
0.432355098992776
0.4262641347004
0.41219086496043
0.410719844977067
0.40728883518802
0.412547471777275
0.40486950702032
0.406115653417157
0.408619790081141
0.408847732510329
0.407860298948356
0.40704566380039
0.412746794184444
0.413912255201823
0.404063437099929
0.400009279549572
0.396351275080663
0.391672801838538
0.399803818324624
0.391075223718105
0.381471525637093
0.388668590723699
0.384047918442625
0.376430891423217
0.373580685163377
0.368578815060994
0.369168541224879
0.36336682131735
0.356388616684207
0.362027596182781
0.365033211366564
0.360739973366756
0.351603238708152
0.349834050999673
0.347971556150019
0.355054739681868
0.346732537849844
0.339039025329669
0.343284676894582
0.335973108827199
0.344108636328586
0.339798219746051
0.327145161601098
0.337382254012338
0.339670727330681
0.331652729696333
0.330946846011014
0.33245719965947
0.320843495369393
0.335883142248509
0.328865589544722
0.322579094455986
0.318380468951175
0.324941084672753
0.313551295968591
0.313169356711157
0.313631153619665
0.306013005744377
0.319353296600558
0.316144908732187
0.306458642011147
0.308791830341328
0.307853556512189
0.309194961750433
0.308235599504523
0.308000097664661
0.309818958629869
0.31564277745476
0.322225326897554
0.317867189068198
0.308158635919267
0.315296058287362
0.320742050839055
0.315819171481585
0.317193188808899
0.313238385620112
0.307504931977032
0.328847691794069
0.320993979342373
0.324620341999914
0.333420683098992
0.334727170068641
0.31803228108479
0.320503290656474
0.339649541211921
0.346103022010501
0.338765293473028
0.34345126201962
0.350912549571729
0.370192413025615
0.365053096095546
0.367085242502822
0.38271570177453
0.385230607693474
0.38025066433894
0.386076392826915
0.408790241453223
0.411478109899939
0.417867113405709
0.419503392013832
0.434922809069152
0.438866534259203
0.467374411367686
0.487118548421474
0.480520152452632
0.519509077578293
0.514196995284905
0.517138960006117
0.52377900710404
0.54988903071004
0.551566532180507
0.544043699241742
0.553659746272785
0.573505674036923
0.522071273706654
0.559135673004522
0.550166332228468
0.552870322798059
0.552646128690376
0.55508002873266
0.518727354077822
0.542090699140648
0.532631745941973
0.534506563657525
0.525018505298222
0.529754470527836
0.50399519858623
0.524056720043889
0.534942867993973
0.498087199855783
0.525222770820676
0.540953957047495
0.496377373210252
0.499537585582835
0.50852219455382
0.522700296274931
0.498012445648987
0.489645619474983
0.477536045029582
0.502895472983101
0.4765698452508
0.500457948580846
0.49548675293906
0.479991999833461
0.448925278842343
0.468729496522962
0.505430357714494
0.506505559787707
0.476551260610915
0.461011620080334
0.467922207508733
0.499951320069895
0.475743043023869
0.464441797553642
0.499783562426378
0.499372662332942
0.46365266513401
0.504250983240474
0.491200824251858
0.492211835707674
0.465465487623807
0.503393996257975
0.484685242727824
0.503582759082267
0.486838475024006
0.487140181688687
0.485346115989286
0.488226273338126
0.536741748044009
0.546188470345529
0.499692347668687
0.548200970033943
0.526056503635627
0.489174123563752
0.523876621152339
0.552131970490252
0.52282615718672
0.551269532805805
0.539279177701015
0.577879314863356
0.539640221040687
0.581703689574211
0.560698491158883
0.54200609748051
0.546932486994582
0.57263864800549
0.55904041445929
0.641375398162171
0.595275353888979
0.627056210256764
0.666631064474061
0.655638209485705
0.595278833581995
0.658927420384217
0.681884436173294
0.772866270222475
0.683416841188314
0.677701835393775
0.738894230236996
0.653137251585426
0.666988439796616
0.715304885331675
0.638269331242732
0.684484574247612
0.602830789058663
0.656175768088773
0.71198483036287
0.678449279511332
0.692492932979956
0.629265431206752
0.550011921076636
0.593209840039326
0.622004369428671
0.623023250330195
0.587607271562664
0.677454789835109
0.6164628107643
0.63963335361166
0.727139347426536
0.563574126815527
0.490011286491006
0.574099760317032
0.635694862453539
0.857473820062197
0.621171087191237
0.68420134341801
0.651819173729508
0.626360203918684
0.615969670385854
0.727913242697961
0.603975514017147
0.872658333208817
0.758697440265359
0.610315201286852
0.609542672847524
0.62086853231245
0.598984387421935
0.679281821847678
0.599133915960472
0.667288478624897
0.641137499312907
0.688948798662832
0.450585822089955
0.656872398792613
0.706485874533632
0.878554336044318
0.561944379263021
0.92322569737128
1.38906482012049
1.04310105436936
0.579565902833871
0.474175717438655
0.715148809119949
0.616265237549062
0.836036823136411
