3596
4000.36533379555
650.420452594757
1
2
2
0.0290576048543357
0.0154240754535149
0.0304412697879931
0.0189395020176123
0.0291425658293306
0.00834307803248028
0.0234353243362873
0.0179870366050771
0.0286857733225967
0.0120596941817641
0.0177803126318773
0.0167491451235171
0.0288104002479362
0.0151488766890051
0.022666088545293
0.0167467171853099
0.0225402402518913
0.0131263136742258
0.0285128008963079
0.0180409354348633
0.023136007609766
0.0112299948091908
0.0306827396142397
0.00878157572152972
0.0221808165770538
0.0196647504006862
0.0224683157386909
0.0170084271030075
0.0258726616428668
0.0148999094828807
0.0294698815131649
0.0153677838662645
0.0193350426629856
0.0214330694574479
0.0251713372155685
0.0110163492765194
0.0215485478925003
0.0205307169182109
0.0335954347685986
0.0125345649992726
0.0305107987082318
0.0217825178449323
0.0218901378882917
0.0184524959037582
0.0239476637439532
0.0157710760005182
0.0161636976580214
0.00944290412212198
0.0268217067749259
0.0181742496580057
0.0247214495783692
0.0190279089113622
0.0322327518077818
0.0245759251758698
0.0161561660753917
0.0149011470536472
0.0210737598623156
0.0144223138817133
0.02232702512969
0.0164012943618578
0.0209706443785878
0.0200403226943707
0.0256824014393531
0.0196682380593337
0.0225165676871106
0.0194672924869625
0.0276060513340034
0.0168333265668898
0.0146535963312436
0.0180128475014837
0.0250443142821903
0.0151027758506997
0.0282610087166501
0.00834906269495597
0.0308062807436921
0.015776213085283
0.019485694668866
0.0121170111373959
0.0234003290656617
0.00230429633992426
0.0331681904123202
0.00753148444654724
0.0252909480441498
0.0133104966784279
0.0148605212133725
0.0140292103768448
0.0345792630195999
0.00716645108662927
0.0409243440855667
0.0170659411842776
0.0263969190088934
0.0142941610503607
0.0190246692423243
0.0109569894551777
0.0266273975455202
0.0120036928900418
0.0221332307277137
0.00633397641840094
0.0254415162741596
0.0051252265573572
0.0344265955682537
0.00423684602727959
0.0438969049824015
0.0162950011768783
0.00510658464376129
0.0356879859739779
0.0091433640479155
0.0226247793726034
0.0256951396998174
0.0194723645310474
0.0269768994251973
0.0133791535116889
0.0125719434888153
0.00585670535342024
0.0312953702418276
0.00804224175953177
0.0282719293819375
0.0103339176164703
0.0195880586384727
0.00931744871959394
0.0338560412430958
0.000490937166848104
0.0404817539370541
0.000466993959240846
0.0235386769447826
0.0130816544466999
0.0267578401422461
-0.000116558977339289
0.0280098607313377
0.011370387685334
0.0224498187537933
0.00327270314314303
0.0283772408917334
0.00286706425122119
0.0388023884761639
0.0126810814828095
0.0166872288391345
0.0183364121755009
0.0105673680265237
0.00950158024920331
0.0224279011668586
0.0134784873922198
0.022270866212275
0.00605676835735781
0.0368331390819896
0.00831309579516641
0.0270326704987735
0.0104360793043822
0.0270005474464955
0.00882155222777119
0.0160410595012727
0.0153028487564606
0.0188621017183309
0.00851900663734845
0.0350375708985236
-0.0276126329345558
0.0562906546071813
8.31362322823722E-05
0.0352672956000398
0.0119620622297406
0.0164021175637982
0.0145510129200861
0.0166137810109871
0.0186984621235053
0.00712332358142954
0.0263413073893187
0.0226993975733789
0.0222269607360135
0.0229116849349412
0.0184132879428266
0.0166167014518948
0.0142511324412544
0.0313934595663074
0.00395436856328315
0.0309869168070027
-0.00133566173005663
0.0342517079400954
0.00636734178098907
0.02501929335871
0.0075726595539671
0.0243665717416158
0.016400681219839
0.0197041132975833
0.00811202470665147
0.0223751644135684
0.0016109719490558
0.0240746716545292
0.0090437007185649
0.0224069704839863
0.0116224719497919
0.0283748249121225
-0.002779231043042
0.0358453534447675
0.00780947477324181
0.0182430097748383
0.0233684784506602
0.00629494651460877
0.0217031466058699
0.0150509892608591
0.0149102345029094
0.0198939560576851
0.00867044497170091
0.0201461634484146
0.0121307730278572
0.0195871904753177
0.00410931812166893
0.0139992351471024
0.0213292359882168
0.017370170165526
0.0138834451970335
0.0172885108389136
0.0219988274307088
0.0102695587314818
0.018094249438336
0.0147544355684137
0.0164776130781463
0.0125974301847281
0.016898312069388
0.020152694366686
0.00695467550983859
0.0135529045246598
0.0134050325915626
0.0264017074183478
0.0138422212099652
0.0149486431635168
0.00991893556262988
0.0187970328417612
0.0129371590524873
0.0133635682509275
0.0194154386641822
0.0229940438547427
0.0163022073928352
0.0232225819279438
0.00938519929455182
0.0266798177069528
0.0130940810549812
0.0255184167004728
0.0148118306298206
0.0184261935838444
0.00652414886558874
0.015246682476404
0.0147205244162163
0.0178844405546454
0.0136588564545757
0.0171945923088602
0.0180938771855795
0.0129311112689764
0.0208653948293336
0.00773724711553729
0.0352052128189083
0.0070710799883061
0.0328057572673824
0.0126944860052537
0.0202690722929707
0.00681346964003598
0.0311025277842428
0.0118513767540434
0.0143781444138984
0.0255050772287034
0.0248551854091003
0.011346061162387
0.0208051921652529
0.0153362462155389
0.017338906267599
0.0317073410567628
0.00871737846908786
0.0399011754879097
0.0159148616215474
0.00558075219329976
0.0254031106716836
0.0155237657441948
0.0278399580655547
0.026806231177411
-0.0134937914601988
0.0200003890557405
0.0151698578883917
0.0205761758942018
0.00827686252929484
0.026247835614375
0.0095734707527725
0.0326523118683289
0.017356264660314
0.0410374767226893
0.0270847673862488
0.00150662140872931
0.046880991571389
0.0115069105231697
0.0202345626524607
0.0041632086003259
0.0218134412703392
0.0178728114120708
0.0348479831493029
0.0121808115472873
0.0212414390132943
0.0130075134582112
0.0243171032131815
0.0203270695508014
0.0189621040304898
0.0196567069145673
0.0150106695231653
0.0252486624254769
0.0226837911631032
0.0249397860938012
0.0198997140193346
0.0250507600380026
0.0128756930331893
0.0326003405331831
0.0215772798948242
0.0183998431505011
0.0245669663839253
0.0176278563961783
0.0164236852847604
0.026270016749381
0.0223158083538103
0.020762948482469
0.0171964717887754
0.0245370183860526
0.0189531299333458
0.0307578101428601
0.012538286300419
0.0280002201050921
0.0224600019616731
0.0329359944790954
0.0206532453955298
0.0258333984956975
0.0271974089509437
0.0304840444281704
0.0239378001267412
0.0167782695510609
0.0311641259425826
0.0298492062359984
0.0187520759958374
0.0472751450723209
0.0217660148160278
0.0417934646806843
0.0254544047260235
0.0309088950264362
0.0320797745912305
0.0236477738372003
0.0246480049558149
0.0281522130112175
0.0316291757716327
0.0374567104324421
0.0348839225382273
0.0301022355366785
0.0359413197160217
0.0498629432906987
0.045679398585616
0.0314008381006053
0.0388702246360813
0.0280254837107968
0.056736997897015
0.0126073629689453
0.0479893615977959
0.0373962016785986
0.0295101489752476
0.0498123574435768
0.0368570893462754
0.04414248702895
0.0315258778560029
0.0470157656268557
0.0362735224244627
0.0488191775186422
0.0421655888684639
0.0520115248692248
0.0435980037307321
0.0553852085198648
0.0531874205316715
0.0572133191405949
0.0543981836623639
0.0621086267686557
0.0431582171638663
0.0625960377726654
0.0547477720323693
0.0834958762862573
0.0524307364575472
0.0739563414458385
0.0741696668371405
0.0484962846435434
0.06968465555315
0.0611629850087482
0.0708462041643932
0.0699054934218087
0.0736828739630212
0.0719504168027053
0.0801643347056083
0.0821660687859181
0.0878700424606479
0.0776587788451659
0.0825592046594043
0.0809060862584846
0.104253898720812
0.0784303061825568
0.0932905930483611
0.077655105135372
0.109074847111969
0.0949238854645602
0.115326546491653
0.0923815954669255
0.101743161869326
0.106084025050951
0.106221925285351
0.10368436002413
0.107564808200094
0.11602724176568
0.1114975892164
0.12245751699458
0.116966743788882
0.129901824342633
0.125975392416499
0.117143169344847
0.136768087468525
0.117887694012333
0.132776069584471
0.148262563652877
0.132670861980596
0.123158653526546
0.142410743702349
0.127966412239586
0.15553090350215
0.157720605991752
0.134898370439067
0.160936783721696
0.142124622080416
0.151454130538788
0.153804580890471
0.164695835304239
0.159464834911187
0.155027387773296
0.162524650641871
0.169920536643022
0.180120344413998
0.17994210156563
0.168442095861576
0.17487575753802
0.179937360058436
0.165077443156686
0.197196162578839
0.179741540051405
0.205650109099955
0.193525218197534
0.199201254855323
0.205797022971356
0.190967812408616
0.185624678493817
0.203057768777985
0.20768952449597
0.210994257523107
0.211500979951414
0.220209350284028
0.237688513025143
0.225111709787283
0.230834837639281
0.228796797365792
0.237850330106804
0.247990903396677
0.237719836127382
0.23676639804823
0.238815197434838
0.262499594992005
0.24684416880695
0.2618410638601
0.263864244883519
0.264571884440226
0.26091582159919
0.258945049740397
0.281929003877966
0.27471552602759
0.256628005078963
0.266357642363381
0.297856752564617
0.291044240475076
0.291257815760921
0.290185073119174
0.289624452504166
0.300476401474976
0.306076343593187
0.312986525370609
0.304386236526346
0.323482908911227
0.325542206208513
0.334965471443056
0.319742542665446
0.331620555325848
0.349543884711195
0.343919977903768
0.325139263291685
0.344619506998507
0.351107882973811
0.350781247382678
0.341885349932552
0.361332553967541
0.352195301641779
0.391090743922267
0.366953948592158
0.387905647643551
0.38308230983507
0.409865463155786
0.375414395476715
0.380829826638067
0.390198388103598
0.392246898724679
0.395076366597332
0.435117728544526
0.41334976381277
0.429851735392305
0.413036592144371
0.41965873404773
0.443429971412185
0.438648388821688
0.431964284849366
0.453404533599774
0.450863350162691
0.443989503368216
0.458278107136353
0.473017583017708
0.444013737094694
0.46017310351144
0.457199595911983
0.456314402260839
0.47343148703188
0.47928199487734
0.482762300329246
0.50070830049861
0.477370958505383
0.502924548697354
0.495180818322195
0.525551560602921
0.506302373180268
0.542470045582403
0.500978385697977
0.53963837429188
0.531108999821613
0.552773393756902
0.540006475905589
0.549397458527753
0.523883418657779
0.59408751170035
0.525043220702438
0.570047852241584
0.572243308282691
0.584494726127158
0.578615902042639
0.58574007107863
0.567723796711704
0.623512718621704
0.582924873116166
0.628469234163435
0.596684860207022
0.595531902373348
0.598563791192046
0.618730563875906
0.618044572071505
0.634660537140235
0.63429543724669
0.628839284774125
0.64210130154403
0.62849411838546
0.628130148377092
0.672849663515281
0.632880552933475
0.682642546595924
0.638684881530962
0.703126549680179
0.6561672416448
0.671645284434191
0.672306704223356
0.697041637155913
0.639512145078431
0.70143469006373
0.667330924669331
0.758699566181895
0.677557846272728
0.751935582572821
0.701921015080099
0.758592895967546
0.686970882533932
0.726027435785909
0.712390169949343
0.778059022854458
0.727979401146831
0.789225355311712
0.720043439623888
0.774901720706501
0.762126576803436
0.793262241778808
0.743728883552749
0.78422986492888
0.782131509684943
0.805938061792603
0.774488239077403
0.809256006727676
0.771208618981143
0.822594832596029
0.796026226447482
0.787285017580846
0.786599014843332
0.817550784015699
0.767553603106333
0.829061589209204
0.77487940325475
0.813304815752024
0.805748468283022
0.842034552845555
0.777441821259883
0.878700848158697
0.790527437877925
0.853377469942784
0.867734314477535
0.866984531892996
0.839297505826121
0.890013669688289
0.830464789945963
0.909327862122333
0.895029675101754
0.953302738643274
0.938141537702096
0.952312271924281
0.877410095807302
0.93228736187974
0.878195994035913
0.897675400392896
0.855345981897466
0.92251647871085
0.853995835938867
0.986311640211148
0.873484917509551
0.928609288868681
0.868802112563079
0.967370255603618
0.89204687135244
0.951082286532779
0.865771636492296
0.961605213941493
0.926678396674009
0.965496534527857
0.928236078826118
0.945913177657464
0.92103624995978
0.954301923372506
0.924696335814998
0.952060639376283
0.909702724721793
0.94808523826096
0.990662936566238
0.995984183946463
0.950466503492216
1.11144341322819
0.991937887394767
1.04200515601394
0.955857011247604
1.00099876500338
0.988500704011948
1.03215623822734
0.968554723971625
0.96069942873701
0.955224759169372
1.02807233217617
0.983620509597255
1.0751392831723
0.979547517579958
1.01574489916572
0.950312554789453
1.04911615118442
0.989255620594727
1.01169650834082
1.01071157365023
1.07784599063263
0.982805933764563
1.08121847680444
1.04070370962994
1.08238475524295
1.05116038939276
0.970743836858257
0.960555752232967
1.05619459879193
0.975508885890366
1.07449548471265
1.01787154422902
1.10445593505712
1.01656286723885
1.07993077383565
0.968617187437272
1.07558499377487
0.989067970778737
1.11918581011157
1.09023336847034
1.0519866350632
1.05455689725525
1.08433248327024
1.01655394353586
1.11883329504629
1.01666891842663
1.08564622495146
0.982253366204054
1.09327101319095
1.0119517722664
1.031233790177
1.07410710152921
1.14638361680003
0.988923795562855
1.09303851813876
1.09175422078252
1.09411888521086
1.04001597415225
1.12923916892901
1.07364130024917
1.08374484226457
1.03111311592118
1.12297176548466
1.0486869109748
1.16767437543547
1.01634359194002
1.10586373570849
1.00386291691632
1.14147452036392
1.06096307312802
1.08897035525263
1.01216964946312
1.12582545711007
1.02748479845987
1.15377963265957
1.02913414140329
1.07860540193013
1.1165057099132
1.2002564423088
1.08670075514879
1.04784812132789
0.99009639592763
1.10779439893994
1.05464832664481
1.14970374824433
1.02384611640964
1.105736177842
1.03137450927418
1.0928222972392
1.02416596912689
1.09347528675048
1.00488858302242
1.05067378714025
1.06377295729151
1.10853401658239
1.04643808174603
1.05810465312284
1.0891803951735
1.06205574362387
1.02880873300616
1.15370263712109
1.10803894331961
1.12737783946998
1.08098883010575
1.09243168144677
0.998500567787881
1.09066221127795
1.04974911335804
1.11143830382492
1.04985079692212
1.08059477247618
1.01168445610407
1.07421132414958
1.0260115955808
1.06767712841909
1.03223223474038
1.10228693630794
1.03844077580901
1.07894982924937
1.05161697918386
1.04286541517516
1.04136832433895
1.08849479662575
1.06556658312704
1.11983548223134
1.03107151289028
1.15193446170504
1.02574698904177
1.08326789694622
1.03067541537501
1.09255279353591
1.00866572176444
1.05671844420999
1.02620945544574
1.03969845116384
1.03946781378058
1.10662273990491
0.998603663460447
1.00178643046435
1.0243583499071
1.08549961456666
1.04543488451807
1.08002498680644
0.968645797802649
1.06025878326623
1.01717159427022
1.05337727364498
1.02472505926051
1.00821491006264
1.03809483475051
1.03940733936677
0.997175554280119
1.03870061431033
0.989373018508007
1.02558769634642
0.963116332095819
1.05013684041034
0.952667174544666
1.01250874839367
0.936533858560297
0.958672253520541
0.956874678269671
0.974306638988582
0.945446621791459
1.00214729753493
0.939355018475878
0.967543651303939
0.968788762101598
1.01725767217549
0.991058802481063
0.982449545653573
0.940258301191681
0.971159543329893
0.956075701504967
1.00312296755988
0.94272166305266
0.974717154791138
0.903606303487508
0.955444533621853
0.932376835949294
0.964836148869669
0.905559744771009
0.963840845963512
0.909107859987284
0.980574160869844
0.916114292511354
0.932659330284064
0.885701836015388
0.944856884678605
0.905149576007281
0.941042657465631
0.876521009061586
0.928741384851073
0.916588026158686
0.917713293898457
0.873786449898337
0.941146664646889
0.908043562061047
0.92231097002421
0.862237020447538
0.880760854794912
0.888055001816499
0.936583735244179
0.873234034147311
0.903852222410284
0.841939736338392
0.873467251213407
0.844607155039742
0.90277204117002
0.852446286723767
0.867507356771876
0.831810333740781
0.855020304485399
0.822457243025252
0.870413316983054
0.831640598454664
0.863225369202996
0.825949396931842
0.864567175951216
0.830814754042433
0.814876118104155
0.813895050238888
0.814535381859094
0.805349690465404
0.822792648259259
0.811856695770171
0.815213983696514
0.791918688219262
0.795031645802014
0.808899940634183
0.822143585059447
0.7538436443537
0.799352792654655
0.792005521505407
0.799888880240346
0.765213281059276
0.773989695814892
0.771454237488801
0.777764349770394
0.760146754784813
0.782586954716698
0.752861614700828
0.771060011046742
0.733021539666379
0.763054595983555
0.727919318789699
0.758197586737763
0.704148175635886
0.730299327387296
0.710891259764476
0.738827102228713
0.724195765711348
0.736755903450088
0.704765011739145
0.712099463503857
0.70288213230937
0.714236998749366
0.672273694477672
0.703635485804911
0.68755570670309
0.690731198277854
0.678009149496937
0.685884940096909
0.683079785590326
0.69083340809175
0.684324419653883
0.676703655998149
0.657083764151353
0.677410391107886
0.64928445575841
0.66751306255054
0.656759377450681
0.670601100719729
0.638117054313055
0.642287805471652
0.615199346488536
0.638350860712829
0.634810627755611
0.655920342873099
0.61736780198045
0.637785762886463
0.612551432020974
0.634388986508366
0.610406248646846
0.620878719364563
0.601576564069583
0.627980520547388
0.611871672684069
0.602396681795071
0.599100523253142
0.59316547793102
0.57422514625256
0.611132192355989
0.584488406675616
0.599163131018577
0.576101149752703
0.59626707413663
0.574265899320624
0.576035565686462
0.567071958757696
0.576095093442478
0.569645267362806
0.565567145472204
0.5501042533733
0.571676720783101
0.546175159288385
0.558497253675421
0.547555346227292
0.559154877439744
0.529190863720419
0.554500147541148
0.535811109107561
0.545469578329256
0.531036670208134
0.539951134774176
0.532147586526008
0.528586310578841
0.519264036500837
0.526406716259944
0.524890633631548
0.532197587247873
0.513537318113974
0.524508955395997
0.50447084595123
0.516826400692101
0.518360477472117
0.506099720661399
0.491708803228471
0.510709108979577
0.499351864269286
0.50322561763964
0.494193335122763
0.498786339399698
0.481908319077102
0.490507622801163
0.479204241965102
0.48878488513375
0.479289607226095
0.478779827486244
0.469178386022888
0.473373364374955
0.46534834177374
0.475746813724157
0.466208211701683
0.479073737511361
0.45460318579093
0.464511915436995
0.460087332941363
0.454796040467896
0.454892328598754
0.45587858233577
0.441710148467368
0.446134228226145
0.440307377949808
0.456779417917255
0.436750826510162
0.447967138054451
0.434341806420823
0.437072793580881
0.423901224849035
0.433009843913569
0.41873429903155
0.427488005644732
0.424826268546522
0.429761015537654
0.410586623474748
0.422110807011557
0.41822032422112
0.421238356146955
0.407943882506909
0.414590710906967
0.402362410308879
0.407003367780314
0.402643346957151
0.406647761866506
0.385425950001221
0.409987927247222
0.397895400074425
0.392260890294671
0.391285034499439
0.396288717966203
0.381829546694943
0.394792308873185
0.38851800198275
0.384717695661587
0.376531392608131
0.383899928823477
0.382435925513624
0.379246331684042
0.365174004154496
0.385177998175575
0.367989277986558
0.371430946327768
0.367629950041797
0.368831396217296
0.358280477156119
0.365011114946168
0.355446339004743
0.355147480126025
0.360220203684
0.361412323579552
0.352472192977282
0.351585963497688
0.348338085668314
0.344531591998692
0.341439836439334
0.35296782928609
0.34144297007999
0.34369087434682
0.336087109377944
0.338209677989488
0.339856681423238
0.34332632526917
0.33361026847149
0.337263625374014
0.328825267951253
0.335395451442649
0.333042832424784
0.33935101579411
0.329720241698743
0.327891574423191
0.330548604842689
0.327660325560116
0.32569083472126
0.326955508656181
0.31889247186697
0.33329086716942
0.323063056834489
0.325117100246609
0.316066736820107
0.319028663215575
0.319257512819242
0.326547790295433
0.317318416405693
0.318986532161832
0.31147231959803
0.321830462865116
0.315352718184304
0.318283468306838
0.32159994625065
0.320631246447202
0.318717057708557
0.331836454722864
0.315269320170188
0.323425725846536
0.327177197859864
0.330796073175383
0.327702732054965
0.33709008076825
0.327814743452723
0.337980940417205
0.332430435503002
0.340629977386308
0.341331247898518
0.33884504962034
0.336057742700225
0.344489196098257
0.345080385191927
0.354223913808901
0.343763609707638
0.349754894873348
0.354573491242488
0.364994386218492
0.351570903268256
0.368428361800987
0.355589375765091
0.365090292709273
0.369459928040535
0.364712685709514
0.365009598119977
0.382715559807384
0.373546802345608
0.379874984877396
0.377559173448015
0.381537213206737
0.374154085175318
0.392744870739523
0.38502410415067
0.390007359167691
0.38560944845593
0.397644575292525
0.393156078155165
0.399386606991483
0.406985339577752
0.408089662933114
0.403451301784906
0.412028916134644
0.41197748929528
0.420676054048462
0.418414905302433
0.432453766784089
0.432440972236271
0.436779441724263
0.432282577713293
0.441230974812107
0.438316185667251
0.450809582950001
0.438364657793066
0.444412578199086
0.44371221853929
0.449540196167738
0.452674495251022
0.456820184804901
0.442293630353797
0.452757477843606
0.447222174030153
0.452225880315663
0.451769344855326
0.449084525972465
0.443516450373839
0.454090489320964
0.450548366991564
0.460983482514905
0.453075815951808
0.453683718520498
0.439512320657981
0.450237717865498
0.44678378552426
0.448872418772889
0.44202548925636
0.449472486350201
0.448541370896167
0.447313023635351
0.444938227923122
0.439230083737278
0.430914588998796
0.455180367690318
0.442055263640093
0.439448590405788
0.440406278768052
0.447701661444572
0.441488015117108
0.452602828875479
0.445173127320634
0.44470641896204
0.433609973862556
0.449547035205724
0.451070002004029
0.441452364043376
0.443971031840456
0.449016516640679
0.446473853481318
0.443352804902626
0.445708118608211
0.450811548763614
0.433914482417195
0.445670479432223
0.440196056232798
0.445703956954422
0.443262129075906
0.45384207353638
0.447867448076938
0.452329103141224
0.436728733522694
0.44369359852117
0.438026921006045
0.431922376792322
0.428905405028717
0.445476561251623
0.431235095740611
0.432618698493825
0.433450767750143
0.434068330611499
0.427657492915929
0.420404394639711
0.416098543254639
0.425104597568321
0.412893409901651
0.418886404725789
0.412916485198954
0.40751256708678
0.404813340411539
0.410847924656075
0.397301041617109
0.401250100365276
0.391636445296099
0.388364507206892
0.375533607325379
0.385270881775899
0.380229952508611
0.379124210897471
0.369334258791934
0.37429658418304
0.367769437181797
0.37714325792255
0.36732495020827
0.364937062106192
0.367206041669898
0.364225624016031
0.353575378874021
0.353923255232521
0.346450452545448
0.344704204972615
0.342743377208786
0.339030684251801
0.335276498074042
0.337052300690725
0.331493477452634
0.337864636920206
0.327445403723896
0.326107561354569
0.321331503225643
0.328910281428971
0.331012409067607
0.325102080922344
0.320474255878377
0.324684404383015
0.316180585358087
0.315023302066744
0.30827203865291
0.3097979750032
0.310241099557341
0.310292994020421
0.30555345192589
0.306854866144767
0.305043773052065
0.307621518781813
0.295686101473635
0.29674663505542
0.29630782331827
0.292691871625628
0.296612421915929
0.295152619901366
0.285210545978146
0.288153670871631
0.285241767971074
0.288288167181869
0.283073955487482
0.285741101308813
0.280525114010148
0.28495912310758
0.281738874292546
0.282355692587273
0.279122417069204
0.278049887231037
0.277539665895711
0.273622127077086
0.269385256706397
0.278037261648977
0.272041217445522
0.271927969772155
0.265236279538761
0.267153537668715
0.263173209387503
0.265773807448191
0.262413748618362
0.264596800625718
0.261272690705584
0.259236424652015
0.25861317300289
0.259750544732752
0.260519567405644
0.262089169675812
0.255649929953164
0.258608573703278
0.254771019225755
0.256089579370997
0.251756583371313
0.255440479470883
0.254234197513191
0.252175828542065
0.251013973151253
0.251041719759532
0.248479868026137
0.250454186913608
0.245125816944534
0.247610772425206
0.24462179758289
0.243683693125118
0.239172806024182
0.245158475174759
0.248437430040137
0.246082181185812
0.243039250662549
0.240886438167473
0.238016861914492
0.238479866869178
0.240897052649232
0.242182444160741
0.235942356336345
0.23581103964086
0.236338080654482
0.23615935328737
0.23378865809372
0.235964293487902
0.235490822206371
0.231875455191021
0.227284307511833
0.231367235765162
0.232059584515303
0.235088256784876
0.230759250403607
0.230610973648725
0.22959673556311
0.22876729156446
0.225131200440081
0.22559043704962
0.223246966104914
0.225085752698527
0.223671186226135
0.223816445899955
0.227331501746709
0.226348450627941
0.226242515215805
0.226269732792772
0.224582986757904
0.224522214045712
0.225701276270819
0.219238301132212
0.216578144913392
0.225843663400164
0.220890686278273
0.219006682346595
0.218664987927369
0.218947748916522
0.221440691952589
0.224751129762151
0.214621252003385
0.213024443066788
0.215387621298156
0.216579614124653
0.219563845638523
0.216964190121405
0.218108640637607
0.218623029197066
0.214072789165471
0.215049580907521
0.21331031065934
0.216140810977028
0.210283427715427
0.210168150765854
0.212200419051477
0.209923153088637
0.208060898304185
0.214014768491144
0.207198526886801
0.207103335513286
0.210337642119682
0.210095575687931
0.20675554160407
0.206514265549439
0.206913724949171
0.206521177060771
0.205435673057892
0.208194132967538
0.205646004761332
0.204859913091755
0.204600895422761
0.200985643942941
0.203243380872092
0.202816231547495
0.19817101446096
0.196294346089018
0.198160196835645
0.200645413786666
0.196706283469548
0.200566583419609
0.200155755014241
0.198549113204179
0.200962332732314
0.197332237465344
0.191482863753563
0.193697333011477
0.1969156469254
0.194603915689316
0.191951036162054
0.191489163073006
0.195074290295884
0.196175009305293
0.188862668905039
0.192190354278879
0.193079840865726
0.192090261264704
0.189354491098898
0.187825664134153
0.187636212478269
0.186920671994558
0.185033860972299
0.187667618042344
0.183478878132404
0.181439553385049
0.183221419040893
0.185114209205347
0.179152647129408
0.180641711433817
0.184008288732033
0.182277090427169
0.178915802597633
0.18034730415655
0.177136568630914
0.17568970384644
0.17511027196024
0.174589850309466
0.173540191893318
0.175751028805649
0.171462788605837
0.169986001199107
0.171455647572908
0.172614231653254
0.171470645261055
0.168663673319862
0.166971862358035
0.170353455011283
0.168337429071828
0.164071274323666
0.164513749655414
0.166388656544
0.162016476740561
0.165436290922352
0.163175355755564
0.162999598524428
0.160938764900537
0.161561616219014
0.158108552909612
0.161249809808344
0.161143881892931
0.157226980633535
0.151587145144282
0.153190726280846
0.153648999374969
0.157260527374751
0.155556460100593
0.152966652640893
0.149402578185624
0.150765635658641
0.151329499868593
0.15206060811062
0.152428358457969
0.14746440285284
0.14809846837663
0.148381093805713
0.146161708660398
0.146235354334986
0.148097572193853
0.144434819957598
0.146024146511742
0.145293829403632
0.141645093845036
0.142781455017336
0.141717177630274
0.140687030021565
0.13925702312051
0.138307067594488
0.13807828773023
0.139607885627362
0.137088939615165
0.139517242507692
0.140299973887672
0.141270623899993
0.13783854895022
0.137312094734074
0.135555718341108
0.134810787123244
0.132508179195082
0.133399881626716
0.131170767328065
0.129922974599679
0.131267009287358
0.130567935752708
0.130631639558721
0.132097082861978
0.131182766347823
0.129992820526204
0.132996361933219
0.131277143385088
0.126759284388777
0.129747456586576
0.12741518825229
0.125895938700789
0.128945364712767
0.123828252215218
0.124715660508544
0.12759187457886
0.122597151799987
0.123551304493421
0.123881121533657
0.12229780335258
0.124627112944505
0.122694629727249
0.119656666280753
0.122347243128908
0.120480483572641
0.121143700126882
0.120744150967115
0.119445440865042
0.11992651591873
0.122558072317478
0.123227861305895
0.120081058327273
0.117354272988841
0.120313192106034
0.122324809633617
0.117996563034061
0.116720148333609
0.118050743589901
0.116680869508314
0.115417887733078
0.119286122756603
0.115285830857456
0.113144601472586
0.114824038092445
0.116592137960048
0.11413940079398
0.114355160305629
0.114431432062996
0.11056851855737
0.112638086727254
0.117606233649235
0.117747064549006
0.114722372901363
0.115404583247271
0.115228353858833
0.111652002746679
0.110140561993728
0.110836025121733
0.113733303209176
0.107767382725354
0.109172226813673
0.107121706731549
0.108317495832839
0.108057269715482
0.109865131746501
0.10579967778783
0.106817751095586
0.10893573020293
0.107788438254015
0.108007179599211
0.108544811456138
0.109407235188421
0.107045908752783
0.109188586431494
0.106414049680118
0.10873872672481
0.106930614385332
0.105665385304373
0.107130818795966
0.106666302135859
0.108105738558813
0.102879803484236
0.10425719324315
0.101076234414897
0.102076124649312
0.105724430712509
0.104030922056586
0.100577226392797
0.101528150201945
0.102815223667981
0.104060563827018
0.105254036838677
0.102529316824333
0.0997692051054195
0.100828312532687
0.101129801294552
0.099827573226839
0.103350512058945
0.101170575181679
0.097750944262124
0.0982964322148586
0.0999797683885176
0.097147951140368
0.0997096684531307
0.0971930509940997
0.0950382555691598
0.0975750339056643
0.0956206491651672
0.0974794267592339
0.0959812332992455
0.101457920470002
0.0956120799009301
0.0987402334995359
0.0989502558623942
0.100980675873371
0.0957019457874412
0.0983073489695521
0.0955999929087895
0.0933050792643136
0.0932400429358379
0.0877975962450357
0.0931464882191427
0.0951124533876397
0.091512595757701
0.0938634342135725
0.0902236511581854
0.0936034482878771
0.0927616529161366
0.0914829979317899
0.0926904599817873
0.0881564531278351
0.0900259799351819
0.0909628056709143
0.0916800892518498
0.0906573385134279
0.0864310149716164
0.0897101401799466
0.0847042643266027
0.0863156051361096
0.0832500337553549
0.0872281135867058
0.087685843132756
0.0865783051398996
0.0840444483871103
0.0857538619372701
0.0830757527119946
0.0845171032416075
0.0855416640319017
0.0838375833199245
0.0792339172226843
0.081932873377522
0.0842309573165605
0.0787810551443266
0.0775332033816702
0.0831553609404638
0.0817657073581333
0.081405264692581
0.0805206402693056
0.0819988464630125
0.0793383450494537
0.0785189467169864
0.0764868079660045
0.0805846138047284
0.0766210183403082
0.080253136674244
0.0741879342788132
0.0779295553586948
0.0753444062011954
0.0757607889322299
0.074437650708633
0.074683473327441
0.0755743709650626
0.0753985866428886
0.0745697119401975
0.0750255643096478
0.0689498651294802
0.0733218132151546
0.0714454638810268
0.0713629712627836
0.0732855174774965
0.0730769885695234
0.0715902585038369
0.0729321395742092
0.0699060839955414
0.0706852057791826
0.0726772730497467
0.070361395178542
0.066648776884303
0.0732894568709316
0.0681280357694599
0.0727329568143348
0.0661026102751972
0.0683070030763494
0.0657961744134384
0.0694368356023963
0.0646484786069132
0.0674255514192947
0.0682344962778962
0.0672653614707511
0.0646986295084642
0.067610043304954
0.0638598122220477
0.0653065267734829
0.0623194513578642
0.0633169304926325
0.0641772790165898
0.0609458864720517
0.0625402890631541
0.0654406118176268
0.0623182659818515
0.0637449630078545
0.0626225529398245
0.0634991794019664
0.062786386526658
0.0622537034067054
0.0619396759342882
0.0630328973740563
0.0617897963668567
0.0641057203232696
0.0624342227244906
0.0619390869494878
0.0624278573685031
0.0579534703136404
0.0594717559475012
0.0616024391528647
0.0564149552533894
0.0603179043839774
0.0604941937491323
0.0620697678111161
0.0599333932590624
0.0625883331712849
0.0606820369674142
0.0617970603986166
0.0576348210172664
0.0611176055197727
0.0573644247750996
0.0596059717138311
0.0545765474219956
0.0571502085595879
0.0536921810096985
0.0623622656527325
0.051023279530328
0.058285305964243
0.0522679973421839
0.0622780213363046
0.058056585551762
0.0591726638956867
0.0537823013762743
0.0561706264311055
0.0503066816317483
0.0654829351289359
0.0546651077091742
0.0581114934917961
0.0512220709717319
0.0533787376108412
0.0441045075902417
0.0556992795591495
0.0498985266027509
0.0563541201795531
0.0451154740855902
0.0542388475928935
0.0474341760807057
0.0572269470886818
0.0511637595138304
0.0599287737622167
0.0443648939082281
0.0598864852047579
0.0507025733101813
0.0555566567660286
0.0449094787883282
0.0620744802065488
0.0439683811286148
0.0581009847702476
0.0429721067160617
0.0521302533022309
0.0440523576148744
0.0530151144434614
0.0471115395717894
0.0555101903048915
0.0441266460657444
0.0582249705398585
0.0481612008944451
0.0608675605235212
0.0471911633017598
0.0540181734534788
0.0434500204427111
0.0498247501769855
0.0436527405774937
0.0593165362668461
0.0549516785426401
0.0474015293779284
0.0505574752946157
0.0464803578092182
0.0577193489402572
0.0478704147493328
0.06216301067584
0.0375741479627045
0.0644651862703642
0.0364066503060673
0.067821003010829
0.0276322945098149
0.0732143060056315
0.0319478768738922
0.0674227484332388
0.0329072234807415
0.0662466183540117
0.035248576197777
0.0583141738865154
0.042435096657603
0.0553281624834463
0.048559900616414
0.0498851679930655
0.0532219006713205
0.0509211879577976
0.0482609361598851
0.0501395107549864
0.046775720351085
0.0539642372374658
0.0470470444157361
0.052604571538617
0.0479532195501303
0.052610088382236
0.0447592919304095
0.0519729466769799
0.0494520085336161
0.0517228791446776
0.0496480989260863
0.0511874982103096
0.0469297054489977
0.0503441258966346
0.0485129007322602
0.0527471010700913
0.0460632596757293
0.0519138546098817
0.0497977147098136
0.0511877830553696
0.0453600289884503
0.0495357828407979
0.0474901825539502
0.0499081994007448
0.0488833863501877
0.0499521440194327
0.0474725194053406
0.0507817355337146
0.0479030528128001
0.0496337793289633
0.0460396330353009
0.0512020217047094
0.0468384718214323
0.053321972312112
0.0498642175832495
0.0474288857329378
0.0494107511038176
0.0512838347713513
0.0506312230037578
0.0497952946978625
0.0494844173568113
0.0503377613197707
0.0464166435920783
0.0513999720248591
0.0487019841289272
0.0469537569575754
0.0483635149529895
0.0486094862614521
0.0474425902011759
0.0504913594345196
0.0488055317172001
0.0502653860443026
0.0482008849112036
0.0515267789004624
0.0460310667033781
0.0522099608827886
0.049306225407029
0.0487606787946341
0.0494031361658947
0.0493951614061964
0.0480006806342973
0.0493238545763102
0.0499938406714571
0.0478664954544414
0.0485301872060608
0.0494966699083943
0.0505071128789624
0.0505272811614876
0.0510673819945258
0.0479307369614196
0.0483392920084281
0.0486128649148342
0.0475939453320725
0.0491498761169327
0.0520121568076319
0.0532911451236247
0.0506112527729135
0.0493007156617356
0.0505996546939482
0.0502125555028709
0.0471069487865169
0.0471810488769668
0.0471397392148479
0.0485700453338338
0.047397057781637
0.050051282684775
0.0485590341554002
0.050174255324431
0.0507878578386482
0.0493066026143812
0.053007833769633
0.0497322431847645
0.051333176292438
0.0533744501582857
0.0503081898100837
0.0498834066970258
0.0493973405666996
0.0483790981755979
0.0505895860190703
0.0502593063558385
0.0521009258202104
0.0505005153605388
0.0520796230834737
0.0503389375557319
0.0498724832921683
0.052383004293053
0.0524247792699346
0.0512832695260597
0.0544081529540674
0.050454746529584
0.0485329706178902
0.052310875948035
0.0513959398131261
0.0526330424701121
0.052189636780648
0.0516613412581498
0.0514190213602443
0.054237054893678
0.0501525400466524
0.0517281846691272
0.0518402442572982
0.0512694031410193
0.0528025336637673
0.0502692844586235
0.0524796448429146
0.0547144264036615
0.0527633977806826
0.0540595137784579
0.0526751307801347
0.0518969863694941
0.0528019177665216
0.0539022386942892
0.0517157197529726
0.0521928046685269
0.0545329435307212
0.0543640708974866
0.0523827228161605
0.0519509480096785
0.0524100673871408
0.0520215198058208
0.0537950192446463
0.0551225669947202
0.053839219510282
0.0520976513034879
0.0523595015766014
0.0530639808357575
0.0547945660609341
0.0519466147233129
0.0547065103678946
0.0541772513651534
0.0549457276270384
0.0565341473789704
0.0558504513538203
0.0541435767172604
0.0533237863353468
0.0542490001478814
0.0545613138439483
0.0544782624974204
0.052927620668529
0.055639929607296
0.054819640156499
0.0569409881066629
0.0567028431614995
0.0552265432122711
0.0555278727234555
0.0555638919376075
0.0578785527876833
0.054476822412414
0.0562319528556142
0.0546482715811856
0.0552476916810196
0.0530124285504253
0.0552535913485234
0.0538044325336085
0.0561521223257289
0.056621970659785
0.0548800514451127
0.0533560656024154
0.0552350842071705
0.0541152504866222
0.0532554954692657
0.051016862480058
0.0518397207014387
0.0539629097809415
0.0528504255088295
0.0523834077545899
0.052863092587768
0.0526496742534515
0.054804833111414
0.0543572467399102
0.0534471460728497
0.0549158768920165
0.0535607815114951
0.0527389329569335
0.0529200732314009
0.0510900094459477
0.0527774708829043
0.0537530582566881
0.0537592241285125
0.0518945537324527
0.0547792806455809
0.0524684901915412
0.0531474152555971
0.0535373497120333
0.0551645521629617
0.0503053092508041
0.0518225476599842
0.0530431826306762
0.0524158218752633
0.054444422886752
0.053244444320727
0.0503137622102935
0.0521892113698229
0.0519481506527257
0.05242156640287
0.0514079757157915
0.0505303810537949
0.0500279989346987
0.052278542875262
0.0521917934901423
0.0503859581359861
0.0533715857494279
0.0546126324331362
0.0497758436310399
0.0515739597336471
0.0494995567775167
0.0493312595407045
0.0483123130414286
0.0521862892151259
0.0521417827358227
0.0503333810883041
0.0503251033956459
0.0507542338224203
0.0485885711071505
0.0529483163418128
0.0518876066479921
0.0527922180743344
0.0489148440961533
0.0498657118340155
0.0519973540179836
0.0503335532707013
0.0500182240055756
0.0506052746798702
0.0501023803192899
0.0502855244819236
0.0514138542210124
0.0517629292662515
0.0509716177669095
0.0500467350942692
0.0509116308987081
0.0520479660019697
0.0499585430845729
0.0510391576506254
0.0513928767508086
0.0500549114569186
0.0496080202810791
0.0530125818161015
0.0501363709389738
0.0494521866438181
0.0511063685531143
0.0508252124296242
0.0508634475739907
0.0528415472127754
0.0493639960210414
0.050532896551836
0.0499606948247238
0.0491357471964318
0.0494611341783926
0.0489264930701629
0.0482075769755162
0.0497265621149136
0.0492209644433584
0.0496439406121115
0.0501985549519493
0.0492750169650594
0.0480979255263774
0.047392254481707
0.0462616702351184
0.0488443360156291
0.0489764106083201
0.0491743676718029
0.0497137053849523
0.0510932922166326
0.0479112372140494
0.0495901264085267
0.0465846902193736
0.0473907905774985
0.0485783778789468
0.0481239340510485
0.0470342811113964
0.0472190007679186
0.0465860294166745
0.0477231766413437
0.0459652442490287
0.0478288366373896
0.046733695868219
0.0470675669038807
0.0479647348635246
0.0459007601062994
0.0454725227217007
0.0469052595593049
0.0472202441313476
0.0453319908386022
0.0441675765594674
0.0454569470664795
0.0458502999727594
0.0471481420654835
0.0443607734353549
0.0477927336891471
0.0431969348852219
0.0464512710174228
0.0439774580422765
0.0447226887599946
0.0454976154768627
0.044122411523597
0.0457806509326485
0.0466480033108632
0.0427827230686873
0.0421075765555238
0.0421036802281455
0.0425736431426744
0.0412704434165724
0.0415736819267622
0.0419814497801352
0.0456886644785895
0.0434897834057011
0.0440321261245985
0.0432293873940663
0.0429899019181704
0.0395269519147575
0.0427580503616563
0.0409689606928478
0.0437893304736452
0.0418640802321561
0.0422739835761421
0.0431677709996735
0.040249500467099
0.0432546939822872
0.0424799166053032
0.0399947814847351
0.0392407929218412
0.0413859072424837
0.0421920843417662
0.042170030930755
0.0404895023086336
0.0407605754027887
0.0409023771926349
0.038676428087963
0.0390362331522727
0.0412898763428005
0.0410788453421714
0.0410937376667461
0.0411940225544209
0.0400230763032502
0.0417998888978739
0.0392717472641642
0.0393439910855963
0.0413535847245387
0.0396398991575113
0.0399209669376383
0.0385426277640601
0.0420274058410404
0.0399352201116928
0.0399504609806973
0.0409952848228023
0.0403668592389215
0.0396124795561332
0.0422360758040388
0.0403795851665331
0.0397704742427304
0.0397104234383664
0.0409312097473465
0.0406101837175951
0.0405603925604699
0.0410828862580042
0.0371205309191979
0.039054051793559
0.0388050784059997
0.0366759289398718
0.0386412516526342
0.0368773584162072
0.0374134984772107
0.0384779629111827
0.0396170948862765
0.0383285093759235
0.0384985635698624
0.0371621994355766
0.0402970514996334
0.0451345492257168
0.0331390678147717
0.0418511901278751
0.0375890370468231
0.0414273886988636
0.0358016565025803
0.0388557023585756
0.039059885137789
0.0395417857567507
0.0371304982079488
0.0370745893821871
0.0352042171938113
0.0381740465669426
0.0353089703281965
0.0379890686337129
0.0381278004367027
0.0400031253856084
0.0348659727637249
0.0394341022751714
0.0353523156628582
0.0374749331004185
0.0400163911577706
0.0360692632557599
0.0331538734437724
0.0411607705519719
0.0332734739497849
0.044291043109951
0.0335769382452479
0.0392010468489162
0.0349199449164349
0.0361871585292712
0.0351787071294061
0.0373929801774835
0.0365874506110734
0.0379533714454707
0.0422770658391591
0.0338921243485734
0.0398339230803765
0.0362890717599601
0.0383505967292734
0.0357859887876154
0.0376265333194681
0.0367690243411836
0.0350997319924143
0.0360606814356628
0.0351847627022235
0.0360046342891811
0.0358872944539634
0.0385182004983145
0.0366140000578592
0.0385554351058703
0.037363863965287
0.0357779364134886
0.0360494400086646
0.0358034367274695
0.0369740783017226
0.0386564044462166
0.043660261665624
0.0322700939087801
0.0392781285505589
0.0344183071357273
0.0384431901593283
0.0363028022873108
0.0359953072276702
0.0354182267847027
0.0366367213940118
0.0382822314309885
0.0382410992845216
0.0363424610459316
0.0365907890177823
0.0357107088969895
0.0367439761027463
0.0394209008372735
0.0347871394961438
0.0371176291046922
0.0344321961870891
0.0385299507581808
0.0372291336825709
0.042279791812
0.0393791968694024
0.0369048175407825
0.0380734665318566
0.0329180340479424
0.0370696243413731
0.0347671044829749
0.0376898664573459
0.0343483831747567
0.0382073613653852
0.0314107746525937
0.0369436521390825
0.035202014932819
0.0377716221094848
0.0352676241966717
0.0373681815519243
0.034301448998728
0.0372069032435087
0.0346201961797516
0.040786142428343
0.0346982428688376
0.040216303545524
0.0334016169822889
0.0421147140595129
0.0348228765079408
0.0409091690482043
0.0329753179799117
0.0438411067163798
0.0426944459931828
0.0321400187306778
0.0423168691113812
0.0343143026891854
0.0415381668741452
0.0356525067225732
0.0368604597923969
0.0389374116980173
0.0376724045423174
0.0359394120481187
0.039349301455127
0.0359188047402513
0.0365559201267025
0.0361358593621723
0.0382338567688849
0.0413607532753749
0.0357952880422003
0.0391542092537682
0.039482485606471
0.0325689862396688
0.0478144821265743
0.0341392842850171
0.0421353117907999
0.0381686694898952
0.0382244434601638
0.0385806337168026
0.0394470550056083
0.0387779642949928
0.040557344517898
0.0408648147531829
0.0361584456148921
0.0401306720266513
0.038917763643216
0.0397086144921861
0.0395755138907334
0.0395877843678619
0.0415358768855083
0.0389342406954879
0.0406850905578019
0.0412998998723564
0.0396231253383379
0.041379401595484
0.0393948079976754
0.0420802845398633
0.0414084289618754
0.0439660803297457
0.0410349675827791
0.0432831605565578
0.0438751487207472
0.0404045965211028
0.0426518042274025
0.0404996211087536
0.0412610268813611
0.0457904033083822
0.035084994447813
0.0542089296204818
0.0382406633320066
0.0539051339430354
0.0372818078691428
0.0468453435715274
0.0361850107099013
0.0485868949439189
0.0397304784422159
0.0464796174197019
0.0404173216746651
0.0434746780098147
0.0468151162217
0.042438226741948
0.0468914718807296
0.0424448715242691
0.0473829634976313
0.0452813717977137
0.0461460626111699
0.0433500827572577
0.0509337878392442
0.0416478072456179
0.0623753634128398
0.0477567673052514
0.0423147148480236
0.0483397002668582
0.0422794759111602
0.0570364190663193
0.0462979595256603
0.0488662962432812
0.0480355437032016
0.047843405298273
0.0526168270304025
0.0451389666766875
0.056121136175605
0.0497709481554177
0.0485341741617475
0.0554311230717187
0.048742366694587
0.0554553436499141
0.0532279700120669
0.0498416161576418
0.0511972985578158
0.0553827706299853
0.0536449181393832
0.053733458169458
0.063222404005589
0.0495817351583292
0.0731062351628899
0.0511039603892174
0.0660941950242303
0.0556422216090647
0.0639401122063863
0.057071377901768
0.0678500780335095
0.0557862586509363
0.0654046552252565
0.0548030587413423
0.074209506502883
0.0576251576854094
0.0693684327702842
0.0666933980238698
0.0683368353389986
0.074195988841873
0.0895146828449168
0.0693836679331664
0.0750976970170751
0.0664475373418391
0.0792503453385005
0.0726529179111228
0.0739539378447158
0.0759732398943708
0.0763440589821553
0.0802822477989243
0.078961904179384
0.080627501101181
0.0845785218533913
0.0784666505478353
0.086918517092885
0.0804674754137486
0.100530500894524
0.0860450947452039
0.0994803056376214
0.0875086109397004
0.0941197308823148
0.08942514218674
0.0926311701409035
0.0914858422813278
0.0912816927131326
0.0944689876273318
0.0923435847916542
0.0956958262174289
0.0988764775111249
0.0994798108909905
0.109560745577536
0.0986890110459815
0.119754388521389
0.100098313753014
0.121565019061346
0.108198772616348
0.14664867768941
0.125730410461786
0.124027039439992
0.138553771052298
0.127140471629877
0.157416048115507
0.142223571648579
0.150446904931463
0.151927908563865
0.160408249143532
0.161641862892349
0.170661376609273
0.173712653198994
0.183305632339443
0.188304418415901
0.197062395893541
0.197216568751124
0.228839009732891
0.211071607569315
0.224647622567876
0.221840275492571
0.232819525051827
0.240725224547613
0.244116314691576
0.243590555196846
0.265548212225448
0.251347278809038
0.294755515055873
0.271240262480606
0.288461786043025
0.286446107594699
0.306052857172919
0.305871550964636
0.309463083650918
0.336576503739277
0.316878314224767
0.336944800140258
0.332423570175325
0.354248372372658
0.34975272796501
0.367829123850297
0.3646051411732
0.364131298244114
0.369181742383129
0.373624363466932
0.388533722002085
0.382969625148634
0.388530790148209
0.397307970044879
0.401784718772346
0.419358606816569
0.419740115219038
0.413886686329451
0.390525699919265
0.40414865404891
0.391984835594563
0.416896743304645
0.411771100801045
0.416994930790983
0.414113246611959
0.402398521933878
0.410592061536739
0.402393911583925
0.409558363022406
0.405365752567626
0.408573543959604
0.40889989342292
0.404240297426769
0.423901438144797
0.39005824429354
0.440262602435839
0.399316014336571
0.412865699723257
0.399545676716664
0.404836459792913
0.398578383322013
0.406011146368002
0.400760706107461
0.413543667424558
0.384978137881954
0.388500702784294
0.388795263367644
0.378770797578132
0.391821282111985
0.370523317903438
0.364205688163007
0.362373198701522
0.359765574969987
0.365669060011154
0.348527300203196
0.372689261633232
0.344855056005573
0.336608128781221
0.338512910522113
0.334344755591133
0.329400738525814
0.333266976183128
0.326142467366187
0.324685777870959
0.323899626697253
0.322241262636246
0.316349571518344
0.314267876344138
0.314604498562733
0.308984130970964
0.313067522450672
0.306894477147606
0.307340710102404
0.305975269812806
0.307111340374315
0.304104379042488
0.301495695446322
0.303565742751827
0.307334935427313
0.306775279142489
0.300134548669027
0.296708669595346
0.302237965343095
0.297288137571046
0.296083127551612
0.294607523542561
0.299041939998655
0.294743111248516
0.295224877892102
0.294857624991242
0.298462515349545
0.294370855267194
0.294045106451374
0.292597468529002
0.295931748803515
0.285095684824036
0.290347882144281
0.297967441723999
0.288224618622869
0.298855398199872
0.281727219997395
0.297289979410608
0.288741054122816
0.285298901322353
0.281261786771892
0.29244740729518
0.286750292327565
0.275741047674685
0.278826276180686
0.278144359428598
0.276367453013541
0.278956132264642
0.272300446712705
0.272491548057479
0.283404488757059
0.271745669469554
0.314375814337931
0.275397696128498
0.294562147935167
0.265665676559649
0.278570483806311
0.276234367232676
0.28510013360456
0.272638917545699
0.271013788119757
0.277022219315325
0.263326279164001
0.281143887598363
0.266524637706767
0.267919824188272
0.272976486019896
0.274031588734512
0.273753036610031
0.274037943611027
0.264681883644652
0.276773892155523
0.277019802943802
0.25679225601546
0.273608090364656
0.258293929415854
0.252789068411926
0.249743687362566
0.254304402388888
0.260853397822892
0.256435531473001
0.254575634221643
0.241572224438359
0.244931894787987
0.23465899762183
0.250768437380863
0.234770773944405
0.241950754278323
0.238059354360288
0.23104602788373
0.237069859959675
0.226075737148295
0.242775921602659
0.229752085217999
0.239053508534144
0.218216956740783
0.22914418441572
0.221224033951904
0.23331684360629
0.222216865206051
0.214090384489317
0.214312029075532
0.213811709327294
0.212675601073937
0.21074341447575
0.199686064714508
0.213240259644573
0.204609031029107
0.215850888616253
0.220159300485128
0.198611924994003
0.18942517764376
0.192820131766255
0.191622823416158
0.193847488838733
0.182893909862897
0.195447860216178
0.179669996830289
0.19833581074412
0.189706035304771
0.200600330276127
0.197510153737377
0.193095970906045
0.188345016946832
0.195625796813719
0.19793524720754
0.215609061535584
0.193961303892182
0.206296917653589
0.196641559464953
0.208830586470454
0.210196459177263
0.209655092511546
0.210104262200099
0.216315824359528
0.216796001822875
0.225875102172389
0.228666452898267
0.232174695411544
0.23422603080554
0.247881717219488
0.249167772162808
0.258377626845275
0.256973747802757
0.260697778487386
0.290676964151048
0.262728382114802
0.288262055330249
0.284791354731882
0.29058694005158
0.296926276196373
0.297504199604412
0.310420673687822
0.30636227150877
0.318040977881807
0.322267990496922
0.317546586090761
0.324252213341666
0.327497960165954
0.339883163013344
0.336944752583159
0.365127420859006
0.341127740450936
0.363005304098646
0.353949500764554
0.354791301809378
0.35023829249335
0.350979593395294
0.362281506248227
0.353258466692206
0.359935280128688
0.361608112511567
0.372487153842743
0.366580574731313
0.368816909152927
0.372651698308337
0.372456672907995
0.373625284121837
0.376583147016814
0.378497541953727
0.379368124071851
0.385577577239051
0.387410511908216
0.39919451846898
0.396037725389915
0.397982392227679
0.388757586454094
0.400056824729267
0.400632705023292
0.407788189325431
0.406641168874099
0.412210997271972
0.418933862465738
0.416112275278635
0.41611803161031
0.419933424858254
0.420843901424973
0.436137237457645
0.425946235473247
0.438272155127213
0.42198503676418
0.451930645886769
0.432607228153562
0.446255574474849
0.443789923270457
0.444043315179289
0.450463655081835
0.445519207033306
0.447923571873458
0.448457025915343
0.45234112437088
0.45161933180498
0.457814298286508
0.455407196610712
0.455316170409915
0.455759747813947
0.451839171748036
0.456361077593432
0.45949914437345
0.453560004581398
0.448905548852405
0.459547064947706
0.454627664015013
0.455733640085127
0.454622969738036
0.460971410783481
0.454108215688078
0.448448652614
0.453883482975902
0.458701538494168
0.450050074002716
0.445113547764786
0.447997514952
0.45141961997094
0.4480380718993
0.451467471029232
0.453350135995907
0.463040669064229
0.459744141169864
0.452130556668514
0.459171788922512
0.456616996661308
0.462272352004924
0.459707916060555
0.465066914377713
0.471240644173491
0.476936429118977
0.466868473407168
0.474038347424464
0.475662525526212
0.477117913008095
0.4815152940336
0.476596327341767
0.472830241496222
0.471873052568935
0.464811075089956
0.465958403006568
0.465088094629611
0.465484040201559
0.455835991927855
0.45660098559029
0.454153171490906
0.456699117085906
0.440883270912815
0.453663575875126
0.441711099813997
0.438223875408963
0.434507800907511
0.430822971557827
0.426614432089944
0.426909957879571
0.421529321477544
0.423337793180116
0.418160959388305
0.417507013233937
0.417125690725712
0.417015094583882
0.411981449267139
0.409131064484519
0.412827530322583
0.41010181168281
0.406665614419996
0.410465341846959
0.402871709085503
0.414261908856745
0.401876444748699
0.408378990986574
0.410374265659408
0.411825203280936
0.404080988710349
0.406443802114195
0.407330181994397
0.406460707211944
0.404153212376334
0.401453910260831
0.399700278863009
0.402352520775586
0.40630340061766
0.404150782389128
0.401798662911274
0.403427662685751
0.406168314768411
0.402590265626603
0.399779289154282
0.39782580962932
0.400457828840303
0.399009887162945
0.399432286657371
0.399178995922816
0.398610318522217
0.394830062182361
0.397684953783651
0.402742340193223
0.398355037586336
0.397884920845609
0.396105651842834
0.40004656561458
0.399436806550038
0.396881831450439
0.394179115832048
0.397292759838895
0.396533951315542
0.394834304856998
0.394256477153101
0.390874776298712
0.3979856514663
0.398032482852204
0.390401606464171
0.389550261148602
0.387842560736526
0.382083084539319
0.383979113754426
0.37906129666676
0.374453787706342
0.373646699619269
0.369771722982744
0.365692694958177
0.361084372115044
0.36155575432503
0.356768975853139
0.355743860095308
0.350233384893817
0.349888727718361
0.349379519321246
0.345049122862757
0.344795658667636
0.343188231008741
0.344370368948962
0.342235467928551
0.341460334362763
0.340288633078222
0.340370521101135
0.343431836534563
0.342682851926668
0.339397995808781
0.339179576669482
0.343420695966371
0.343195172511744
0.34419487086161
0.346223911716849
0.347353021358113
0.347223977393667
0.349415326853926
0.350564913473855
0.351457699195678
0.351610082564917
0.35335421488512
0.356813687938062
0.354415698624044
0.357893350124819
0.360821331995948
0.359896043570826
0.360253207694527
0.364740989719732
0.363138258807258
0.360227132070811
0.361848253130022
0.362344803829886
0.364366593773348
0.362275261318606
0.36331876382254
0.362213909297239
0.362636780284866
0.365037383267199
0.362229666842049
0.361133099367242
0.361938721272517
0.361049937854752
0.358956824715585
0.355888306568187
0.356462644383968
0.355955655369595
0.353807507638836
0.352022074737904
0.351169558122719
0.350227725992311
0.351354719303687
0.348015313765427
0.345615031304469
0.347605841730632
0.347573235119531
0.346121034306366
0.345962515570768
0.345063561539808
0.338693859158114
0.341351757232129
0.338287999527166
0.341515939193513
0.334985925969358
0.336946958505899
0.337564876589194
0.331945027657962
0.332142060403289
0.331580785115596
0.332814027075717
0.32903375204342
0.326676032559202
0.32420342121548
0.32379042815004
0.32222831872447
0.319359984882177
0.316360580923742
0.316750397531034
0.312678228362291
0.310897402776205
0.308292443450522
0.305660554582081
0.303878315039293
0.301821369788136
0.298745924609704
0.300932151837396
0.296592751699823
0.29564823167658
0.294444687947623
0.296145700905459
0.294642312301849
0.295172038759838
0.29600572170602
0.2898410549551
0.290110365255043
0.286112065885998
0.288623380905163
0.287170768544347
0.282331065891724
0.280853330511007
0.274377007671809
0.27377276588626
0.270538042526242
0.268628347924574
0.265667125620285
0.262501394773807
0.259034942155257
0.26104214505566
0.257113712939037
0.258739794894789
0.259861283969215
0.266326961590758
0.267966995320043
0.274287469759893
0.280833112421444
0.288062194431168
0.296122754967323
0.307908142636922
0.315721722842776
0.328396066828972
0.343310217261315
0.355942758171514
0.366664599123781
0.379909746642853
0.394223071601172
0.407225466287002
0.424406167984383
0.432948280270876
0.445888640983631
0.458863930336355
0.471514964237163
0.491063150340061
0.504565145975965
0.514399290225015
0.526608245892229
0.535945658450377
0.546719489184002
0.561591227493172
0.573506320294478
0.575763089541243
0.587312994693222
0.597113594471273
0.606600775461051
0.608259904442255
0.610258177923225
0.619236554669707
0.622536249605586
0.625207685518047
0.629447172538075
0.631186825476273
0.631647543061855
0.62935376356818
0.63123813801983
0.631224392935849
0.624333637576297
0.630703776801171
0.627452177184031
0.628360486347464
0.634527600537804
0.628521338271036
0.633594139908909
0.641265805049844
0.641553243880121
0.642687900252094
0.65027211634169
0.657261474681173
0.654351024065688
0.664637895419434
0.668184398022713
0.668880147683398
0.677212172876102
0.687121227059979
0.691370378330214
0.702229463308654
0.713237123463793
0.717154130069887
0.731396038144113
0.745796913960627
0.748712022395603
0.755668983960341
0.758574856960826
0.77216585795507
0.779173760802806
0.779386424486799
0.78332164620802
0.787467597643446
0.788308627582347
0.787757725822471
0.783336803436285
0.7853488808495
0.782490833706866
0.774591147466221
0.787052658388509
0.772548336075195
0.778703376528355
0.78514675910896
0.791711079717889
0.79574425560544
0.813070408017844
0.828142185080049
0.829303942451934
0.84630114771644
0.850919770249032
0.867169672062678
0.876981343515918
0.901106897148584
0.893992548564525
0.906952985365925
0.936121604304567
0.953384731993857
0.945956191057729
0.969565396187424
0.983378014469958
0.991086716664342
1.02600997287201
1.02942691340184
1.04336067278925
1.0810260182807
1.0819909710074
1.09492936795724
1.14031324480852
1.15437073885165
1.16184257644649
1.20106495934597
1.20276592037914
1.21619045228147
1.23412337055392
1.24720041858297
1.25622763495168
1.30470261611539
1.28009313245974
1.2981878381053
1.28251971444228
1.33096087290462
1.33556712334096
1.3104455178558
1.30478704408449
1.30696793882165
1.30197618033911
1.3001543460836
1.30100577683087
1.31344008546325
1.30135162308971
1.29577500261567
1.31432307664737
1.31242128496029
1.28072900825406
1.26425372120376
1.32242714655695
1.3221150514669
1.30881495759726
1.3576653306424
1.33828483538751
1.38964346308883
1.40868653433068
1.35258909455639
1.40547192456732
1.40901915805971
1.39231689519507
1.43059337884809
1.46096008135441
1.48445327465964
1.50895212409554
1.47282589106259
1.5278771810726
1.51668108184031
1.52880843549767
1.52534054110867
1.56932520436524
1.54065503169511
1.63160530945736
1.59791389636845
1.51198416085726
1.57076091992495
1.61296066641739
1.60762107775027
1.5739086888535
1.66768005088445
1.66357340122405
1.64025297439754
1.61106886956962
1.60580465960697
1.64128019156928
1.59522110489578
1.61942829172294
1.60355913901002
1.67725552826562
1.59631686687193
1.65488584078409
1.65033744020072
1.6062969078715
1.63661038109915
1.57192150355996
1.58042529944422
1.5119020218196
1.43417049864166
1.45740477272372
1.40459691148994
1.33915000123145
1.30556534471268
1.24903541843349
1.20067839591217
1.16950600630031
1.14004884411496
1.10707912494935
1.07709625800514
1.04814689104825
1.04319311860079
1.03120662417922
1.02185034689901
1.02502093378474
0.995990358221372
0.991433296075099
0.987217113200899
0.966340289884957
0.957098418187215
0.944092432924768
0.930763589350565
0.902370729226132
0.887279224949475
0.880912886369379
0.85022629431912
0.845660572971123
0.814898657995913
0.789061359060807
0.763334634613515
0.737026626173933
0.712195075710692
0.687371901002182
0.663788989276127
0.628336647565554
0.602401119609009
0.573529867762676
0.542047128582961
0.524638559554977
0.495621750212472
0.478955568663058
0.452343686978289
0.433465151465557
0.413820884687494
0.396156614988369
0.378966597484478
0.362179074917254
0.353266164049556
0.340551756212141
0.328171224967828
0.321304145355195
0.313022956306768
0.305638655470633
0.300052483066234
0.295803200622724
0.28654089708366
0.286297370321814
0.283225470107107
0.282057204996033
0.279390411267611
0.280600867283854
0.277141898339114
0.281122243925988
0.281168505572363
0.283557954652604
0.283751161742384
0.285410451864287
0.289610118823885
0.288499892549187
0.291619631644764
0.293164470040695
0.290050983841561
0.28903151824107
0.283486295224075
0.288023988634992
0.288868264489287
0.28343098327644
0.284151988964515
0.283071228687093
0.279703915281276
0.282682347657981
0.277341040662682
0.275678115232673
0.276480984163608
0.282004806371472
0.274617577795557
0.279400921585161
0.284191290517571
0.280867500943572
0.28067832320464
0.281916108018322
0.289020677609449
0.293446144364114
0.290695809308353
0.292277581981195
0.298392526070569
0.295628684526951
0.302572365019317
0.306408724951574
0.296834627672375
0.304995519433381
0.303287131825889
0.304751994452862
0.304217410826348
0.307210665086157
0.302165364777608
0.298184588796486
0.302111331117208
0.30822112928371
0.310904582297517
0.307430056883805
0.311905269512727
0.31346894901398
0.316548954196954
0.323598558541418
0.329798896564324
0.335501963304372
0.340386290113073
0.345286804193891
0.354988663710506
0.372462613009345
0.373725698903626
0.384240032035124
0.394934556517929
0.399433189228368
0.404742909442224
0.410153595041109
0.410554892063281
0.40454062388199
0.39887224651722
0.397350649302766
0.395593525361727
0.386237472830356
0.372878835810534
0.375521210697017
0.36252324959424
0.354855584701428
0.353668757206262
0.354015815236231
0.350864974512816
0.353874536053932
0.346124655572065
0.346699845305783
0.357426290351085
0.362440722014385
0.354156538019688
0.356509129519912
0.351106767528445
0.348967149531231
0.338748416816999
0.344554196704316
0.345167004071057
0.33615406535378
0.337238301613471
0.332383768023217
0.326419135452779
0.327932295863488
0.320931825963257
0.320884291700713
0.31754272012164
0.313334776962475
0.31380908340664
0.308804215111826
0.314340137400011
0.306629650494628
0.312685640134081
0.312561453517743
0.308380305096495
0.307963762561671
0.304471740105524
0.298497561026064
0.300056694249505
0.294839429509957
0.289855464414793
0.287307534720116
0.291928758022442
0.291937045862465
0.289983225727195
0.289352970359912
0.287535495199532
0.281876324053523
0.27512592237696
0.278442367917407
0.276666543806658
0.275440005693462
0.264925090485609
0.271957787901126
0.268545699152935
0.256836968934595
0.262985716885548
0.267340817483326
0.263770294849261
0.262084597838862
0.265304725430995
0.256119313987652
0.251429920610619
0.262266839891922
0.260404428706941
0.2610678495618
0.260376002313054
0.264387300500573
0.263511389027313
0.273369166103655
0.268800789433613
0.268613084067697
0.274153397966174
0.272281482700852
0.268344533362107
0.266030590015345
0.270066500378473
0.274937595244526
0.271178611455686
0.288674650085194
0.285493442412703
0.288563508056071
0.279174098379794
0.283475495843942
0.28252171977964
0.292253246761325
0.27796762735314
0.305815565767563
0.29916071479338
0.299788480461847
0.302940668313025
0.312945359820707
0.325975774888977
0.328317920311723
0.337145747570355
0.344847086140764
0.340742657233375
0.360042514077265
0.368859026579478
0.390743308427045
0.391385514751604
0.409951853671642
0.430121854444127
0.422328204018642
0.414272267030337
0.451079600869189
0.457372010965552
0.474589459306637
0.469545915900698
0.48990620532818
0.491083848999628
0.490932755154417
0.482222207314789
0.476630029896252
0.479180779325263
0.501860001656407
0.475140039773367
0.471269821489664
0.460533200394642
0.472697293191247
0.454442777115959
0.477401113997307
0.469429909618765
0.464827705734302
0.465607227439513
0.463267620675294
0.463855366380634
0.474679341422392
0.455655887325947
0.490460022448996
0.45015868075696
0.452527333568268
0.426855532576806
0.444098481747841
0.440780055743083
0.436850085541569
0.434574502328552
0.427120109389616
0.412413157955443
0.42298670961447
0.421311918601877
0.425531019586973
0.408497204640559
0.439387291960155
0.396077056969994
0.394373616694697
0.405237012927653
0.410789973888547
0.443947715602225
0.419328941997708
0.411112851895897
0.443922833210567
0.422287829431345
0.421131774510631
0.42255073420836
0.42669071819334
0.421817703985063
0.434392730127619
0.427251395351334
0.39363370582842
0.396017005259529
0.424483594972361
0.454660238996136
0.446486654130951
0.411956838162531
0.423294381337497
0.41013520931107
0.418806957700952
0.433854462568556
0.419885538266308
0.418635512765476
0.436503003269792
0.460616399506959
0.456068685985701
0.448764494863327
0.505681100269038
0.455578602329964
0.485483119907778
0.473283981893302
0.465678632034933
0.495171421043545
0.525327914254818
0.495832297664831
0.526350766751696
0.539682991043787
0.517179851663701
0.492490039240513
0.553369661399616
0.545291510270943
0.592256844068196
0.5321797993623
0.598854112831172
0.569012237152912
0.585444109825342
0.568858756261658
0.592993728793284
0.634641741548394
0.581409403328777
0.590509441943439
0.631752923763361
0.596722795858345
0.619266654129642
0.551955780473393
0.586671680491568
0.558718187737252
0.548342200402431
0.580363992063409
0.550882339943047
0.583068935448903
0.559671901695533
0.555003164366383
0.60941006812581
0.585934927240955
0.584486239442756
0.550416807315883
0.590200778495208
0.549965598150888
0.622871660386499
0.579333426350233
0.52833889271385
0.610718199615863
0.497971339734125
0.52929910655028
0.658094744468124
0.481310052851671
0.601650750111049
0.675976140422104
0.670959938905418
0.56219571780031
0.549320856779551
0.491358362191098
0.533979699048185
0.627398758986227
0.665284760134434
0.709611127125091
0.883420604958444
0.529784819165198
0.698984750570084
0.570033817094803
0.505691360807765
0.586283651800837
0.568279868040055
0.527885763360813
0.770159070419153
0.669228916146655
0.834967886941735
0.413725812249078
0.424973766243652
0.434096417853088
0.471220706201008
0.639792067815282
0.924837120418174
0.639161490249486
0.38642179634608
0.507210798899788
