3596
4000.36533379555
650.420452594757
1
2
2
0.0386232615521859
0.0308939599721004
0.0420072307051781
0.0222696060580473
0.0365958344161443
0.0253268051780108
0.0367505808519121
0.0250053035041725
0.0343759738430205
0.0156359124750101
0.030080851134374
0.0287829126765148
0.0333279315553068
0.0189997625603563
0.03091248440396
0.0210014495290018
0.0339503104728164
0.0228989385345222
0.0324218795580176
0.0264128961956231
0.0318435023645716
0.023038998856827
0.0430791285471606
0.0231186201923611
0.0241704982598646
0.0212830226830805
0.0343934684231149
0.025548226782962
0.0387078451411804
0.0252985704800026
0.0355459758104802
0.0237545570167277
0.0220004079786561
0.0252139051344844
0.033480761466254
0.0168838055527363
0.0315758719014054
0.0279765299434313
0.0441233307614563
0.0257764363185487
0.0366982914599973
0.023087963162645
0.024343957885901
0.0266593261930886
0.0317279465141964
0.018101656734706
0.0271583547513347
0.0172877040463446
0.0334281117537213
0.0191254881324632
0.0340666732990077
0.024602832619243
0.0315970988406724
0.0313663625562675
0.0182216783530036
0.0241615638219327
0.0296017352932488
0.0213009468421782
0.0326506441012553
0.0255644631502425
0.0294971964860553
0.0258308743139676
0.0361601440347233
0.0257725439960185
0.0249368017176115
0.0228710246900402
0.033555757115291
0.0318685026914041
0.0304533190957629
0.0274166568198106
0.0297122366366903
0.0158747176383696
0.0404808500772326
0.0151650512728596
0.0397830241265112
0.0225015468341641
0.0258031723462831
0.0220541351560076
0.0293941596306834
0.0106881549077655
0.0357049279863462
0.00982758708222552
0.0294071772244122
0.0179598409709152
0.0143456756643604
0.0197314542510278
0.0367537503888464
0.00895826528756788
0.0486391839553396
0.0187757280681163
0.0253112142349119
0.0125293628303512
0.0291562437431522
0.0185631642670127
0.027584120076742
0.0199944450843128
0.0272271007097242
0.00990375051126959
0.0362033606136955
0.00863819263565504
0.0355626486359516
0.00289999764458077
0.0492736735026327
0.0256526797143945
0.0180542405617403
0.0340827226005513
0.00866575105343022
0.0293108501041424
0.0268574288641432
0.0206415947010394
0.0302447355550721
0.0198042464362836
0.0235941244159274
0.0108935330874146
0.0386094670217896
0.0230170634815471
0.0410996362115623
0.0166627665679401
0.0268343452952143
0.0129074450658481
0.0348088198627765
-0.00390123723905757
0.0504656957245508
0.0141310588205424
0.0263621904449416
0.0143848579525374
0.0281180963319768
0.0123128941483673
0.0378161995668098
0.0166019183335768
0.0361844490932272
0.0115395380402067
0.0295213801165029
0.00252180815893857
0.0487337064100849
0.0155038791652057
0.0236352224786665
0.0245504957360822
0.0240309680050096
0.0128144086039776
0.0229309807565357
0.021080446852211
0.0309112163885371
0.00956300572554409
0.0432893883153391
0.0109080146431642
0.0277119169888895
0.0232465042960308
0.0285274749754375
0.00034975730463242
0.0257719967354558
0.0200720482563963
0.0240375426710828
0.0176940043016808
0.0435901901403228
-0.0291437784729921
0.0641469072838838
0.00419767119120188
0.0424879206021078
0.0165967406131539
0.0242257848772127
0.016750170194932
0.0191010336855801
0.0225956949832314
0.013947091557271
0.0221939156344585
0.0231659226438374
0.0314194297267214
0.030892212016602
0.0316759962011662
0.0301127278121617
0.0187467972128148
0.0333181375046936
-0.000309144360751572
0.0353393395062191
0.00461954561112701
0.039054141347057
0.0121483531182706
0.0314491580727473
0.00523738509842565
0.0280286687248364
0.0201066677806653
0.0263161004650244
0.0157897241150987
0.0304840872420066
0.0143354918636422
0.0380607320507713
0.0136537255327286
0.0313582716396613
0.02451573344256
0.0447639812746062
-0.000434500113106757
0.0372534715349237
0.0139083190387417
0.0240903925352833
0.0187181214459125
0.0130671821332698
0.0271561034122618
0.0176346867763331
0.0156241368884674
0.0215463051967665
0.0154880250193173
0.0289361298055812
0.0142687795510802
0.0306052055761025
0.0163291571556171
0.018096310159718
0.0235369373320486
0.0216849522503099
0.0161574675881126
0.0237172886027648
0.0227125930897735
0.0185029918348345
0.0346622876251844
0.0253564431380321
0.0213416240055802
0.019457158501989
0.0221079427710899
0.0262337722856921
0.0214231961870622
0.0260084249822315
0.0179006907069352
0.0310160974804903
0.0201344354226565
0.0219226780425332
0.017934118533028
0.0235310963175727
0.0223339492785438
0.0250794533188065
0.0204954184267334
0.0254772239975264
0.0262892095844331
0.0309615176884983
0.0178617551785132
0.0343340073638584
0.020940063856736
0.0373236014599658
0.0174231129190517
0.0261147497356327
0.0209711278149678
0.0218866831222101
0.0161340971458658
0.0270994095843595
0.0175111352423999
0.0247823124600016
0.025477581108998
0.0241076158732944
0.0306089553730197
0.017498690512136
0.0390890024092004
0.0157750474111102
0.0442015995387584
0.0149466523864611
0.0252869987518271
0.0198414745351046
0.0416062072985786
0.0205789430194141
0.0253204150788019
0.0367930065447067
0.036187110192687
0.01638585279136
0.0250813725707218
0.0271255914576956
0.029937754826794
0.044320246864107
0.0155638125627559
0.0463808970293087
0.019998061781306
0.0250220078951693
0.0340473632825784
0.0184823901131837
0.0337627255261801
0.0397644928066555
-0.000182499560376983
0.0335289457967709
0.0291740136632871
0.0310105788428646
0.0206479210394208
0.0349541199266515
0.0175720909598334
0.0483391635425533
0.0307921334537466
0.0614866417544807
0.0405712466799625
0.0158794672250111
0.0523457936377077
0.0146177508094348
0.0367200759971024
0.0133904526678221
0.025757837254301
0.0268278425560622
0.0349868139003338
0.01875305008646
0.0386785169588782
0.016435356446412
0.0419825952249961
0.0361834948332448
0.0312477608648469
0.0371476503386955
0.03264569365008
0.039011856312695
0.0410227916238173
0.0381558758788188
0.0354577038351938
0.042507928357414
0.0311650380362915
0.0455328009750353
0.0347090308501798
0.0400404796811604
0.0401204461178426
0.0357670679082562
0.0279425619105226
0.0371723022902281
0.0367428185818171
0.0332203890064523
0.0363871082087893
0.0442996847374372
0.0331213574087609
0.0528074623217758
0.0303105100169487
0.0453268829821755
0.0374506171514151
0.0434535436674957
0.0384763472696351
0.0403943350091344
0.0343130392385426
0.0468966990848205
0.0414727251653593
0.0365279437031779
0.0475185613427549
0.0443436725468616
0.0363745222385556
0.0638013108129454
0.0388465799863043
0.0583746160185232
0.0389624992000075
0.0495310741719033
0.0465916944253117
0.0413308989075467
0.0447326732740954
0.051507249961947
0.0511566990479002
0.0558101229313626
0.0514127251131849
0.0539537414101284
0.0593468706427787
0.0701722749106217
0.0712813913929905
0.052891631580063
0.0670507169664415
0.055231380091987
0.0812602540520752
0.0451726046779569
0.0714159738947148
0.0574702721542461
0.0573061299051859
0.0704386022688488
0.0571742344663021
0.0687500390546801
0.0569956266965571
0.0736556363050532
0.0581487542138728
0.073648238541143
0.0711348213262007
0.0823194808047138
0.069957515899424
0.0797105863594595
0.0789608658732403
0.0731862824963791
0.0813152294923541
0.0922254161727984
0.0744544975314134
0.0977022120053025
0.0800234221533545
0.109507580019211
0.0726751983022904
0.10313432489372
0.0963502612321784
0.0941358418165161
0.0943073156606276
0.0925858859120801
0.100079465459278
0.101060056913443
0.101924529188765
0.100352457481929
0.108490944175851
0.103577738042251
0.11864128924929
0.106783288457431
0.112534256627053
0.11382626431844
0.132747591563821
0.113390203052202
0.127084117716189
0.110048042475791
0.1294913401014
0.117497354066597
0.154096501704545
0.126494952889899
0.131926720207107
0.135861564249349
0.132057894622682
0.136713289392686
0.139544279655673
0.146571716937653
0.145312191599865
0.162532167574905
0.142781103570932
0.158923673224864
0.163914201716533
0.149811708502198
0.168556864108835
0.156834038191676
0.164410010972508
0.186580053309019
0.179218094221098
0.154103538578284
0.192719748990409
0.168385695012916
0.187876839616477
0.191126218156851
0.167718663053445
0.192847738056419
0.183181850997255
0.192943519222472
0.189042976229637
0.201625733994753
0.194956318904315
0.200589370147142
0.211942280843787
0.219042982564645
0.214134011163121
0.203649134900932
0.209547324594033
0.216747452853679
0.22656568087188
0.216394134063507
0.249362678800822
0.221623636983427
0.242546525258452
0.245197192939106
0.249967928241698
0.244225875557153
0.236012243421903
0.240547978439381
0.249485547583814
0.258470871010997
0.263053928372339
0.264389095687038
0.270400046738441
0.261643066605808
0.279408815519422
0.298504119061901
0.280692728384428
0.278079834857805
0.290564150338219
0.283913039283942
0.2760485575437
0.278746031030399
0.312389313618365
0.302585223132387
0.320376097301417
0.335256612731341
0.349216451425985
0.343615118650382
0.317251250368574
0.312691240750746
0.314833157228144
0.327666590358968
0.32026869650031
0.338924313923769
0.340160962484827
0.347662505283548
0.359062537692802
0.350441440907446
0.364950441599019
0.374658110296416
0.366118600026045
0.370093594515763
0.390162378034389
0.387643856005383
0.396699617312548
0.387410871439021
0.405023923601309
0.393227244229116
0.39929579502241
0.386751435009431
0.417235554311186
0.419294409015677
0.440392075855002
0.419564460522832
0.424116941988141
0.422556880451463
0.451923580336894
0.441818413650606
0.465383330704637
0.434611447116468
0.463068597076953
0.464768519810561
0.480534548498979
0.4724362625382
0.482169165063752
0.468929766319507
0.48971337915345
0.475673425941498
0.500393519847569
0.489749970565143
0.499450433731868
0.519481399175074
0.545486375826916
0.528016064460736
0.552607229141268
0.54120559626509
0.527757422222773
0.509572767019597
0.55043552364239
0.513440936192269
0.544785209735758
0.503666625606155
0.556885362609782
0.541940017565387
0.587705658919935
0.571113554441265
0.591864830505803
0.566022697402108
0.612384895341381
0.586869011029441
0.597490457568991
0.588699340245002
0.643335932563383
0.613433276300104
0.631404953776305
0.587366767450976
0.623802298545458
0.625457478723708
0.658221219566966
0.613091027611783
0.639706415539445
0.619646073244811
0.648364708323004
0.634768163825972
0.686143470279382
0.639233220548325
0.68554539579614
0.658963251521913
0.73964875735944
0.700609087979698
0.690345244146808
0.676798294809157
0.72343761935723
0.682237687021578
0.734224589938639
0.66538123668631
0.725859102113078
0.710333465088239
0.759824472670919
0.699414443637604
0.73815257324205
0.723545744116723
0.760004011035333
0.743177880507842
0.794907109199097
0.724002015252449
0.793792778782417
0.767914476729717
0.775823245085209
0.76913075749345
0.791184214061936
0.7514901549394
0.788596448534311
0.827831243403937
0.80122815694742
0.800397987485136
0.860704445477656
0.786589350369037
0.851828369655335
0.819329674078497
0.865456941018014
0.784807461571679
0.908308106093086
0.875640081745165
0.885838700754579
0.836275977867244
0.857579344337238
0.901016628978941
0.889032937924244
0.882844717842664
0.955255760537846
0.851013819962225
0.907370077991798
0.866869127157076
0.918872763329837
0.839980524723881
0.900810710127262
0.921869054945661
0.990762748094728
0.865242536368251
0.9616042621718
0.931758230658469
0.989004448440064
0.873967368211299
0.907143451746094
0.820077791882715
0.958578436041712
0.916776868025168
0.948955958797077
0.93448934293343
1.04969657485028
0.94933615634943
1.05646832046796
0.91587850999562
1.06214828132563
0.962414895367611
1.0626240036041
0.953467999050094
1.00990998538352
0.971502168871708
1.03971181712503
0.945262236647953
1.0414620810636
0.923005417249101
1.10902469901476
0.989581839612573
1.05073233828938
1.01540702364729
1.1135493107834
0.964780118532125
1.13851551650598
1.01899536235543
1.0846176066426
1.09421838475864
1.08637974267899
1.02646414835136
1.07884401875739
1.07411213028077
1.14118436778129
1.00379084100929
1.16908468695654
1.087930992137
1.1626695816701
1.06749305185497
1.12594945775009
1.04703134195136
1.14300233746949
1.069230037236
1.21594724345615
1.10657405894711
1.16208786542102
1.06660477835561
1.27513079046025
1.04044837671085
1.14167645305195
1.07515215196094
1.18976769429457
1.10880797222308
1.3455527590969
1.15624664723527
1.26564758405004
1.11150430673399
1.17352066517898
1.14099906190188
1.17486052324353
1.16483123475486
1.18258221075692
1.13455397905978
1.21058923075703
1.10934875318913
1.23145604263628
1.08530182897706
1.22461818819361
1.12091383812391
1.27732331589835
1.12031644513762
1.11843604305565
1.07925702989254
1.21588562682594
1.16381122076244
1.12746499393198
1.07607498536903
1.27202310440144
1.16725068544014
1.28780959036243
1.19021034878048
1.3306025422531
1.16401592329628
1.30067158167204
1.19077497244365
1.35875948264437
1.21636262648631
1.21567058063181
1.17613943204734
1.29484315414717
1.14166736618683
1.36461671150141
1.20126666893088
1.22632295028638
1.19312419429298
1.22209092525484
1.18548259326353
1.2419045799908
1.20350917593146
1.30759936998638
1.13540669990898
1.22243707574575
1.26480979612686
1.38012575736864
1.22656949815391
1.28555218132349
1.1705983580282
1.34301006172129
1.20763008677165
1.27099679930278
1.16744063061884
1.28062074816062
1.22547246575396
1.31704638974421
1.20620907732072
1.36033421901917
1.25009278828666
1.28835754643196
1.16023773685834
1.30359800416002
1.20018891301301
1.3027208252538
1.21156555933883
1.33222696029697
1.19895900525906
1.21952443721261
1.21519630116398
1.29943665396754
1.17707802711079
1.3493274782425
1.13506221045219
1.29606239693172
1.26671487020102
1.34937986368944
1.27078941695386
1.39603034350289
1.19638556277092
1.2448462406235
1.22044829609629
1.34875919079083
1.25976349120455
1.27371258618332
1.18067166621658
1.30350570433112
1.26863500211729
1.36207375538819
1.19122384231998
1.40594027334054
1.2409512065764
1.28216420395739
1.23698236035472
1.30995612893056
1.27657037718685
1.24202136179623
1.20678802616097
1.32209310104355
1.16793762074077
1.2887865278384
1.23709619068649
1.27147479556016
1.32974644238251
1.226971153037
1.2736703387004
1.26161704726805
1.25502784250694
1.2430537652982
1.23729938006606
1.30737390926651
1.1762246415147
1.24604460523891
1.20415607586218
1.34610621976079
1.27823197848729
1.27249972275658
1.19219949740384
1.24469155016927
1.26438658548496
1.29375249794959
1.16667673096234
1.24569435156266
1.1248820596442
1.23576522464761
1.2698800725836
1.2381533384893
1.21671581680329
1.3082254502847
1.2182298565027
1.33067941667497
1.20926382294867
1.28677316269689
1.23703301651233
1.26475390088473
1.20049575647067
1.25042417076498
1.14966056138288
1.19304373665456
1.1918651668261
1.22322244064464
1.20023684661092
1.24703704802246
1.14993619301032
1.1412406285046
1.15102674872119
1.24758328379319
1.16503709683509
1.2524023866513
1.169266981185
1.23289923191882
1.15712442781938
1.29612687551367
1.12647454273678
1.20823693520121
1.12347202755121
1.23519201400204
1.15489487097522
1.16237300357677
1.16201703773837
1.22859482164763
1.16333472732454
1.22712979998517
1.14104840497535
1.17892246501121
1.11566674838152
1.16842094224702
1.11938531003314
1.14143574906524
1.07007243995669
1.18418906033801
1.10068310314018
1.17852932231124
1.12160967136752
1.15842398178009
1.09316940885663
1.15686889639792
1.02313375978788
1.13636409328939
1.13273303314509
1.14178738746804
1.07828619587431
1.12059116059895
1.063093180554
1.08842079089425
1.10396748476358
1.17437258110037
1.09292947046145
1.11028983646956
1.00932241286008
1.15254230027113
1.04476973314896
1.10843957577315
1.03645522909985
1.0998443635519
1.00241460340996
1.06180184860863
1.03845781726872
1.06866972111112
0.974260042029173
1.06229670957753
1.02046224709247
1.04214425186977
1.05240516653302
1.05376498800639
1.00063654079139
1.00409442341837
1.0001264379177
1.01530688325336
0.985607732382723
1.0454503442323
0.969314161552332
1.0077979375716
0.94046416402639
1.03530510274732
0.982181480273329
0.992476913503412
0.9833957456041
0.989284918080962
0.949789055797909
0.987453471670915
0.955158366255587
0.985152882207812
0.903898638366454
0.959874988299038
0.923187663882461
0.963209672057746
0.91805614750944
0.927357761297878
0.904714324591909
0.960689629283581
0.880972226031544
0.917545802508265
0.889707594405822
0.928139157984887
0.901389234415314
0.893852474098263
0.893384293759529
0.911523277180508
0.866567754918766
0.917194979478368
0.875924415004509
0.882420084689366
0.844845980410715
0.848831204898248
0.843930464715166
0.872765058260659
0.840695764120484
0.888975194249738
0.83598603330393
0.854967631532752
0.824583081531259
0.845386730642834
0.818013189866551
0.839075903587137
0.796130942590057
0.829389563242254
0.796218494527734
0.811130279437005
0.787707226930489
0.795711659251636
0.812627369246459
0.792851714943935
0.756574710054194
0.798396466648218
0.789314997657521
0.787810642980144
0.773883608131959
0.76876543154461
0.764971733757184
0.764634071492159
0.736953592566351
0.757234550096207
0.745261697453502
0.747726044688428
0.731782808483712
0.750249912543213
0.726506344130153
0.736874047272649
0.717247129348946
0.72226589858317
0.724121709336075
0.723028208649838
0.706493931460332
0.70586676063595
0.699355106462971
0.710227142599737
0.678541643379245
0.692445750656387
0.662670010869743
0.680624865443604
0.668950942969194
0.692054923408485
0.675520525222769
0.674524547561937
0.675476768280637
0.66901843284381
0.648846984870268
0.685441767898024
0.658193455219908
0.664124245222135
0.627186359686812
0.654943231544687
0.653628685019417
0.633720488341433
0.620134947806146
0.632166074536296
0.612278145428011
0.635111331556529
0.624482850466792
0.646074012571444
0.613878481356521
0.612488936812254
0.611728463028564
0.626208075925182
0.597401391890251
0.597672738100275
0.592367704223976
0.614192358503124
0.592737767274317
0.600611556490076
0.595432366723288
0.58268328492463
0.564190639882003
0.593643674713035
0.578590455292941
0.570944119043139
0.576557425279308
0.571094150011983
0.553931212237898
0.575208991656694
0.556007892741225
0.559304450364821
0.54290110422064
0.55764834825438
0.549479392192606
0.560008096963862
0.542359217830613
0.548948373227116
0.540243845713531
0.539042620038492
0.537719430764927
0.535372378963905
0.523287971030272
0.537614134235267
0.520337933594525
0.535705063282825
0.511094084001412
0.512284676450084
0.50704510602029
0.507484662739024
0.504163972148876
0.508399735533609
0.489288951342669
0.49739036586026
0.491228667283928
0.501511918669933
0.486638280794031
0.503154078840595
0.486055575810848
0.497620387550416
0.480963911019456
0.484725269861
0.47342411902685
0.487639974198637
0.468172866068386
0.476822647013581
0.463531643413671
0.467267682472678
0.459692996670786
0.477994285644523
0.463162039979186
0.461810743673757
0.46095532463847
0.457486664815651
0.441025268437475
0.447501081813593
0.434535556699139
0.446172681439222
0.447946915392512
0.442486266743974
0.435029920208806
0.448500338723121
0.432200271354167
0.442305287456629
0.430137699692547
0.430316337022963
0.421607384991988
0.433735785263457
0.419690222653612
0.420740474667829
0.411608078032824
0.425425470045024
0.418382629287039
0.419652192052218
0.40899916099414
0.411502359986114
0.402753328956343
0.413242255042222
0.407103965051666
0.407410848801249
0.406878659841005
0.409087678130926
0.402920171898017
0.40883443784597
0.389941484032792
0.402736116729852
0.397620280363615
0.399287601459389
0.394886267234905
0.396556192882259
0.39576091660421
0.393793675214332
0.385579367001843
0.400974978212508
0.385649896012941
0.398613743748696
0.386968717457381
0.397912559262349
0.380956398522247
0.38838912460414
0.386245187976659
0.392178477744725
0.38573191939506
0.387684760255198
0.383549083693713
0.395108891510582
0.393128482264755
0.403135046231199
0.388636075134215
0.396736142930005
0.392162913792867
0.39335920423624
0.401288032234596
0.405541732061171
0.387040224510801
0.404583918988379
0.403356418346589
0.404977238455968
0.400587002044652
0.410925703211766
0.415279361214976
0.418777215710254
0.412284775865792
0.42405595483615
0.421597408934273
0.42682768322856
0.422702142310541
0.426512587125103
0.427177459255484
0.426676209058732
0.427695953022537
0.434404026116069
0.422626877196556
0.439561950381185
0.437815530231323
0.445442025032119
0.44166261962422
0.446893302557674
0.436420291758464
0.453500139672044
0.450067903902725
0.464437676336741
0.453760839637286
0.457313859780536
0.461433882493378
0.476423624717438
0.468559862571591
0.470922874818464
0.466013403045986
0.477915993743083
0.474363929605374
0.49060677378197
0.484558160588598
0.485093795016216
0.491882085615051
0.506828808418374
0.49965481557473
0.509656244647581
0.518237463090092
0.521306149040718
0.511459318446363
0.523017849507667
0.515658718540721
0.526144808066066
0.52638599571658
0.533284361550109
0.517640673278732
0.530863768681549
0.535138269620324
0.539412729374944
0.530770182808849
0.547941313002191
0.532381446871003
0.536081478865713
0.536059050665718
0.536585808198173
0.53089725754664
0.53642330774565
0.531518692554747
0.532441191205577
0.53478486291782
0.533511686379708
0.522601929406228
0.531622893849476
0.534551930141309
0.535689133467284
0.524335716263542
0.541423081589862
0.519421311298153
0.537162187745766
0.530762697780358
0.523795649657518
0.520616557788496
0.528105253239151
0.5216228046425
0.529485907584466
0.524597481903751
0.526102933595976
0.510951443830357
0.53106225205363
0.519425444102851
0.531606090675099
0.524511515755581
0.535849731997701
0.522223987412705
0.539637241681292
0.530495991497118
0.529519669129918
0.531626513501796
0.527565172912307
0.530929152881393
0.535969994321133
0.518137356669902
0.524684847514591
0.522721764571531
0.522757115225268
0.528797577628258
0.52423398224639
0.51761448772438
0.531077067497529
0.523941460003163
0.522593140111079
0.523302484019429
0.529290650430886
0.529122806505193
0.522509816792653
0.504102421808246
0.512371977781104
0.512376869403076
0.513142876669373
0.503088186560886
0.496218523335281
0.499152872892968
0.497372048288519
0.4825374661409
0.494528227377851
0.489359718172129
0.483942836588911
0.472579051784728
0.48297904696121
0.468406927599232
0.475730336107338
0.469693171539083
0.472335468966824
0.458146536264844
0.460311739224679
0.455166355488339
0.457995908533944
0.440770913101571
0.445147657478267
0.440545799019971
0.44822376110123
0.430443177626719
0.437994232247431
0.430617288513213
0.425710770968423
0.426593150152587
0.423873122650996
0.411030721077759
0.416183416638593
0.41462817280229
0.411506623128408
0.403605204876757
0.409564308090069
0.405682743162636
0.39992035974479
0.398773714612645
0.398651491775178
0.388227844987297
0.395695399849775
0.392341343193173
0.389032804393091
0.385981570301207
0.384571399687425
0.378579573986897
0.387581276368737
0.375923166049639
0.376797671313389
0.369655534616092
0.371900527603864
0.370303034065749
0.37476476740835
0.367917990835872
0.36889919906628
0.358837976030635
0.362528378409133
0.369759676921471
0.359669089787974
0.359080095817416
0.363422155534696
0.352651147538848
0.352597668471474
0.349807852482702
0.35376641900782
0.352559792612616
0.35664848197178
0.349726149796565
0.351788220601054
0.341192399548645
0.346741665094581
0.345004648169157
0.343774838696249
0.344510269525242
0.343231137734642
0.341743447468659
0.345241601597075
0.332919332856954
0.335504670875501
0.329030941151272
0.333318093071885
0.329408919945394
0.32940467187432
0.328087428065337
0.331057960429191
0.330116422406687
0.333859363292802
0.329792596104448
0.331573991336904
0.327447008413966
0.324497635057339
0.321694432260178
0.324412038984893
0.318738804413099
0.317860407086348
0.316014160105327
0.319364296738601
0.31553121071193
0.317182607432881
0.314554601768264
0.315984273975884
0.313177766376554
0.313513416301895
0.30974511835089
0.313252052785654
0.313940789314414
0.315228252952107
0.306063808399981
0.308256192707316
0.309392390916877
0.306872837351805
0.311230138731715
0.307262010995879
0.302625850851296
0.306732346656382
0.304861403765648
0.305639069505131
0.30033786390846
0.302945803498928
0.30046737458958
0.301362918006618
0.297164909856745
0.299816299595749
0.299535716331435
0.297187294167847
0.297497484265548
0.298934537958426
0.296593559153977
0.302324534194344
0.297401489903399
0.299756247092226
0.296766729316544
0.29362587507221
0.294425777800897
0.296398324363045
0.288461768607297
0.292405058759315
0.291353016232895
0.283724414494414
0.28639833841488
0.292923662535484
0.290213985464702
0.288946396792406
0.290280238182071
0.294333065692169
0.294181983011662
0.287666869898546
0.284650176065007
0.290853834599791
0.288510839180173
0.289427939610888
0.285711023520195
0.288645842887357
0.291086902296463
0.288384973474679
0.282713910639716
0.281893619651314
0.283714135863793
0.280816319140369
0.280889264719231
0.28660913248741
0.281424022506339
0.283203314667452
0.285248650074796
0.286726358876272
0.283127561066927
0.284345354800743
0.280425386779351
0.278701966221531
0.275953482897853
0.279019374724785
0.274444790323088
0.278230557985889
0.277358373767788
0.274421575995676
0.275223959877991
0.277254817576529
0.274412996884714
0.275949197778631
0.272828352229014
0.272569564433071
0.271243228391716
0.27188985889937
0.273081985726745
0.272274832025187
0.267838338502806
0.266602397758489
0.266180581994306
0.26775786094406
0.2678063658691
0.26790590478763
0.269474657514457
0.268535380003379
0.265273254209915
0.265224300215427
0.26770281806625
0.268124370985844
0.262262583709463
0.262978670712091
0.26240698862596
0.25914006157607
0.26419057391546
0.261020461104515
0.259718691607526
0.265947811128756
0.260933630878369
0.25798837825732
0.255296960028358
0.259247879895051
0.255665377909883
0.257134130529235
0.254593554671375
0.253565388411409
0.25606259752699
0.254507471406687
0.256757822966448
0.255035074019026
0.249727862227466
0.256337581633878
0.256240754775032
0.254865153924758
0.244401411353806
0.2443693158373
0.248085025578392
0.248515384612237
0.244427041584013
0.246760386172718
0.24238585493786
0.24368601872729
0.240700452296767
0.241665662472953
0.245112238703602
0.24536378628794
0.241660343047364
0.239404011986593
0.239037066282515
0.23882053904112
0.234928552422037
0.237293429643973
0.236713522261272
0.239670152450388
0.234038680047903
0.233079442456457
0.233683532060282
0.23477878106569
0.233895769423494
0.231889738253376
0.228259832230624
0.230200091188294
0.22869756249115
0.226143626483653
0.223819415669948
0.223517839042657
0.221465824818181
0.225545559863794
0.220782077454291
0.220808503484109
0.221263928091431
0.223521959910147
0.218462047069092
0.218485656881891
0.220862494640715
0.218518789423342
0.218472134731496
0.220411121271585
0.219106923439607
0.215336305167835
0.214903704395153
0.215361559182466
0.213729541874947
0.212591089073689
0.212916974491111
0.212876629325718
0.212257874835215
0.210529175848213
0.210303247782605
0.21100041395259
0.208763127847698
0.202930680425223
0.205613962692209
0.207310672808096
0.209828248886488
0.210092576794251
0.202619251027003
0.207325782830849
0.206921666497857
0.207168781888837
0.202781472197422
0.203094673134684
0.202670796008774
0.200594763275234
0.199893788279347
0.198909998306716
0.199359492765383
0.197925386667167
0.199813353501747
0.197852992296379
0.193990307736804
0.194744102386818
0.195800465262236
0.193961810253806
0.194320223792764
0.196679365368882
0.195371949896765
0.19450577649854
0.19387714106361
0.191926409481776
0.190864175105091
0.188153604147991
0.191186287533615
0.194966658405381
0.187648213739788
0.187835737226063
0.189730418344494
0.189172380159158
0.189517694957842
0.186030153123051
0.184067861615307
0.186094012208698
0.184820259351887
0.189392401164018
0.185586450658893
0.184573472998306
0.187232124437963
0.187421579668228
0.184667749447182
0.184553096819772
0.186300657269053
0.182231686640399
0.183530604216439
0.17961212043803
0.181644570467204
0.182280002683567
0.183564317650444
0.183760945327704
0.18278199307419
0.179958113198915
0.1793254482005
0.176686899800307
0.1794632042723
0.180065283576388
0.182636399482132
0.178995551869399
0.179035290605324
0.179042737449108
0.179229559264283
0.178959061276731
0.177798163227716
0.175599941102583
0.177051295754828
0.173411410479134
0.174933471203253
0.173647919407176
0.174635293347199
0.17168977409835
0.174505453312857
0.170475724655294
0.173352145103498
0.17480819518283
0.172620183366832
0.174743587903036
0.17336698945221
0.170134907318267
0.168806265395574
0.169018653088492
0.172926076558618
0.174245366718794
0.170614953898877
0.168797269243778
0.166852116223007
0.169660144977062
0.164376233028673
0.166881487840987
0.16642816490527
0.166815877484853
0.16647584840444
0.166250966405245
0.167524868640674
0.163476056846877
0.164551448958429
0.166265310201019
0.164472159230074
0.164878734134018
0.163358588488231
0.165582904023746
0.169448524848387
0.164996879531953
0.16466247422503
0.159259226154001
0.161052955626056
0.163293599251429
0.162581729408874
0.159027563028322
0.15856433366887
0.164076884017419
0.159948314994273
0.15834247236707
0.159929821798171
0.158035005639757
0.16119542715206
0.162097100549151
0.15957167809622
0.155414245208282
0.155881691135279
0.151361029969493
0.157881417564522
0.156242979210148
0.159967278371868
0.156343201755208
0.158779168983691
0.154424712261557
0.157161170942221
0.152739188966022
0.15414915282235
0.153627853855086
0.152498160793315
0.152939970505078
0.150427059254691
0.148069072906545
0.151057179635986
0.151025568168019
0.149855335916179
0.147078794918521
0.150121227098402
0.147693454228527
0.146810440737276
0.148150720580087
0.147502311030393
0.144646061706477
0.150052445468548
0.141571792213713
0.145488578223605
0.142965128034426
0.142320287001263
0.135342045870697
0.14354180003271
0.144137881215036
0.14200480788466
0.140370770226598
0.140357702773084
0.137870371105544
0.14155056363153
0.140140655082166
0.139598746334972
0.135598582790969
0.136325628900794
0.140727979882208
0.132479726133721
0.13033815315374
0.1358112607392
0.133990831811203
0.134955864262605
0.131793733271225
0.134098993511529
0.132739955676612
0.132386610014253
0.129447356382783
0.134236171191158
0.128555650159409
0.133710622805512
0.126860833489425
0.129010199563345
0.131666795717761
0.130624478075117
0.127841369962467
0.126388651420992
0.125325674302979
0.126133124866758
0.124533014382286
0.125614873767975
0.127228417148892
0.123852924547079
0.124179071315028
0.125368821253715
0.12227600182981
0.126081741163701
0.123021207933185
0.120236329267784
0.118409309869771
0.122352740775325
0.117699089548223
0.1179111243528
0.114609175938869
0.122229829004346
0.115715423144612
0.121409605596744
0.11647177301431
0.117377733466649
0.11558354755106
0.112550471984003
0.111075093109949
0.114992453461837
0.112680112541209
0.113524012886211
0.11022705017026
0.115038506350661
0.11136546524524
0.11361680878223
0.110697099998453
0.109023588440639
0.109921044035319
0.108625719414101
0.109408542074187
0.111350703348144
0.109573768287145
0.109159515735542
0.108841645836098
0.108916317400927
0.106852208875996
0.108653445920272
0.105292987430985
0.107591408735795
0.106713746619872
0.108174590735652
0.106451999531356
0.106688923127352
0.105437211387444
0.104168952536314
0.0992173144035701
0.105868867120681
0.101485790808511
0.104231920460558
0.105257645938787
0.102992006291595
0.101599019089085
0.105315768680086
0.103381663371324
0.10131384282807
0.0983665592713623
0.103266718120099
0.100961351033444
0.103422465913281
0.0975616441357519
0.100702372833771
0.0936196068541601
0.103252554745683
0.0941563056508713
0.0988054209734281
0.0902969373656411
0.101224615274561
0.0966609928820812
0.0989747138134575
0.0928650988461181
0.0959491196105417
0.0898616790427266
0.103363795080262
0.0949590873839979
0.100186930253504
0.0899905572117165
0.0982291995065911
0.0815829173690363
0.0919488715502638
0.0866629563163949
0.0957845382641134
0.083869327914457
0.0930498080733447
0.090979209380829
0.0932864462001152
0.0886731888715889
0.100006313857995
0.0836275376926455
0.0980484806392002
0.0897770243495909
0.0937810969212865
0.0839818276950915
0.0995533678784973
0.0806059781665355
0.0976930310117778
0.0839281930548846
0.0926498233662725
0.0793941441568276
0.0934244017904376
0.0833558864957676
0.0946109723730948
0.0800838027568941
0.0991127282075986
0.0880055764505566
0.103443026331128
0.0851795195128217
0.0932855924324746
0.0780602980949754
0.0887534700804716
0.0822007890561398
0.0936964998422455
0.0893215849774615
0.0873642856447339
0.0856130978862286
0.0846031951503397
0.0945211802110506
0.0834782157840196
0.0968960666353374
0.0722839266093565
0.0992789895489169
0.0707361893204481
0.108178878199976
0.0615636881092749
0.110870189053642
0.0645645622522565
0.101781000349902
0.0695146601414251
0.102120590673646
0.0681677805754158
0.0950279583177105
0.0788279954173481
0.0876314249552611
0.0853023466780404
0.0853138786157929
0.0869473839571928
0.0838761775175284
0.0836795047401398
0.0825226057123312
0.0815090975585008
0.0852434722173518
0.0820814317250306
0.0880710661660751
0.0797638362159999
0.0855085430070831
0.0789801219268566
0.0848220487096361
0.0811946092938134
0.0846304879176387
0.0826598377854585
0.0847307622153723
0.0803276875126268
0.0840346655129216
0.0809813305445667
0.0853037256500956
0.0793598843873405
0.0826422522633257
0.0797115854067872
0.0832425101398821
0.080423045178602
0.0825067042178157
0.0816407965783819
0.0825734504201548
0.0811075638435005
0.0825062053748545
0.0806581984504897
0.084393983072492
0.0791766634177057
0.0826054697145838
0.0782411582241186
0.0817766946204851
0.0792678558556707
0.0846500972583476
0.0836052202304991
0.0816501231166517
0.0809966270288287
0.0833379595207023
0.0804760809284397
0.0806630126040396
0.0816878709474658
0.0842596549346591
0.0808766813755428
0.0804647048507465
0.0794278176226329
0.0791356205074768
0.0794310888944425
0.0812316426704499
0.0782706909064373
0.0806779052673198
0.0798687519286047
0.0838706331809648
0.0825459438977556
0.0805007405664075
0.0787943677259903
0.0827356112777837
0.0797341639484231
0.0797011605887037
0.0800120614609788
0.0802866675615347
0.0785588781003813
0.0823697574215142
0.0796647891245356
0.0819495195492724
0.0798701341531828
0.0818733910670253
0.0802207951265746
0.082952616922968
0.0802330011730587
0.0792451275235083
0.0803773253508293
0.0781703716391312
0.0791152062779792
0.0818403240198397
0.0814298749501237
0.0846554323446543
0.083289179986822
0.0799504989114378
0.0813935330956615
0.0812188802644944
0.07992385132121
0.0805523218050737
0.0814394950581554
0.0818117228973989
0.0782909843943522
0.0810072431730324
0.0826527248983228
0.0791748257367573
0.0808515868732159
0.0805517769786224
0.082452621277351
0.0817157136404875
0.0805676969323682
0.0832396151535841
0.0828032477813551
0.0844186612237761
0.0829472056326217
0.0823965219955502
0.0831945030526179
0.0820510326812418
0.0809716528966686
0.0832337464715884
0.082532728475472
0.0831666930871806
0.0809901614805941
0.0833108190416599
0.0839104683019019
0.083729044864629
0.085245434761371
0.0806170962410963
0.0822838282106257
0.084626117395217
0.0844962421581669
0.0823554172832958
0.0822983891403323
0.0824095499444229
0.0822304746832707
0.0848921962513976
0.0832487335207932
0.083140391298823
0.083777800407091
0.0851795417467362
0.0828630103764526
0.0832827470754377
0.0839689592973595
0.0845299021660774
0.0843769236693735
0.0841391507298767
0.0846259782094557
0.0835777183387388
0.0853711958989442
0.0856615227339578
0.0846335163075706
0.0837182035892336
0.0839325220836878
0.0863933317633337
0.0846804556771541
0.0844386884015091
0.0852204225316226
0.0848574759939563
0.0854398402132617
0.0863104406948326
0.0882370127844199
0.0848930157599806
0.0863315345417702
0.084723155461209
0.0883487626072654
0.085248775045604
0.0860987219558424
0.0864798635350444
0.0874290338401696
0.0868106325995468
0.0884373635967428
0.088823598150504
0.0864984812613205
0.0869862763754463
0.0890272003614361
0.0872334515134177
0.0872474239895037
0.0871479899179465
0.0888631927916604
0.0882661868002456
0.0864427142804819
0.0867565281678893
0.0856513795916926
0.0875875808339002
0.0897782569130877
0.0866065867966158
0.0859296295895716
0.0877890833224449
0.0880576500738161
0.0894921222538738
0.0877445196596724
0.0862581912345877
0.0879424123700682
0.0862480394133682
0.0861527361167333
0.0855525440968806
0.087611739914897
0.0870662716640546
0.0850522971745981
0.0848057175744492
0.084532566489624
0.0852440869354842
0.0848941274114914
0.086381186615993
0.0844537488042056
0.0834334200149892
0.0855934850481208
0.0852494037097763
0.0839077302069834
0.0868998220811347
0.0860061652062062
0.0835911923071616
0.0850057670271748
0.0823037192739373
0.0817867009567849
0.0841897463706698
0.0839344928400192
0.0829575870388886
0.0862350508470655
0.0842216778912162
0.0836270565765088
0.0843414005407809
0.0842888220389438
0.0836947138204473
0.083239614266512
0.0824383395653186
0.0813045917102868
0.081221288935516
0.08326773754449
0.0823919543721332
0.0831818622616164
0.0819035739889318
0.0828834495409136
0.0805350274135477
0.0797318050014868
0.0807265218089551
0.082433092714318
0.0797546526588908
0.0796644668396793
0.0807589139433541
0.0837045536886157
0.0807703768880662
0.0788978839805926
0.0782689509849161
0.0789335452392769
0.0790665008952786
0.0808511779540936
0.0821404466444071
0.0790010260568806
0.080253608794655
0.0811706478232601
0.0802135244276526
0.0798230346849189
0.0792374429713186
0.080201359369786
0.0780108568689621
0.076998117639575
0.0789976955356236
0.0793430191410851
0.0775073549979128
0.0794175986444488
0.0775486734841372
0.0786958604881737
0.0792420755537123
0.0780223795806477
0.078973255946048
0.0776287565654659
0.07656004977293
0.0785552004803954
0.0770294519732287
0.0781272721771838
0.0772283587928402
0.0773790401089293
0.0773736695164719
0.0805385110258402
0.0770788868706317
0.0771483300530892
0.079868932616886
0.0748730887872749
0.0807376228678214
0.0799709089630881
0.0780796066847994
0.0774035571066771
0.0770845893694151
0.0769212639360543
0.0770630972605801
0.07674381797813
0.0750609788942047
0.0765762454535217
0.0763901107381934
0.0783564320210718
0.0771109744632743
0.0740661364793668
0.0760616785129451
0.077266104277126
0.0739507829309147
0.0765991545269502
0.075867461183679
0.0734686748110353
0.0755766020195357
0.077535073407664
0.0745430369544662
0.0756057035167289
0.0716587224573739
0.0737434499850777
0.0736654125082112
0.0765385808758256
0.0725173765895571
0.0736783489800625
0.0724788513028097
0.0721837489065118
0.0720233572310386
0.0744081087798439
0.0741848068542
0.0712277244333243
0.0709188369687888
0.0717532217252657
0.0699353261993848
0.0701591883145571
0.0717707030412049
0.0684856747294452
0.0685803330653959
0.0713809209288506
0.0697645059184051
0.0703127585890794
0.0688500582822665
0.0718985312057865
0.0689999045177382
0.0704913211734698
0.0689399705935536
0.0663901583523059
0.0682228210752753
0.0678426891288068
0.0679518201929619
0.0702240464640517
0.0669779799788832
0.0667645378577063
0.0654125513572504
0.0655882983187633
0.063270746069914
0.0663010862429481
0.0627299141811763
0.0674635865252188
0.0646145763310276
0.0650528596390167
0.0638292814823889
0.0646619860102713
0.0611961976439096
0.0642081402094819
0.0626904334971318
0.0668192159442491
0.0637021582312118
0.0636479579402284
0.0634235503885295
0.0628338072761696
0.0640264414674605
0.0632205559167731
0.0631559899529716
0.0616920514801121
0.0640172342666558
0.063621534647691
0.0614046321264347
0.0613741738506515
0.0609580551915121
0.0612699819430081
0.0604021925497855
0.060580761609414
0.0617458898080538
0.0616906685555134
0.0616006241418249
0.0627043033880322
0.0630095094560539
0.061792874000435
0.0606874113878988
0.0614080870025974
0.0620987772987939
0.0609768586083421
0.062092343492023
0.0592241953801716
0.06256937400077
0.062866663527417
0.0621286425360737
0.0603015851960691
0.0604489311335487
0.0588215198431636
0.0605742799162686
0.0592952156118797
0.0607996073085571
0.059584673332546
0.0595919618783465
0.062445694652156
0.0624340700139238
0.0618196433225013
0.0581780104767178
0.0579787322276136
0.0589275723801405
0.0565705606841368
0.0601874717534216
0.0605212848295529
0.0605128495318882
0.0593973127430234
0.0600848242391886
0.0572030397580167
0.0599136499929046
0.0566274735695229
0.0588746976891008
0.067220219220782
0.0537977239542815
0.0623935368434735
0.0550248123873315
0.0601309117837461
0.0570879293394117
0.0600279172076461
0.0580269025288066
0.0582230634722634
0.0552454697699164
0.0572950970547691
0.0554509278216829
0.0572428485325856
0.055170586112677
0.0592978847320007
0.0579742440189304
0.0602753425139562
0.053885579079889
0.0574727596420072
0.0541244584169312
0.0575899972984568
0.0591202836381943
0.058636643321205
0.054826619646192
0.0620229800922792
0.0511613423069524
0.0625912597805288
0.0536664594995215
0.0587115124744623
0.0558729227533551
0.0572853662808075
0.055416401372962
0.057951899813551
0.0564636952645124
0.0578819311599621
0.0602850881442192
0.0536397493492625
0.0589024751327085
0.0550312372600485
0.0559644342174885
0.0554700182463961
0.0568259140817377
0.0575470693127856
0.0548271490274968
0.0565730314195844
0.054033646691388
0.0562700654325359
0.0560270616908391
0.0561299548702195
0.0563793630047305
0.0577554999524934
0.0561596747057401
0.0557813684305936
0.0553757794767568
0.055412888645858
0.0557078587945202
0.0581431515831056
0.0630043466966614
0.0506540597964916
0.0578121314662445
0.0527191052796632
0.0564083185002086
0.0551845164088519
0.05737468396862
0.0556839224218392
0.0572720436496588
0.0562434994528131
0.0566451870941554
0.0542573233831259
0.0565828406289368
0.0559430633811555
0.0559138519344497
0.0570175498497895
0.0530328999558405
0.0549756957208339
0.0539667444411171
0.0600758363831754
0.0558537139996601
0.0622221884244491
0.0581698984330477
0.054376749388345
0.0585674551633268
0.0549098240733279
0.05695505404539
0.0561634082141373
0.0583101111331618
0.0529929841012247
0.0565139751172361
0.0517756306390372
0.0556631513780882
0.055279327208753
0.0567365703641166
0.0540260827737909
0.0588153532999405
0.0538764948604889
0.0570655021116007
0.0531948262290226
0.0604542183456782
0.053399451556848
0.0581748136498222
0.053176804440687
0.062102723583258
0.0545073747201035
0.058786271674798
0.0527022426807575
0.0628775534423281
0.0635905870061078
0.0529482740793363
0.0636692228072133
0.0548934082140548
0.0602326073592014
0.0558284089643092
0.0588497351979052
0.0584217933568021
0.0589367831242662
0.0576237241022952
0.0610313429002962
0.0576062999571013
0.0591621800818693
0.056180269313021
0.0587650326732614
0.0654861745821767
0.057033826523722
0.057365149503334
0.0592232503800366
0.0529064887873218
0.0694427558076526
0.0561322293223278
0.062436385739236
0.0588265450497915
0.0579587313608388
0.0599347811021597
0.0616081557305152
0.0592558390460337
0.0630963003334479
0.0606184357287683
0.0561613149722704
0.0605475970794368
0.0579943506517885
0.0607161875148782
0.0603957416896799
0.0613254537903334
0.0655402619648435
0.059910161389994
0.0643575936292214
0.0627769695563561
0.0606032458182456
0.0631699145798826
0.0608433323276835
0.0638190383827211
0.0630591991673584
0.0689973549689946
0.0637055822257055
0.0668616467333549
0.065674390834812
0.0617216462823097
0.0647200301252388
0.0653548300659385
0.0670345732614265
0.0676407841040567
0.0588046362749635
0.0806585111581816
0.0594449724676467
0.0785850188295732
0.0605872583952918
0.0717094313251098
0.0602808609108302
0.0730264440449166
0.0621570092953818
0.0715682269447498
0.064565561576726
0.0679698892583897
0.0705048734871382
0.0681618869474536
0.0704493201543433
0.067988830599715
0.074080785794131
0.0690112337583576
0.0703318454994895
0.0686524509561862
0.0769826934461145
0.0688055583962126
0.0874437506798237
0.0711404128561166
0.0705326285994058
0.0760989240510084
0.0686967149152722
0.0835581337688434
0.0716474066595455
0.0761998877438204
0.0758715633284169
0.071609954213554
0.0790272346940868
0.0748926862595281
0.0866778515503756
0.0770805573510582
0.0741994063778598
0.0828755394474427
0.0772874273168842
0.0867367560944024
0.081665170340952
0.0813074471114273
0.082604693221379
0.0859524638059419
0.0813530370121036
0.0841269066529124
0.09526148642326
0.0775009536376775
0.104035471809086
0.0836601098868986
0.0974111683689969
0.0840585587033814
0.0966195426572335
0.0913323455172628
0.100899238687653
0.0893516669646302
0.09936492985042
0.0918044282438909
0.113089906923923
0.0898385397751493
0.103627046033123
0.0998268056329775
0.104742976973465
0.113062352347863
0.124730547504839
0.105645019525294
0.11269338380049
0.105661112406945
0.119863250012162
0.110148594183366
0.112190464989331
0.113410014744238
0.115053653051956
0.120259753667209
0.120168113272951
0.120099696483866
0.121710048938641
0.118129063193611
0.127972817389502
0.120340094744755
0.139741921258733
0.128455340575484
0.144990551324956
0.126797123439991
0.139803406407643
0.131864182481924
0.13579595105321
0.137675918409328
0.135647405247025
0.142735622044511
0.141449971485516
0.141568310066251
0.144573937309855
0.147015502029338
0.157447397640149
0.142908136351746
0.169694686959105
0.148572687645161
0.167474737208892
0.148880897799334
0.204470735109038
0.175191270056802
0.174331208641552
0.194030634474781
0.177667696141886
0.209199496428248
0.192683033938345
0.202009473420598
0.208982420555866
0.215302085653244
0.221803153429889
0.233743815286251
0.236320680394143
0.244073458215298
0.249434150878337
0.256961878587209
0.261635910396827
0.307209321753639
0.279486425089759
0.288579677232559
0.287934692146277
0.306376949138939
0.311736690618703
0.314650629344954
0.317761902349877
0.338611468119463
0.323492613821483
0.3788664565276
0.3517813333801
0.368108993989807
0.36432920835927
0.38922285402993
0.385559470567573
0.389538630205467
0.422436016861241
0.400516571138704
0.424191050980226
0.420413711735583
0.441501262880386
0.436987478654401
0.458343286838913
0.45867040178551
0.45933265001776
0.473458370814861
0.477637111464248
0.485738366812621
0.490639415891791
0.496000435003557
0.495573245296188
0.510580726769356
0.524502470051276
0.524146411437698
0.525177272834439
0.499918355484091
0.518339368613583
0.494497057655531
0.535584801946863
0.525076770478397
0.516523278523621
0.531839041584445
0.518860486717231
0.527635884323067
0.513243580760911
0.520186574919897
0.519054382890986
0.52375307802794
0.521426992252005
0.518006481454422
0.539471409629021
0.509970396133432
0.577297931062656
0.514280209720965
0.528089639239839
0.517685371766345
0.515531583627655
0.510053721018867
0.52148303930573
0.502969897738863
0.521489090488024
0.501881376037342
0.504157227809684
0.497784451056909
0.484507469328025
0.49655353854605
0.47692075718307
0.47509243636353
0.474753924684574
0.461922457126725
0.46574031656814
0.449303779548738
0.465204416460789
0.443981226744183
0.444610146655273
0.443395343640173
0.436400644228681
0.423433916663586
0.422379970544031
0.420048465288615
0.420423815731559
0.414143822581396
0.418626312678471
0.411894005608103
0.402565068654587
0.402198121633846
0.402212833678786
0.400075598744873
0.393823278062233
0.397401908004544
0.393193957483889
0.39587396803821
0.392223917014866
0.38896669391956
0.390629314787186
0.388960015413174
0.387116963712792
0.384893804462476
0.38106145468049
0.386910369642886
0.381800845503231
0.38282728054306
0.378566403898152
0.379997963599854
0.379994833801164
0.378440463290279
0.375689859558375
0.378705913891573
0.375592975423214
0.379149457657729
0.37287644803672
0.374022878070632
0.3690904081753
0.372636698018407
0.378759414261754
0.367926822879178
0.384437435061192
0.361285446600795
0.368227550960807
0.358072914232145
0.365046985295482
0.361838055290151
0.370114463189344
0.374122802622594
0.358482608361601
0.360088120188336
0.362207465280559
0.355417750111825
0.363781762528224
0.352758668807857
0.348565609917215
0.356469472800517
0.341981253185116
0.397540796125852
0.328647192652057
0.379760567056735
0.349357830129699
0.353286739044507
0.346077593156374
0.367217771389044
0.348418534813136
0.35137096209576
0.359446108831166
0.341929556646523
0.358293056563968
0.344361484052615
0.350276075835432
0.34940110210855
0.348489207780659
0.350328235745699
0.35321170498121
0.352561724609069
0.352446554544669
0.348447943363412
0.335716786773041
0.353038641103186
0.345728961970697
0.337918035500007
0.326006059098115
0.326529054601951
0.328167802606168
0.329209131101763
0.328882525068034
0.318690105181067
0.319068927857211
0.309918988546375
0.322689020055424
0.307953429290459
0.315198148353395
0.305975260029694
0.306643291347228
0.306620473698203
0.293451044924817
0.321469805766959
0.297218444976635
0.314226059764786
0.292966951212715
0.298970354599269
0.289966218423316
0.302927638014672
0.296102443404408
0.285855962656099
0.283182588978496
0.283483320175169
0.284628781931153
0.278463860207171
0.266739478357553
0.287372702818117
0.278303879843809
0.285116241645927
0.274670364504371
0.270711143417538
0.259773266131363
0.258070212376392
0.260031099735339
0.264214625001613
0.252098995488337
0.262919874492462
0.243246948755837
0.266788705647572
0.254471852300444
0.268818344244346
0.259668778346871
0.260211284636952
0.261753682973076
0.264552343048153
0.263754441779496
0.279930834681733
0.267616266911987
0.275905034191971
0.260186297986573
0.282608441444871
0.275903307479883
0.282038037505556
0.28323817317292
0.286326624019588
0.289225040123636
0.293024362437539
0.300377661315879
0.305201816557628
0.312075466023233
0.327086036625347
0.321785690600447
0.338126966243894
0.338591224739275
0.337154374453709
0.364472973897976
0.355440732418499
0.37966368054455
0.366441898405208
0.376398205123198
0.385843719707057
0.386671618674183
0.398339781794651
0.39505595521413
0.409220691554565
0.410034425747708
0.409203904835851
0.419189135039623
0.420550633561834
0.43342000907561
0.430577173642105
0.471550330813576
0.441300056395357
0.46523907520162
0.45488674102797
0.456708575294862
0.453327537671792
0.4571760440037
0.468525293573098
0.455446210665913
0.460871982736827
0.467009775305397
0.477907313366804
0.476439307552169
0.477288534816667
0.477224900577963
0.475386691896513
0.48329789678042
0.481685300048522
0.486268588827919
0.490598530602325
0.48911839236805
0.491512177839866
0.500462181638811
0.520039378668538
0.518119748501406
0.496693778610016
0.519089040958666
0.515241147871852
0.519430744557019
0.521768680341762
0.522902465261953
0.526759769581428
0.533496426528972
0.535986046536236
0.539560453670224
0.538754393670625
0.543745248811378
0.542727213046484
0.558051086179956
0.541843243093198
0.563119610925124
0.55950757168296
0.576736190870057
0.5632666032714
0.572714485054056
0.57198999238571
0.57037517028706
0.579089961420734
0.572428606140567
0.578590188618001
0.57751123355681
0.583647153890824
0.576560319643268
0.580797524888286
0.572796588084255
0.574402373287356
0.582244732192793
0.586166218396106
0.584620789305298
0.574302019777774
0.578201595643539
0.577162146454051
0.57964701978089
0.577870477831734
0.583631921842542
0.58201368720417
0.563999085474166
0.573240825506271
0.579344780029248
0.575120737041003
0.572389592155286
0.57109312486517
0.574980746007271
0.572348761966803
0.573409220872332
0.571775691522431
0.579290709487387
0.5886084222837
0.575770870108749
0.586430982285381
0.58838731804893
0.593503601293082
0.589589713759415
0.591498284370393
0.602929931789029
0.605328390169936
0.60311925789634
0.607957238605123
0.596442258664794
0.605601432380988
0.610773702321479
0.61298702918006
0.601322250705502
0.607908717226157
0.604273250954158
0.607392297596319
0.600395089633146
0.609001920274635
0.590591416356851
0.594922469969313
0.596479758225657
0.59533362203705
0.582219913714978
0.585714688430514
0.574347030613073
0.579086102533409
0.57038450193281
0.56666806935777
0.5599022576988
0.561155505565782
0.558506985847196
0.548797488816918
0.549911369583659
0.550125822288546
0.546951131232587
0.550608994585382
0.544579525562769
0.546477306952259
0.543685856769644
0.542313053549173
0.539741704354436
0.542443552154851
0.536041246808217
0.543275046411144
0.534640508495511
0.535987970795274
0.537391938912015
0.544620712876358
0.531003560929912
0.543885479927429
0.543762713930096
0.536245649863841
0.536147692774285
0.534535003354201
0.534007437406997
0.529739304938143
0.533695720233187
0.529136359474732
0.53382096671879
0.532733758002292
0.536762100200711
0.535889826190956
0.530169076624153
0.531825810860566
0.531846427133485
0.52685357941421
0.525937936487244
0.531601269146517
0.528289165082179
0.524714015562488
0.528899798450118
0.528720500900207
0.527102475799648
0.524580699280135
0.526119503788713
0.531140747967563
0.525032048498067
0.522864541033163
0.522919713706098
0.520953484486044
0.522921163057479
0.526425993625893
0.523030468028881
0.522718265320404
0.520888129730017
0.518668505281068
0.517644646463113
0.51665093422515
0.506323486992784
0.507174498975217
0.509948627632563
0.503603193582604
0.496477072928121
0.496278781600248
0.490795790727489
0.48758932427771
0.48459511675765
0.480800855961004
0.476679919002053
0.472587232633552
0.466304737518161
0.469517796559045
0.466074343813305
0.460299203743306
0.463801122889393
0.459996824796412
0.460633902351776
0.460502177538227
0.457306779216771
0.456147597320796
0.451538640476026
0.451934542643702
0.455242129666932
0.452124785525865
0.455465945007301
0.458423123041993
0.454046685846308
0.460113629325043
0.456369923605349
0.462225202979453
0.458811098017902
0.46188092669239
0.462158117191938
0.467475473575298
0.470228770668686
0.473815388995034
0.472319131276225
0.476805015516418
0.475316493605934
0.475843034802208
0.478956269361156
0.482143902736802
0.483875598530877
0.483260950418
0.481429335799101
0.482230838491791
0.48429690603013
0.483383176931359
0.483541147597233
0.48476310681454
0.481547751233892
0.478240482283211
0.476270347999908
0.478166892836312
0.480596493061389
0.47723396411835
0.476682231823992
0.477479803162091
0.472431564744938
0.475180565380195
0.474388104068486
0.470033784940765
0.467077929711235
0.471435577359087
0.464575679855376
0.468279086763321
0.469334670718284
0.464258118899738
0.466124512401945
0.46487638717945
0.464041792641849
0.460077394294154
0.454927281272666
0.455928097958642
0.458390795938757
0.456667728523774
0.4515335629188
0.449295234430171
0.452127376701262
0.446774892286706
0.44483413944256
0.441294409911877
0.439781224553976
0.441765198301508
0.438568472961617
0.434459180129521
0.430951153303326
0.4296607610957
0.431188639980519
0.428120848564819
0.421192918303964
0.421970201852116
0.414183742292977
0.41503124345093
0.412147177637107
0.407740229089738
0.407364850846488
0.405715276026983
0.40146687541177
0.399694469663068
0.400638629893271
0.396713464558205
0.39726348922349
0.397715900238998
0.396211694418464
0.39425060252168
0.395659798815313
0.392805727589716
0.38887533270708
0.385754500029774
0.384559648459228
0.382655132725762
0.376648549349594
0.373841523331269
0.370085794880068
0.367573814340436
0.359568071216382
0.354588438761142
0.350451674458045
0.348313520820477
0.342994721389545
0.344772550572091
0.3398794541026
0.342263136960792
0.342780582488339
0.34494969550853
0.347681937943415
0.353355274659855
0.36212681102942
0.37120881032484
0.382666492877301
0.390499176772359
0.401600573858075
0.41783117689882
0.428565634407049
0.443024401195217
0.460811961272112
0.477613234960287
0.491582926887206
0.511306487246287
0.526018507017342
0.543543826920261
0.558816337571915
0.57445222389128
0.592245473404182
0.609564405252815
0.623832408490809
0.641209066620231
0.657986518529717
0.673074686429824
0.690032407911605
0.708410894223846
0.719106638742097
0.734938333553782
0.744797095795683
0.763891918324985
0.760072588017205
0.775002528290843
0.783128670250211
0.793006070745638
0.794443115198382
0.802367412251952
0.793678830929511
0.798665774442133
0.805832417876835
0.803727133757026
0.809395546153989
0.806402906609279
0.809767556318788
0.794686314227077
0.793258843340569
0.79551804112841
0.80263998960213
0.793458864902224
0.801643746057073
0.800744700196754
0.807107108432942
0.805226391152926
0.807555592534205
0.818137885826885
0.822840672985178
0.828229470395988
0.842336050109122
0.842158421849244
0.847467544533275
0.861113548493045
0.865589173140724
0.877154621717377
0.879802910431484
0.894858470527903
0.906713846143912
0.913198735151346
0.927067684788626
0.940474861093304
0.951368124179678
0.950389325301656
0.969128504174554
0.967340015512947
0.98822147294961
0.983576953997028
0.978026354110441
0.970462779391802
0.97059610619669
0.973886282841412
0.971214204656092
0.975454475378392
0.966795596139699
0.966084673508532
0.979566581730834
0.973775389618274
0.980574063395814
0.989799318546048
1.00368013095629
1.01042584826986
1.03257556731009
1.03897380725725
1.05006489241324
1.05509237650159
1.07550957526631
1.08899374082201
1.09604394606646
1.12344877332079
1.12182232938339
1.12674672923334
1.14229333349091
1.15144459122398
1.20112422514956
1.22385279468887
1.21498252385757
1.22557272639723
1.24433555777939
1.27895578548489
1.30336203768964
1.34351732536262
1.38936735573527
1.36980310825458
1.41453288168344
1.43770096048158
1.45691088496084
1.47042916923047
1.47342187861583
1.5050807916337
1.52428361644511
1.53023984789826
1.55559505449374
1.55161235991326
1.62669190136956
1.54039809860259
1.5812766206724
1.55184749596376
1.5750436930569
1.59600896626005
1.59558030737918
1.59891748122452
1.56214302509706
1.6570641460782
1.58639190341397
1.61535825587071
1.60871692254148
1.55469520512102
1.57666653752421
1.62108701391006
1.58143327199788
1.59950954725463
1.59737989640044
1.6587959241634
1.63685553153629
1.62900507489733
1.74284582819924
1.65247185280829
1.74714295477538
1.79146516086278
1.74405449198928
1.80549698324544
1.79604228716631
1.77545231765742
1.84109346297241
1.83564598477427
1.84685327712009
1.87186834221064
1.87816167226048
1.9249191168133
1.88532443247493
1.91502860830222
2.0121866526701
1.92158557664252
2.03604704474407
1.81815038430984
1.93152349201331
1.92605875913369
2.01438669973463
2.0936706240242
2.1011907900988
2.01156389042865
2.08307986297388
1.98088191777486
2.12650668099066
2.26262991400238
2.10973424514625
2.35762908830023
2.0659831041826
1.89828789821718
2.18274703940424
2.07536031476146
2.17192760583267
2.08139557953651
2.15326622328308
1.99815601001294
1.90282301164038
2.05023525944872
2.211214820166
1.91311916032224
2.05467875787502
1.86052248345161
1.96165548618584
1.87708338906072
1.83494069753922
1.73376406679617
1.75728554543673
1.58911613536434
1.70996575496844
1.6356392830229
1.64689385707631
1.63069176729709
1.57455286109469
1.57184820876923
1.6059734446257
1.58234157422817
1.54972153675497
1.54155009217805
1.54181128999935
1.49285267477823
1.51245074165209
1.4439757995582
1.514460235149
1.40565872877919
1.42727026501848
1.38574486149447
1.35965064900437
1.29360652696097
1.24689227933256
1.22684870156069
1.19030860341609
1.15468518342335
1.13317247519114
1.08957358350656
1.05306972150061
0.983540032247631
0.94443003215753
0.896705809508024
0.866109164574744
0.824524816275459
0.776383126236732
0.744247411384459
0.717517075304557
0.692788001801093
0.668834620921558
0.649146044746645
0.629438428033306
0.607273320816968
0.590960399917072
0.56906281787979
0.551443764171576
0.539928567113298
0.533421344014376
0.523467877434163
0.521348430164257
0.518022681577132
0.508420211517223
0.502176013855479
0.503844022249032
0.496127433396196
0.503794541583427
0.503604889745695
0.49933321847462
0.501944012459512
0.508639160965481
0.502905812595857
0.501212572564258
0.512972390798986
0.500820983111171
0.504492845136332
0.51235706927322
0.503944420614597
0.50408943180906
0.501004252468875
0.502993733726248
0.502977064445187
0.498402195366484
0.492976738312046
0.488657666562301
0.485649834688713
0.48217148984748
0.478571630848833
0.485486812875579
0.480986216037494
0.49007159667759
0.485472909375619
0.481612535425459
0.48991528922112
0.495758864318523
0.497967890099342
0.510281618286071
0.495491173884226
0.497458494546254
0.501619996061309
0.498467671588932
0.510282482265196
0.515772036905154
0.51270227717488
0.507693727913481
0.505359513418299
0.508135363852508
0.505918763357595
0.50640135112492
0.509807685203494
0.498827435334462
0.504437435645546
0.506444180192545
0.513999736798577
0.510635636168548
0.509475572490614
0.518635505421582
0.521574558144063
0.525624170795319
0.530216583345785
0.546256509280371
0.547797676021705
0.557391867297227
0.568738793412703
0.578058639504398
0.592938360206605
0.611447942427192
0.62122687462431
0.625180161598712
0.639199075532951
0.649442304903272
0.644086870901538
0.633107335285302
0.632935488025112
0.630478562647068
0.610327561656378
0.603172238512417
0.601717806161252
0.614154638952826
0.58047736777532
0.581002518298848
0.566247852100612
0.566041757437017
0.572021104811825
0.561645587495281
0.562324190105634
0.573966420962849
0.562765837088093
0.567660418905574
0.578305222824169
0.569351159498371
0.569868167048731
0.575571673263101
0.56664874169167
0.554358818748117
0.558630102297355
0.543373235932043
0.542177450870294
0.55392774198153
0.531788671156599
0.530443790381738
0.540836053169315
0.534573204507248
0.545354474183393
0.529515933788783
0.521471179494338
0.510632878220776
0.513413813675171
0.515501909374806
0.510087628509474
0.518722020310117
0.504853230378859
0.514707861167026
0.511488308674994
0.492898708158593
0.500582677836914
0.492159754188706
0.483746361931012
0.493087253902836
0.498070232961185
0.500716907135678
0.493600753433595
0.497043180888165
0.493341792541934
0.491391783616302
0.467837863927505
0.472234810635501
0.465873843575491
0.466857214234476
0.471234661121119
0.476823093731495
0.464390878406384
0.44985035444594
0.454658228227223
0.46789736093868
0.454834711190979
0.453476977760811
0.447995323980775
0.437316183165032
0.442442805718469
0.453728541438339
0.447822756708976
0.444711633810081
0.439213135034132
0.441073685118481
0.453987627850908
0.463402860891126
0.451504398007876
0.454492061281926
0.447146477459507
0.458491983764483
0.454334798131843
0.45702073327395
0.449399291438669
0.465368265209763
0.460212437673575
0.462444514801957
0.477643763077672
0.480751155897868
0.46860642852923
0.463816738287697
0.479642761118474
0.47968809783516
0.488670991822951
0.488706488762586
0.488556562949213
0.511581324908957
0.497874215334618
0.519062638727833
0.522175009225319
0.538836530030645
0.520702658089011
0.558341855771646
0.538106635845595
0.552343161650464
0.570116039238463
0.626646267617918
0.627358930021064
0.637255362583894
0.644371163244506
0.671336396577722
0.674265473997896
0.680518011445488
0.694834248886315
0.735659608917946
0.752454273680629
0.747595987717107
0.746119215016499
0.741096283784063
0.758245718198441
0.780900925616778
0.766055136541694
0.772445446503046
0.725783274748645
0.729590262733733
0.76485312247034
0.743639239946055
0.706571508108407
0.756197703089389
0.718094064416633
0.747042972434172
0.733891107032442
0.744583795907062
0.72422818120425
0.754210161169112
0.716575072786852
0.759302706179158
0.745320625321892
0.765347947270607
0.708521419596627
0.743653572074834
0.734157440484822
0.693670823489645
0.696670937569013
0.694183859291971
0.690225033358826
0.696367233483419
0.66139286040126
0.7046345645466
0.703568617283959
0.676144010041369
0.694929495742792
0.705921927991365
0.686635320275646
0.659449074258817
0.712659380195726
0.711592386726587
0.64904234503053
0.670795352199348
0.597929537564491
0.660775511752833
0.724594366240045
0.714483785549739
0.65188694814371
0.680768407349412
0.666365014168815
0.693477297045725
0.639209545439055
0.690267488528104
0.725500674781155
0.751402787045103
0.664479478962125
0.70273985007518
0.716652669631465
0.751015321717217
0.713238063809631
0.768305430050797
0.7491376213185
0.777772591700895
0.680335165942849
0.77354764335111
0.697034340704138
0.735524395973303
0.68266775413069
0.814528399115552
0.70712901964516
0.762082041510425
0.823979019093189
0.762477342459967
0.764442525773636
0.824036366924347
0.78246161741796
0.736274592097527
0.832182167990389
0.929464206568861
0.864062896512711
0.931924935653514
0.878731271525096
0.854591364500883
0.807553518413165
1.0136221749142
0.934677161654855
1.01291174667696
0.907777289454496
0.967084556123526
0.962358465940958
0.945433199480147
1.05651034876048
0.883154206630388
0.932040329206666
1.00226985439523
0.876830460326928
1.01298714589842
0.97276310018887
0.99985736630964
0.831311254948358
0.781539018665289
0.747018780943677
0.810912193732187
0.728585534490952
0.797155992577183
0.747740135178323
0.962363139931533
0.792333717162451
0.863029047017163
0.800631486290607
0.807910019183385
1.05008763378402
0.957660258110848
0.823080298615659
1.25794180299823
0.787319770697132
0.786555688560631
1.02254493704342
1.22086618128207
0.710678917265276
0.985260599855621
0.742273681985085
0.963337221142183
1.31146212981035
0.849474113178065
0.623403127335061
1.24705038537069
1.38014546433737
1.25943503249012
1.25902969466801
1.37925535395693
0.670985874030076
0.826236068080918
0.970926945993562
0.813119481402265
1.06791901401597
1.73104573714484
0.783068725397352
1.40917376968872
5
0.943928674138023
0.774752710156718
1.80587439336482
1.08914323925373
5
0.795559791584285
