3596
4000.36533379555
650.420452594757
1
2
2
0.0520830986175366
0.0410005498631898
0.0550058358270968
0.0350054044462079
0.0520911952932922
0.0371028507781921
0.0481137728047677
0.0319353694795102
0.0508997674357998
0.034345672860326
0.0384766082687849
0.0420133644633683
0.051849869851176
0.0359813729326477
0.0434979971759821
0.035475775408336
0.0516923524555672
0.0353785348980833
0.0476253837238311
0.0343166686825362
0.0520109486800001
0.0383003783299444
0.0503233241932827
0.0312984317045608
0.0446139962502522
0.0349720243790297
0.0449332462018853
0.0410329277739031
0.0493876240601713
0.0410174265016964
0.0516053027924837
0.0351383185358721
0.0412967907659302
0.045642876294742
0.0544277375577016
0.0360192106341796
0.0432950866632409
0.036678038503894
0.0557801427499173
0.0368336498264821
0.0516345728769429
0.0437124126011862
0.0452521216309237
0.0369369275728887
0.0361899113027202
0.0270627105427907
0.0344330696181569
0.0334406052285523
0.0425217085967599
0.0362435730987025
0.0503310700527243
0.0350505735777743
0.0480839000033368
0.0441124267717495
0.0375979564632718
0.0352682584121599
0.037014232876256
0.0360334669142002
0.0483861443953685
0.0413246901192403
0.0425241350633859
0.0451218224055171
0.0467975666686126
0.0322792789862018
0.0390195944312167
0.0340154775514076
0.0399098571239622
0.037960066110078
0.0415419959338917
0.0390081549167945
0.0403858361432992
0.0330519578853719
0.0495857385974949
0.0309823103402667
0.0450120428964036
0.032771328595075
0.0408017481082666
0.0296736293051983
0.0426286783570712
0.0305075260522885
0.0487063136099729
0.0225013671688008
0.0403883499515457
0.0297874511573768
0.0401518731575095
0.0333756686251396
0.0477077485844371
0.0235098865129835
0.0529336671198578
0.0286293001980538
0.0353596623841648
0.0235768098024468
0.0430893815409535
0.0251531689702525
0.0371705315603645
0.0272934651392972
0.0389606740406004
0.0223312424589829
0.0430926990288672
0.0165528286274574
0.0505167072232831
0.0183739118400781
0.055174637086697
0.0275663766225806
0.0287757658557295
0.0444172828572965
0.0250657833274932
0.0394669535539652
0.0324831813540674
0.0353495405529078
0.0446784082012424
0.0274511548804132
0.0313382204048092
0.0228923768039808
0.0464814660569518
0.0265433024479154
0.0399303226361371
0.0213676703847902
0.0374778245044513
0.0270123181027864
0.0552137150804463
0.0147953241324118
0.0617955960696972
0.0187768933111447
0.035751648506946
0.0246616387923564
0.0448863666937409
0.0142732468816228
0.035890534416011
0.0217559186123083
0.0381737445811827
0.019535530296056
0.0396305785947588
0.0204153084881941
0.0569492192445651
0.0238151241158905
0.0370909404330367
0.0347901546137946
0.0281369669084583
0.0144730948450217
0.0322404282604728
0.0253603016155771
0.0388203925166232
0.0301570773087759
0.0496783781765571
0.0215964990218472
0.0387508046677052
0.0261055786815939
0.0411645364357302
0.0113107105625625
0.0289355226636626
0.0266086688981644
0.038201057102257
0.0298057811690357
0.0602494069384483
-0.00838423758676378
0.0658216196563697
0.0080919390411492
0.0479315263724706
0.0172913459920033
0.0272387590438101
0.0236926423963749
0.0208802300960508
0.027375875838862
0.0205590238521454
0.0331167062132002
0.0347260103776069
0.0381810429325744
0.0391754055244753
0.0406001847309799
0.0402322804452107
0.0315294944614226
0.0415924933072416
0.00968320239916216
0.0445292387642394
0.0109180229937563
0.0535710393179972
0.020900493588166
0.038244615527496
0.0166603717583667
0.0377209087744278
0.0215244273024
0.0277774822557005
0.0245241004924193
0.0408577347134395
0.0172592925942614
0.0408282818589558
0.0197495487462778
0.0406719374305157
0.0338044915464383
0.0475707470864798
0.00885422347720703
0.0453119740813113
0.0238160284062769
0.0354679855730932
0.0365967130013813
0.024700556082581
0.0288636538731126
0.0253961728302513
0.019421827893043
0.0271477343889251
0.0206004279799794
0.0304099491455064
0.0221732725208005
0.0381295839293069
0.0236505334973091
0.0203577789133962
0.0316834676618847
0.03183294715499
0.0245569231942545
0.0322538188225519
0.0289102426218099
0.0241308957403078
0.0357542847708776
0.0299966252395774
0.0291038742187803
0.0307670030547876
0.027841827915792
0.0278238846476617
0.0239681951170009
0.029124645947065
0.0213435801805968
0.0388976733602874
0.0255912955611402
0.0281559247866777
0.0300703700645716
0.0292583242794199
0.0245852888388117
0.032723279688976
0.0330381144962155
0.0314399448697741
0.0274790304042024
0.0353250381331239
0.021959352955818
0.0398956746757898
0.0300628008557185
0.0463652072963596
0.028427489192103
0.038186500252618
0.0248528937915285
0.0285772297985108
0.0276473665944346
0.0341675440912488
0.0263983735765299
0.0382068571147937
0.0358198403683142
0.0233961117438214
0.0308389616385343
0.0235853102135156
0.0531987174280102
0.0173648157081497
0.0417604179251276
0.0185250744825278
0.0352046763949277
0.0273438147099773
0.0491067983534698
0.0344919341264145
0.0320063205731793
0.0418739887354444
0.042856303955991
0.0237131170793748
0.0308528308405819
0.0341190485344137
0.0406037592681485
0.0527983984012506
0.0151445918641275
0.048522935796045
0.0291175253017129
0.0299990197500536
0.0409378057144661
0.026947906873839
0.0416469460819747
0.0463786439808963
0.0168302918736858
0.0402421466827263
0.0350942231645742
0.0426858893056537
0.0238284549033906
0.0433669904075175
0.0294047168117087
0.0503378864105081
0.0361681549482078
0.075345877386754
0.049903876616192
0.0152818689634622
0.0643295349623164
0.0296998909224641
0.0429971890951257
0.0243258500245581
0.0422278777929824
0.0377029028606486
0.0500060526649532
0.0305534346394049
0.0464349804135511
0.0311909504887856
0.0423027303921119
0.0444729053690376
0.0374735502367588
0.0363566425191565
0.0361988531584669
0.0489342877004359
0.0477484967224721
0.0433885518644493
0.0362500145203986
0.0457536592032017
0.0355226406808432
0.0540824155396393
0.0467156794685601
0.0452742301091772
0.052994158072444
0.0472618395150375
0.040916798015868
0.0442063780064909
0.0365801400277738
0.0363932572709989
0.0432611245689084
0.0505052048803665
0.0414152065483369
0.0579076786796851
0.0361298404050692
0.0475726580098802
0.0403776573356073
0.0522907357772968
0.0450320631564192
0.0484504911934267
0.0478699985018864
0.0570884889847369
0.0518813518155019
0.0471915828006647
0.0607363939584984
0.0466449295316955
0.0443818445139143
0.0808651645749229
0.0452986465217328
0.0661975151577838
0.0561861507492893
0.0615980696587264
0.0540575426477535
0.0497236936692443
0.0554574632507804
0.0610062687388
0.0637297699262783
0.0634148919152439
0.0518707627329609
0.0659821663832569
0.0714850358820326
0.0799990522243189
0.0797822146416146
0.057079537045998
0.0715068324610414
0.0616199489357906
0.09133836286653
0.0535561532766056
0.0891380740830484
0.076925821053637
0.0606420012517784
0.0811359387468312
0.0752139202502043
0.0842794706276657
0.0793075136914024
0.0941089161655726
0.0743109263074172
0.0965386179899112
0.0871902502763458
0.101060211214623
0.0879779445722563
0.102753536502022
0.10038563098068
0.096272924921063
0.0992381343091536
0.109262520295833
0.0946538931012217
0.117909254204034
0.103511858178598
0.150985830675334
0.0940425164590502
0.115998155268738
0.121173385149434
0.105330118235318
0.11371802456745
0.111312464873151
0.122928575254729
0.12762764731988
0.129807652433133
0.125721785931962
0.132843646170262
0.129893856240563
0.139432602395642
0.12587133433925
0.140526084994054
0.139840969208388
0.166521911022128
0.142050171529683
0.160222076896736
0.145843758397388
0.164212145456432
0.146162200925869
0.192896489262578
0.154468153848082
0.158387419923783
0.161419124061435
0.162290549641199
0.162295595027515
0.17184910576809
0.186993564846662
0.18359966201027
0.194074378055202
0.195670197576538
0.19127613655961
0.202165559301486
0.190978746014329
0.206209522834129
0.20332065524364
0.212807567905411
0.214340968004547
0.209214378109862
0.198693206355669
0.233540008404366
0.21753739370961
0.232117522761546
0.233016264459828
0.212159126227199
0.244091892704221
0.224687446646607
0.234973642278081
0.243446618362121
0.252718011791697
0.235311026604881
0.246176576670131
0.268075553498335
0.25473400886372
0.258639268083894
0.26211322194081
0.278424458274895
0.265376733602039
0.283146642913571
0.272496509507175
0.312444294291991
0.277503428046556
0.303558360013429
0.297876496340187
0.306790460155407
0.303541300729081
0.291602751802815
0.31070984241823
0.297311073604055
0.297310484083208
0.308298619741304
0.337198517164581
0.333053714902407
0.33118909860816
0.339981011990338
0.353504085953871
0.349806585296856
0.361208569847012
0.361181149584014
0.347865070614291
0.374885237426751
0.366613147161736
0.382303125852686
0.366966605666248
0.403570074299081
0.399342885105078
0.415815036203317
0.396502865220478
0.398296970950564
0.392049737960543
0.413385046282087
0.390094358598413
0.403098518786597
0.419696276059761
0.441159416492432
0.432398090339787
0.423732109161241
0.437920065997807
0.449769579071737
0.452836868989785
0.450534724890332
0.445917533288862
0.46688819747906
0.477324817084658
0.471936902772421
0.487934634674046
0.508582350784936
0.478080659694879
0.510524394317618
0.506995788168252
0.532130638515264
0.502600277658013
0.521022211087242
0.527477331465066
0.537436885172814
0.510303100141142
0.532256225766591
0.522774039321635
0.547481392652286
0.538347305094385
0.57111583058677
0.56043762271432
0.590099697052886
0.565412489595127
0.610265819421713
0.569861334467167
0.597702462874233
0.58054498317146
0.598941674961044
0.64012553137061
0.616979593546038
0.602957757409753
0.66446276118249
0.60461594520065
0.656199279864277
0.622124822020861
0.673689250112302
0.670739974952069
0.68355899868904
0.628406748570959
0.698744512626425
0.643388052969015
0.646078104663526
0.678489239830159
0.733166154069073
0.660959157174301
0.740789323022102
0.695449574102782
0.753042792600768
0.686168051601467
0.722042955081406
0.727389322745872
0.755221322867048
0.723787984915212
0.752129383657891
0.761412041337345
0.778905782195764
0.752771002302237
0.776546225453802
0.711165332976457
0.789397238011256
0.750640035073355
0.782171628138196
0.773602065297097
0.821873634762032
0.745441735792329
0.811673993125589
0.795424299456918
0.87713702757321
0.825832380938082
0.857550553788337
0.808492234086413
0.891013107338499
0.825209203849038
0.895077829913991
0.882558796206433
0.869378172663774
0.832350503477556
0.882291831053411
0.869532704354511
0.91456872075539
0.872884125208374
0.931668460371725
0.890410169381671
0.972955030903768
0.858811495370249
0.956246814874175
0.898365247504203
0.956231650371062
0.893157582077121
0.948724866896634
0.89822956837827
0.9547552931581
0.905835908067713
0.983732819177883
0.947929649499329
0.967585991262142
0.940721115380279
1.07248958067909
0.941293174308565
1.0833980559264
0.892818843002517
1.06672197353655
0.995306335426865
0.98679261816487
0.98129279028908
1.08598138080204
0.97899344190603
1.11196969004739
1.0497137325743
1.09066198808969
0.986359249725404
1.12297787763774
1.0288640903547
1.1718248969535
1.012760449484
1.0903128307091
0.972641353450325
1.17918713251826
1.02414858799427
1.2752203403128
1.09091893277848
1.11182746130253
1.03146389377718
1.16377754778216
1.06631262489358
1.2187252863994
1.05695503149234
1.19181258989431
1.13722066470494
1.15516429720329
1.13853189516264
1.25661796123266
1.07350422159858
1.3435951066441
1.10915934185388
1.38107392904885
1.15370641954729
1.3244915751767
1.12485291359965
1.32208391882959
1.17685381537093
1.20002207159984
1.18323086230614
1.37289680828787
1.16459985662819
1.37113879576555
1.14807592270477
1.31681279534128
1.17718598695384
1.31968062985322
1.19139895636001
1.39906102791439
1.19921347190475
1.29952325574604
1.21184771529214
1.2862820331665
1.15293387645638
1.34956112956663
1.27458845028711
1.38719746374003
1.37280565198791
1.27700183074077
1.16729385922536
1.41676690980203
1.14226116395541
1.29078430338355
1.31539321500156
1.40745116644213
1.3000629404942
1.55846806777074
1.31688675388088
1.4834225541006
1.20984196919887
1.40953079983441
1.26089671402427
1.46198184717987
1.37612607160641
1.58031099597555
1.29241316969171
1.47267130791339
1.29604956267677
1.3131000892068
1.25194423774739
1.42605829643605
1.38254297762526
1.6398460500288
1.29472724956911
1.73577561497507
1.30324703216184
1.44987287354522
1.29125270908965
1.50838840219834
1.55674912012362
1.62155398560995
1.34996884068081
1.37122742242639
1.29964965310587
1.47031178982634
1.32980282623734
1.6500728774566
1.43908069849156
1.56818584115267
1.37569609012302
1.65212889814147
1.41939810947389
1.61968527897385
1.39217302949759
1.47875451963916
1.42402158920273
1.96237008696443
1.38091041225565
1.47548110109298
1.5394422707695
1.73475030453252
1.39316284883876
1.52611973917977
1.44147697125614
1.48696947079414
1.39308995081973
1.72493444648119
1.52163405817631
1.50937852507775
1.5469388842205
1.56293436548882
1.37705299830779
1.58584070090511
1.72013573439311
1.60482088822192
1.33395508639845
1.56921222441685
1.35684372916227
1.88265174238523
1.41755939364837
1.51925049381377
1.553510130286
1.7018127261917
1.42605917609118
1.55639086721231
1.4426324706012
1.5783528708356
1.43641191911754
1.64209799608378
1.39910429317787
1.59770787987763
1.64389836179119
1.52406827584949
1.53568155711205
1.70955719325057
1.4634586167296
1.71803922956394
1.55604187795626
1.53252952355481
1.42679943046159
1.71438063194238
1.5735040759255
1.70323486591269
1.40783509805495
1.56709903665083
1.38936419725503
1.49080634212404
1.33797193290354
1.57500774797141
1.37338256986995
1.53422525829992
1.57779781230134
1.67751593399598
1.65575400070611
1.89704281832819
1.4043972298113
2.00131448477926
1.68179140197994
1.52533892485313
1.43050437116382
1.61148478682935
1.51922160185673
1.56463640384379
1.50540312900368
1.6063053402435
1.4660222435279
1.46272520689668
1.47201688081161
1.91179210162346
1.50294519941933
1.57706261484653
1.63702483683019
1.57802010894878
1.36107918819511
1.57061471343792
1.53262020847364
1.52190925418708
1.44291011011747
1.54471086556562
1.41822670614573
1.79745862526193
1.33772262557017
1.61372838635863
1.43152626282887
1.73005972310988
1.45486088382698
1.50570772877928
1.42155893030197
1.63646256080015
1.56671619401301
1.59688004614292
1.52442731050617
1.63203511528507
1.55550262616625
1.49164520410541
1.40061393877758
1.59135440091153
1.40138137946626
1.56573904596929
1.40779870861121
1.54998742378909
1.40920034562776
1.56511150751011
1.44791933326261
1.59265229777516
1.32121876929062
1.61567114260442
1.4981927196798
1.51604544646605
1.39247586915869
1.60159850479521
1.38869107527833
1.5610256615327
1.40228560441374
1.48129917160778
1.40406599855101
1.49405573543833
1.47939766929276
1.61006206207027
1.60141809037998
1.56353453646564
1.26560586995076
1.4569660661468
1.4080671924181
1.44626693913571
1.38876255401034
1.43919847570427
1.32294051019891
1.43283550199946
1.39530603015322
1.52008584577651
1.31281446039235
1.43352236135343
1.35522346327861
1.39570259065999
1.28483258348354
1.4772857297457
1.39631465239936
1.40673859261911
1.35102338375068
1.57776119701818
1.33675810040812
1.44656222565311
1.30856799114034
1.39434743393746
1.3777526011448
1.39660455033625
1.31504531014805
1.42528979495239
1.28561797186834
1.45282825231946
1.31477787311937
1.37511770560485
1.22559879035536
1.27806951637693
1.31082814142494
1.39704259861817
1.27020072890745
1.36834991537161
1.28030909531466
1.33296818157035
1.29927592090466
1.27279481441038
1.27930765010131
1.32054135988486
1.22625359150991
1.35644357045786
1.19787607767825
1.34674961875808
1.27375916723696
1.38716188565576
1.17078487559302
1.30756632441755
1.2184524963612
1.24892280080468
1.16183693289737
1.26777280936518
1.30481253335516
1.25024985348637
1.24864591562683
1.26486535324384
1.18387780801126
1.29915144058486
1.16452826727844
1.19860109340153
1.17316291403046
1.22154508005207
1.15837434443985
1.16086178386822
1.14495891170813
1.16882504175158
1.10160262124098
1.14344325964708
1.13534458732213
1.19290598985945
1.19096284472756
1.20467273607586
1.10711503631368
1.09703518615286
1.11302029246542
1.1916130396282
1.08665652320803
1.13429153057329
1.03922128028531
1.1237131331305
1.05832060370234
1.1596171863937
1.03160038898262
1.08430424903146
1.02815025191734
1.07316490216499
1.03169110565532
1.09778982596805
1.06494451094653
1.04405919045269
1.02269656725255
1.04559496409132
1.00639315209516
1.01730755674975
0.991275200610957
1.0322257094668
0.980773854916283
1.04242569679016
0.958007973424368
0.989468111717484
1.00491356471736
1.01218054143239
0.977178386027203
1.00526730439651
0.952819873852589
0.973068119230563
0.89908759798993
0.99152406101206
0.932855645644116
0.974648964219226
0.941336816778442
0.967542187210718
0.923512998991119
0.943043494316143
0.934464276601459
0.924297740856724
0.872443200087267
0.905371292560901
0.873267014032214
0.913987741763533
0.853529658892633
0.882959146907964
0.865369024661274
0.888145217830115
0.865910485564659
0.859572226151355
0.845796451840509
0.862935127048539
0.84812880465987
0.856268237526118
0.840678389897508
0.837251414646481
0.819646962818511
0.826394104138491
0.818924218705933
0.848996735326941
0.830451430783916
0.819139001269529
0.772466843120304
0.802303166202109
0.785141693193324
0.817190915483032
0.788172607616675
0.815995309409129
0.761261997012659
0.811279451982506
0.783800573555425
0.770708427813039
0.758945161489243
0.789792730107416
0.749950091468802
0.770189654240402
0.743371344169023
0.764749217792197
0.745479262010744
0.744705977222944
0.730650220310552
0.756898411289225
0.712102365114993
0.737117372091658
0.709055893260331
0.715365413749157
0.7084933300975
0.715267744363806
0.699375498641183
0.71449672076332
0.660723058896653
0.711353372777978
0.705626994791399
0.684646574420312
0.666322252002905
0.687781125502835
0.657632230679492
0.696995231718116
0.673612441655881
0.66528061266828
0.654760813641086
0.667149164847875
0.649732867541641
0.666217558477164
0.657523163896782
0.662868375979888
0.638536323257019
0.651762877799258
0.633504866757257
0.644110874284313
0.62846584416618
0.641749290498692
0.629395322006129
0.624827565325411
0.610129036580805
0.629933243767345
0.601362571516317
0.605357417004977
0.601699318422415
0.611619618191621
0.594799842624311
0.60838789178118
0.583728596831541
0.58361921180062
0.577727753893036
0.5837249702776
0.573981888644078
0.602526324342405
0.581195691310181
0.586100372063726
0.5742675474862
0.570330268445873
0.550482488620822
0.548969371282135
0.543569561823417
0.565361510682097
0.543659036024527
0.552934214215028
0.543151137257292
0.55673638502133
0.542069485249506
0.542343268506489
0.532966860677366
0.536205283267993
0.528756591177844
0.536700654427521
0.519473598803186
0.534483385201275
0.522591414857829
0.514734085007552
0.511040239520676
0.520313739957015
0.506906115939916
0.512417272087958
0.496438106013294
0.509539306618716
0.498278291792655
0.507780158835451
0.498555817589371
0.50165106658052
0.483051668510062
0.487174680818087
0.489531780938577
0.488947593751215
0.476725262873519
0.480282482792698
0.475784358584462
0.48302016749225
0.464749141238484
0.484312868675105
0.478150265688768
0.482234679767696
0.475934277956118
0.472254975146476
0.463469252619328
0.465461306687983
0.464926966728086
0.476587528356334
0.455452373048535
0.471912192294816
0.449808979442816
0.456718262076539
0.454069541222015
0.466949995111986
0.457642833063899
0.462652928802179
0.458289520733451
0.455585276020754
0.458144057802371
0.464558775666
0.451177428035249
0.465223762030129
0.455275992639033
0.461469427201096
0.458588529428787
0.462243619261745
0.460829408685509
0.472693769817232
0.457943795649535
0.462302148064237
0.470500727933589
0.480375562683859
0.455240041901762
0.477674270617669
0.473789036294009
0.474981502959453
0.481993800749935
0.492318813287688
0.4934103030628
0.492471575320775
0.478815020712419
0.490516803273589
0.493166601122863
0.502231755945404
0.497808152202154
0.517109608017517
0.504705408883881
0.50759416605643
0.498587989717982
0.506173959600651
0.50075201802026
0.523847497680669
0.525428951012145
0.533065887190368
0.518782932987928
0.540187451714249
0.531094410037199
0.539362851346556
0.541390110856544
0.545365299077654
0.534353379736096
0.543341981864681
0.54354867715121
0.562280895778685
0.560317125186385
0.564929741341157
0.565896256819971
0.585451232547771
0.567330690757096
0.578934639105068
0.57940114348783
0.579113622061962
0.594366157630852
0.59662459637958
0.600772493818247
0.615996976235339
0.606048540299213
0.61994483696435
0.612654822233186
0.629737238163058
0.622777327626965
0.629713331102717
0.627084385574423
0.64280029164265
0.63086222831339
0.656412325951869
0.649276181367992
0.653641402727249
0.642922929559314
0.661962875772255
0.640268463594533
0.648742415166589
0.636106989952333
0.64094987952272
0.640621677021903
0.642070758733588
0.652857528770254
0.662730145684695
0.650455953971764
0.647708431105761
0.622481841171599
0.633885047980254
0.631223929343642
0.641254914572466
0.634399816883384
0.642702842551166
0.624774711138872
0.645005203415559
0.6393405244428
0.639760458730807
0.617737545605513
0.6328422246629
0.638880652723516
0.634919217922312
0.625101951556483
0.637272332699854
0.622753847755968
0.631624920170868
0.626641892308261
0.627423742844844
0.633390397192679
0.641135521544077
0.632966896203276
0.640532898966839
0.624094541433238
0.633840917414984
0.634081010560097
0.632878260498032
0.627773091289446
0.634446343792535
0.626771359111795
0.641129077970254
0.620467484191107
0.632306834389465
0.626806257509167
0.645140218670246
0.619037088694842
0.628466730692028
0.628112299949379
0.621451990791395
0.606603566425665
0.619577007570817
0.60869335890715
0.61494443406766
0.615112804098711
0.619711699247149
0.612030852997054
0.602593098701907
0.58979698827633
0.602741325435451
0.585785709785531
0.585263686813401
0.578082411808762
0.580703622835218
0.573333654778668
0.57833990120381
0.574981305696381
0.559899774861027
0.551212349936995
0.555599102037423
0.544950877169151
0.542377012927296
0.531285023021893
0.544633318137141
0.529688342338314
0.533139281536243
0.533763353054873
0.525876570360957
0.515340280529789
0.524693355223565
0.522223094748309
0.516620230170969
0.501329901567413
0.503566754258335
0.493186228454791
0.490416448950017
0.4847003001033
0.48662575319161
0.491183494353383
0.484798124713655
0.478044735643942
0.479912800846056
0.47361674304432
0.471568849291333
0.46144774606232
0.464697576102808
0.456476383713505
0.462751857818865
0.464285321736168
0.457645502788639
0.442195769968551
0.447547670955295
0.444044231608173
0.448866281033778
0.440008691551219
0.443978728039952
0.43903163839476
0.438330092940717
0.432055246386735
0.434346737518759
0.432751992675418
0.433978116153261
0.420977736341287
0.42024747463164
0.420750510642657
0.420332306665479
0.419101270313596
0.420656771437265
0.41308646164648
0.417123013222863
0.411769742113685
0.41080522993001
0.407958929310845
0.413173923118162
0.404005732779356
0.409093130838913
0.403552582103949
0.402109122884204
0.402058133803415
0.397396719639509
0.392032083306542
0.396493437804475
0.387704011774019
0.390406286755895
0.388258715402549
0.39001465007826
0.387548647565868
0.391443411432299
0.385142062009612
0.385951977756954
0.381227597486946
0.385110335920979
0.379655114644542
0.376582522582531
0.375931915531164
0.380043830592577
0.374039958971297
0.376881598718848
0.371434985749457
0.373626367410328
0.373026089808843
0.371369911968134
0.370143042090907
0.37271407721716
0.360885687970054
0.366856664789585
0.364437894935601
0.364409749036109
0.360446054166244
0.360721505343579
0.359861382881528
0.36301172499985
0.363618260038497
0.358948613728873
0.351883135303942
0.359601046740711
0.358334305251319
0.359427184490121
0.353691055159601
0.352102642367569
0.348808163503182
0.35060166238997
0.353250953322986
0.354390956044159
0.347091041845504
0.348393440089167
0.349361769827977
0.346727803820032
0.344916690818514
0.347419942965362
0.345042302025408
0.34760773875697
0.346021050814021
0.341339035438187
0.340932023876735
0.347898981624009
0.339497549526031
0.343639313686612
0.340680964132798
0.337086550482409
0.339043075678094
0.341393881790001
0.335990349387065
0.337697534893084
0.337025452183024
0.338524390543201
0.335069445860397
0.335695661637449
0.335931462240957
0.334481071485867
0.336687786245653
0.336626616897288
0.334649413935956
0.33376487304104
0.330099338176568
0.333315353627348
0.333830700065383
0.333033375826746
0.327846257884277
0.331579120528257
0.332609953302433
0.332022290357143
0.325931861009036
0.328178803395343
0.33162518970294
0.328762871493206
0.329664180395704
0.331218288535969
0.32744676893352
0.331628070480267
0.328895099287316
0.322051576628528
0.32312314191965
0.325379824570127
0.321266004140968
0.323062717506577
0.317055996622019
0.319828859417287
0.319915988481639
0.32032693341529
0.316980339591327
0.313539854389184
0.316083173563108
0.31905506266759
0.315012216850723
0.316166761618422
0.314054303215294
0.315735041730798
0.3133585294182
0.317739638641573
0.313539589941529
0.31216033251488
0.312532151076816
0.30632960974396
0.30622512283899
0.312470894511101
0.310889444826837
0.308037313205174
0.309583395042869
0.307637849043246
0.302625948797213
0.306379130881769
0.305827260998253
0.308017481795864
0.306894262051698
0.305044689481789
0.301684421107067
0.298266193277478
0.301296325282097
0.301047157403323
0.301735452770981
0.299673120349456
0.30152080656162
0.302179276582524
0.294218330592953
0.294522754706792
0.297488606494548
0.302873661358197
0.29553875805576
0.291565884379689
0.297078155711579
0.292970505999396
0.291037456268644
0.295741646039822
0.291737929422459
0.287244492810368
0.288710148928138
0.289138079450709
0.284513760241139
0.288841973478178
0.287740833598938
0.28763905503005
0.288773618099601
0.280665288507736
0.278432369523004
0.280021586984852
0.279381883925028
0.277970344384605
0.275718132854626
0.279708078403521
0.275678588285058
0.27464488450593
0.275461669656781
0.271070792454913
0.269495428352259
0.276959037819852
0.274680219811139
0.273368603074099
0.273958307816086
0.270376159762263
0.271408783599089
0.269223277738759
0.266574882332605
0.264335033842222
0.268034028962373
0.268886035604031
0.261182091086758
0.264526296841663
0.26518732376488
0.261512219304461
0.261425287495777
0.263474023364427
0.257955960752439
0.253077434018587
0.25353060499789
0.260159404945809
0.255949978044436
0.255085712454214
0.255790282210739
0.252798507190035
0.250743049199242
0.251589363752856
0.249716618142913
0.247051299620823
0.246555700888396
0.249078132432305
0.252400191416888
0.245319634957087
0.247027873346659
0.247305314725169
0.24806475721722
0.248770835366796
0.245480545928624
0.24382036979322
0.242366612139154
0.238405067135045
0.241388572246931
0.24602199456607
0.239151358239919
0.237864403400477
0.237250606267191
0.239980766601837
0.239555298611717
0.240661906506391
0.23685148359663
0.234552734424868
0.23457300151942
0.233769871601179
0.231127557816388
0.234903512347615
0.234279511255463
0.227740316416656
0.229419156223688
0.230613108932693
0.230381579984711
0.225660375058386
0.23010015474426
0.226946244494246
0.227900426707049
0.228998195049397
0.227663094266029
0.224409922723478
0.225619269289198
0.225441590373995
0.227398339099019
0.223863698857014
0.223035281255958
0.226509408007986
0.223876134178703
0.223303198724514
0.222249687992221
0.223263850005326
0.222593956549376
0.219532134819465
0.220819036542266
0.220191009889329
0.218477869827731
0.220570376708477
0.214932361003472
0.214916751353394
0.222539950784632
0.218238014030194
0.219797333817764
0.217391662092491
0.216528889647488
0.217447150582746
0.2161099823705
0.216402250477751
0.217706744221275
0.215571629197362
0.211875023435549
0.212049988210721
0.215060215685282
0.20984607752494
0.210533153569392
0.209194479585308
0.212436364894901
0.212041934531226
0.214828125593117
0.210158785825995
0.211781307553256
0.211979128005107
0.213239378519091
0.21555584110036
0.213555812263919
0.21020398446128
0.208161423570468
0.209185265784847
0.209128834858649
0.205529871450827
0.208961104436266
0.207640792127976
0.206228929853657
0.20415211226891
0.20569242703061
0.202025850368101
0.206862503250253
0.207248127076379
0.204302867196372
0.199719012490519
0.201394977196439
0.201880821078992
0.203477367926867
0.206725070504492
0.204114635051815
0.204709195253351
0.203226566019229
0.202743445018582
0.197313138459126
0.200409999340557
0.199562210123406
0.198799349486305
0.199809381588717
0.198588027212295
0.203323208233147
0.193201524299029
0.196520084509931
0.199791704804911
0.196280393191494
0.196395535380316
0.194078956362442
0.198658330455649
0.198135979139769
0.197620414024778
0.197356321621965
0.191914357709013
0.194743969973768
0.195914543384836
0.197909916581562
0.192762559305852
0.194201287846731
0.193664300547037
0.193920487709315
0.196114944156388
0.192814033499946
0.195774579194201
0.190607851628673
0.191903371779688
0.196150321539285
0.189201003589966
0.190133135974781
0.189025967506396
0.194229497113932
0.189292395887349
0.191189064699437
0.185832736580512
0.191800549293495
0.186238591296323
0.191144944312658
0.188071225715623
0.186586570047544
0.186067533521277
0.185370514141085
0.182807106655815
0.186053818647387
0.184939185758799
0.185722703971389
0.186045706024022
0.182649196574027
0.181423401589216
0.18164896894921
0.182516215144574
0.179297130293081
0.180453050393106
0.180382583520148
0.177184649838675
0.182611007519925
0.17390021166235
0.178678572721157
0.177007934501353
0.17669600182459
0.174511084692231
0.176872134960752
0.174906347919038
0.17567484421249
0.175705291902336
0.174251176872982
0.166545790398421
0.174764476286565
0.173789585619419
0.17344303312032
0.169427589329187
0.173684837725534
0.174630294253178
0.167199484516729
0.167000212381747
0.172012395517096
0.169169033169848
0.16664489992822
0.167128877299737
0.168082396132044
0.167180940416582
0.164496164851828
0.162971720884726
0.171007079737864
0.161430615033357
0.163041186036649
0.159679397244809
0.161628513537983
0.163020226747598
0.163747576756372
0.15723136656885
0.159324486895767
0.159514119172638
0.158174326194832
0.159654845595542
0.161759361792884
0.156843182208253
0.15563562734354
0.156176927897198
0.16029273747578
0.155523432187727
0.158182760715303
0.15228438865417
0.153101773976103
0.152083081004407
0.153958924322524
0.15415307675803
0.151396836845518
0.152611968142192
0.156056690696716
0.150725428078049
0.152506504793352
0.146819887821531
0.150079031946494
0.149704669101553
0.150520839608682
0.143779323162852
0.146966827889422
0.146036970297722
0.146952968097124
0.145338297895751
0.147743447483416
0.14373433805486
0.146131454903154
0.141813363486583
0.143175418701363
0.143215852890107
0.140408229684156
0.140126648657353
0.143456977954651
0.143988355622907
0.143111709793736
0.139470012206468
0.140385654553836
0.138947990678959
0.142223093208219
0.140541634357976
0.14135348711626
0.138789435069736
0.141903300033588
0.138659415027825
0.138721171102132
0.136996217413741
0.138746275230438
0.134175186151128
0.13623033056788
0.131899988085162
0.139223539702814
0.134993049976374
0.13596295254956
0.135320741240189
0.136764301182669
0.134753812006708
0.13367440642497
0.131219685404543
0.13428382056112
0.131270049882656
0.138230919877273
0.130105305758311
0.132705480585431
0.126350942398373
0.136540497051631
0.127193019016527
0.136785565753763
0.127300655730783
0.137675069483369
0.129338145036313
0.132475835973594
0.12426216579949
0.129726757137961
0.122316547117676
0.137171537899992
0.121954006976021
0.130690485275463
0.124712042686768
0.133720488410711
0.11416725237111
0.13174103069516
0.117231755795275
0.128816865617119
0.118952684358194
0.127582013499385
0.118857758740975
0.126731654421017
0.122081236266854
0.129049660363721
0.114019909658273
0.128911888702372
0.119429460952126
0.128147944795951
0.115795773217045
0.13019538498639
0.113516986745723
0.127416661991155
0.113972522579245
0.130237902144422
0.111975819174341
0.121419685446695
0.109273621632748
0.122773536348967
0.11152075367625
0.131202217021669
0.1157914214608
0.131639465089514
0.111491139349599
0.125143250268617
0.109127668862414
0.120348387624376
0.11460727931426
0.128270678346714
0.117252843057253
0.119588479899593
0.114203747613997
0.116192193957506
0.122415545209124
0.117396733170839
0.126395262976401
0.107925541699682
0.132639516756253
0.1049849203804
0.139580967029695
0.0911960130487052
0.140780826151817
0.0953578499125308
0.136998013130646
0.0950828317179731
0.134233698255494
0.0964389508194967
0.127026029409069
0.110861509450419
0.120728309604
0.112109189539198
0.118012985016634
0.120918307841676
0.113055546842211
0.11694354075716
0.117152106415116
0.114434158744701
0.11776181840306
0.11095270326296
0.117888731450701
0.112538725417587
0.117664062444001
0.10714174957875
0.11981504220904
0.114219016701202
0.116442624315045
0.116322047213103
0.114933241233761
0.112093013618053
0.114373671871846
0.115274361915858
0.117859570587595
0.111372368332306
0.116757697036452
0.11488864797884
0.115716800213924
0.110966045051941
0.112190560664288
0.110977202943059
0.114513762639081
0.111799745181443
0.114318475182266
0.110741050618759
0.115380923929247
0.112833121545573
0.115726669022241
0.110747246292475
0.115596049387191
0.111239298623367
0.117322216283196
0.113607416262465
0.112504207670381
0.112177666727326
0.115058603667352
0.111654092119112
0.116389151537925
0.111257423048615
0.112831139735462
0.11139245729102
0.11408615104511
0.111966168074808
0.112191865275517
0.11123060489139
0.112123172602977
0.110875274525608
0.114260836016684
0.112197701409901
0.114973333385489
0.109742058619058
0.115996604425496
0.109674328885206
0.115274969660482
0.111545744651344
0.112469055566044
0.114296764141093
0.111042557153744
0.109876546338645
0.112505124675495
0.113186793887616
0.112629635826968
0.111439976881105
0.111277287623614
0.1126406041543
0.110742261854425
0.112137720899733
0.112697854128538
0.111591359055496
0.111611646637935
0.110904258488222
0.113149974869619
0.114918659838871
0.115637999829878
0.112920660129386
0.112995702756647
0.113471904292089
0.113771514994446
0.110365413786895
0.109318256752517
0.111673783887844
0.110064213499996
0.109646449034724
0.116466613810691
0.113149564716072
0.113528074689641
0.112204068305209
0.114000103745107
0.115340708777486
0.11235326904226
0.113555923188513
0.113499715358109
0.114807561833398
0.114190395359315
0.111724510657903
0.113163781643834
0.115152593038507
0.114524694378978
0.117322419484617
0.113517503870847
0.115256225019051
0.114998867336789
0.112860744744165
0.116120589520579
0.115603639226937
0.116020220760845
0.115109938935214
0.115844188695993
0.112664592679927
0.114829311154712
0.117329192517831
0.114129968775162
0.113254043790475
0.116181600627448
0.11539697460565
0.115610432211024
0.114636227020221
0.115957830199475
0.115292456931199
0.115823132285028
0.116700046970769
0.116900764351097
0.116840307394697
0.116347618602685
0.116848682408259
0.116390701264105
0.116232960310138
0.118626144724403
0.118555354332918
0.118674337766791
0.115842073156133
0.118631547293598
0.118028610646108
0.116790081184692
0.119711097635803
0.117189419513993
0.117782333651066
0.11605167964647
0.120291281590258
0.118188057367727
0.117174834982165
0.116856507720694
0.119545643564152
0.116576166729212
0.119208132479135
0.117499075014503
0.120095257028981
0.118447979265083
0.120630156438577
0.121352373135607
0.123102792843609
0.120865038876055
0.118751033623638
0.119327832189797
0.120356545338098
0.120231834982802
0.120643808497549
0.121875884019971
0.119396067596665
0.122399048211498
0.121299794543633
0.122467615648064
0.121854168865883
0.122222141547996
0.123746495524773
0.117362742797609
0.120534169308575
0.119952850013921
0.1186989481023
0.119173382840873
0.119628725539989
0.119391050889155
0.118865116090531
0.118425041030989
0.118249862379881
0.118200185596121
0.118910041372886
0.121685458467295
0.117888864274767
0.115313424541722
0.116801688875051
0.117186209678642
0.117498638876204
0.117733308988339
0.11760582294777
0.113149139392916
0.117772726442189
0.116142446334864
0.117806981429793
0.115739699546575
0.116423101886307
0.117812031224671
0.116994044150035
0.112447362118746
0.116196306956726
0.113822921706
0.115427154439907
0.114858996466332
0.116213554031959
0.113796219588784
0.116111022086018
0.116111054786769
0.11572113188034
0.114499034696889
0.113983246126776
0.113813865727892
0.113116908359745
0.112475142911731
0.113791264752076
0.113806085471714
0.11462347466907
0.114237550865084
0.114685360101208
0.112054001403377
0.113046672046492
0.11285053667575
0.112571370592598
0.111510542796071
0.111525571274302
0.112140669679974
0.112215264447915
0.110771990465482
0.113545400784356
0.107787882886984
0.109363443841393
0.109880027348092
0.112324299927801
0.112828458558982
0.108824929839952
0.108070234358236
0.111136404960619
0.108681860197247
0.11122753130691
0.109110239509803
0.111046111137783
0.108175602779565
0.108613673782046
0.111714801071227
0.106813620133431
0.108829978111537
0.109825829861189
0.109359369798154
0.110715731041648
0.10687393488923
0.108516350347748
0.106904190473533
0.107778190614316
0.107079841047776
0.108893797785921
0.107671043613323
0.108646530851388
0.106969470418818
0.10759942207716
0.105631067392113
0.111330302043548
0.10729562487181
0.106793742371677
0.106062789315966
0.105996183938914
0.107223924683625
0.108320874862271
0.107505445698355
0.106735141118281
0.104852090734011
0.106687556524774
0.106120966585352
0.105557834645816
0.10623698843833
0.105070922732763
0.105751384531402
0.106590282143339
0.10667242367451
0.105820918316164
0.10556715484091
0.102660463298005
0.104055834488147
0.10602336705009
0.10406154126873
0.102800567264351
0.104165509688843
0.10407412658673
0.104456421560743
0.104637674836422
0.099434500751844
0.102734698492005
0.103084284092732
0.102033354580192
0.100510943999772
0.0993183316056548
0.101240062532128
0.101473267115274
0.100904180153283
0.0980189131532496
0.0996587775850536
0.0982337179135076
0.0996419553938629
0.0993616980469113
0.0945016722030642
0.0978578164842881
0.0981285094835957
0.0937694681166761
0.0949336414035411
0.0961910872441557
0.0975502222290705
0.0969994214395732
0.0945216990494485
0.0972432359926903
0.0928564902398581
0.0951189635111716
0.0929958341470968
0.0918170695952397
0.0942879805463136
0.0935457469109345
0.0913767425240081
0.0929090604166603
0.0918329773597147
0.0908336853879164
0.0879054527270706
0.089700286645721
0.087010795282614
0.0886938429238987
0.0894733823390912
0.0913908487045236
0.08767117299737
0.0896776796031564
0.0872629109207222
0.0881668299442175
0.0839783205085692
0.0882942382644934
0.086198400901591
0.0904935193349489
0.086421729095461
0.0872525100126439
0.0872576221619699
0.0854088347059571
0.0874372429865996
0.0864733019356575
0.0842925618654865
0.083910015012353
0.0857262862335824
0.084265452194184
0.0864218630121778
0.0849969224910034
0.0856158244475706
0.083688853346621
0.0840996419487352
0.0854392993900762
0.0834998285665906
0.0853459229027305
0.0851246124377372
0.0836865810110397
0.0827359950648025
0.0866105185651797
0.0834786641914882
0.0816964990692316
0.083293112815701
0.081381337252401
0.0828702140732953
0.0833735088665884
0.085239795938378
0.0817252556051142
0.0837003534959495
0.0811234861919411
0.0811490550526739
0.0792830344893018
0.0828685006608306
0.0831889339879327
0.0824763008206137
0.0824905977003203
0.0816837486481915
0.0817902585917272
0.0824272672705529
0.0824451570809733
0.0810042567970135
0.0799494101700446
0.0817835021914096
0.0782899632890278
0.0828092667747044
0.0796491354180422
0.080682920616011
0.0794723568162278
0.0819726268578625
0.0798804247482878
0.0791272431148167
0.079486677593146
0.0799832776452644
0.087217314836534
0.0745846782702981
0.0820579741455543
0.0771204091672057
0.080344555467018
0.0774969227747185
0.0802282803506758
0.0789904289709902
0.0781069139626409
0.0755547447256377
0.0779946153985132
0.075230665288462
0.077734944535296
0.0757431548954992
0.0809419196343486
0.0753156298201535
0.0791604075336456
0.0752474454172634
0.0793552476003274
0.0757123067370775
0.0789259478123799
0.080137134107954
0.0790520341280244
0.0742348651377528
0.0799923392735759
0.0732563208666751
0.0851853810536683
0.0725965257808329
0.0776711903217293
0.074486750657933
0.0769764451537153
0.0750729401778215
0.0774770210940941
0.0755823772501193
0.0775672390159802
0.0811328334722465
0.0754292121148759
0.0792780216589874
0.0741711062025123
0.0755475879190694
0.0755848171732307
0.0767343209026291
0.0752734153636203
0.0754265442575412
0.0763304187368705
0.0741906112697109
0.0766373935310214
0.0744752404188258
0.0780974504971866
0.0768284711054372
0.076375537994508
0.0755833664880876
0.0750920799150234
0.0757085711113931
0.0746118509128296
0.0757481275757211
0.0773217403060699
0.0810208956899209
0.0705923714151352
0.0788135972692697
0.0725562364678236
0.0774619171767647
0.0755616598280542
0.0764671863331338
0.075865250402869
0.0764664812513974
0.0749409061819776
0.0771450985629132
0.076099235979298
0.0745449421106304
0.0746141177944599
0.0751003629068691
0.0751211562120438
0.0722093005734017
0.0741686544235765
0.0720961492269275
0.0780617522284804
0.0754222537107516
0.084670739349205
0.0810343076410952
0.0742592567082071
0.0785323716250655
0.0729450477035869
0.0748027463212391
0.0730584412149714
0.0774848871926356
0.0731496243143942
0.0750159203749052
0.0730621898994174
0.0766796883422091
0.0724604026417337
0.0775917207103394
0.073177984803796
0.0755641952868821
0.0722012336547476
0.075794555349772
0.0716641377624936
0.0803034452556539
0.0739761366136669
0.0783136046598983
0.073706815819605
0.0840248131829414
0.07573071434232
0.0777861262850494
0.073148527357402
0.082138152547199
0.0788767724278971
0.0728053920484195
0.0822831022373511
0.0706712505048905
0.0790070160556554
0.0744466816691668
0.0771260905930559
0.0799211595344007
0.0781229633647838
0.0771432616424737
0.0787638191203305
0.0745918045160457
0.0772412328988601
0.0748865020022055
0.0801067604331251
0.0840921960118191
0.0770686300884211
0.0800762884056502
0.0810460472945645
0.0749623564860642
0.0880657110313103
0.0728680586526536
0.0838169145528156
0.078939734165013
0.0778342399259782
0.0788881481881264
0.0804584564570689
0.0810135983574338
0.0829486475325136
0.081250482393226
0.0770041852635779
0.079198335929302
0.0779741484225003
0.0808644694327943
0.0815839535960877
0.0814816781089306
0.0838389886875672
0.0812517946749163
0.0842070070643129
0.0832240912853795
0.0815861440596822
0.0822418658453151
0.0818893875050609
0.0843504164227021
0.0836018542162305
0.0882658392046487
0.084764395675861
0.0877806397509781
0.0860340312869246
0.0835853073238825
0.0870590026285101
0.0832761649631846
0.0851327656802312
0.0880330243032706
0.0815647472041387
0.100853785370938
0.0789957118355417
0.0985966107342301
0.0810729957010393
0.092299193411862
0.0827546588960452
0.0944709866373263
0.083344313828966
0.0927983395564323
0.0859683130853971
0.0896952633635765
0.0913065471442536
0.0878781078351879
0.0928912201939806
0.0876023567412577
0.0919434570076954
0.0909003629620223
0.0918406151344701
0.0888113277484712
0.0968601415759998
0.0887827709056247
0.112585642339531
0.0948497698442576
0.0921716871519414
0.0976448127446476
0.0926250947670788
0.106935540074842
0.0921143164433849
0.0988196672174671
0.0989200812943214
0.0948137670803677
0.100448999272588
0.094682629838938
0.109220593667971
0.101221015703651
0.0968513736995005
0.101902265852466
0.0986034715030265
0.110111389845912
0.103778593812213
0.103633136299192
0.10265990865684
0.106548353570479
0.10758234739174
0.110878729993335
0.115572424317378
0.100670437426387
0.129113976118546
0.107498260422936
0.122726986124406
0.111080105851245
0.122340509483958
0.11490686977729
0.124013863097188
0.113522948526887
0.126948597605152
0.118961078060423
0.13490982930089
0.117042327481438
0.13083612683486
0.12620821834438
0.13443022899366
0.141921956395173
0.148599316809871
0.131987838050123
0.141984598095565
0.135475735844601
0.147901530431035
0.140964401859587
0.144994281710494
0.144562466964114
0.146681366064895
0.149853848931343
0.151497704327104
0.152214328173897
0.15402525323126
0.15206860032429
0.161798934826776
0.158188130592658
0.18288132915324
0.161949585824375
0.176590869192608
0.161653093634183
0.172121247563752
0.166263810213532
0.168087059784532
0.170972775695768
0.172402756532178
0.17882539187193
0.17619307782093
0.178797521525396
0.182074346746346
0.183757728499626
0.193319652978789
0.180858845763492
0.206290540116934
0.185435812625021
0.20782580214053
0.189228234158047
0.242030197650345
0.215237600515728
0.212555095737714
0.23361500279342
0.222677242038673
0.257099754606899
0.23693889802265
0.247799999146963
0.2568691760694
0.260212657907811
0.264644556724552
0.276835854842572
0.279127096340926
0.291672077785139
0.29565031297111
0.300786348601227
0.309049666668173
0.343311996285372
0.335737495704612
0.34854334388907
0.342224202276219
0.359415275819086
0.368369364434083
0.370876020795751
0.371336734394318
0.395339434557737
0.384982868279992
0.441402509190958
0.404955769663226
0.426157794515442
0.433202075534318
0.453884472449904
0.448703710130596
0.453587383437387
0.483902967210392
0.465350070223226
0.492677365509764
0.489560418610634
0.514255810805593
0.508376042126475
0.53809335313088
0.537117939381161
0.53648314698857
0.551125117139755
0.551001549113838
0.558347216125773
0.566683111451095
0.571884839076838
0.567532108745167
0.585429326669758
0.613034342057922
0.637693773643688
0.600007338404286
0.578959048486234
0.597692422517446
0.575366815811897
0.614126113910091
0.592841591446194
0.601308124052156
0.608075519443452
0.590728825460141
0.607320412198714
0.606595271804851
0.606463439490457
0.598248442726258
0.610281893480328
0.620139996861139
0.614487293319511
0.618240651475579
0.578406856678186
0.656508645240644
0.602888239976121
0.607092162814225
0.595950622229012
0.603266421822439
0.593497042669717
0.59554376523914
0.585253087728007
0.613613028578369
0.588686758585026
0.58368912125984
0.573526893497513
0.575255623779078
0.584956973912459
0.562765813614075
0.556026979341137
0.551885186713788
0.540394159844191
0.53645134647567
0.524221732156876
0.543717594253901
0.520455118876187
0.514257448771734
0.50155128525599
0.498477143943259
0.498966340448069
0.491159088699573
0.483762181960993
0.490207721136323
0.479111230688244
0.474247436148317
0.469274437698964
0.470092381628658
0.467029158586731
0.45953112310108
0.458323862887716
0.453743270564562
0.452176779502089
0.44498039935633
0.449039497757613
0.446558335633617
0.445430061282764
0.444112194016631
0.443606965601655
0.445126936337215
0.439741861216486
0.435175844955019
0.439387594305059
0.432468154823189
0.43284398777712
0.431164733654457
0.432944025181814
0.428130889273515
0.428249800052303
0.426833881539942
0.423313840184933
0.419897019623881
0.428653407388106
0.42098742472463
0.416370719520219
0.415414804388851
0.422604073908296
0.419421690774618
0.41286092723387
0.43131736291552
0.404654619066535
0.421412440963847
0.409601634557027
0.410806733253477
0.405231395969888
0.415534730489438
0.419129344051515
0.402029977461835
0.404083592875915
0.407051816623016
0.398983382182107
0.407701858363598
0.396659425849017
0.392983044740558
0.409937874864861
0.401221500697136
0.448166089095516
0.405869359600523
0.428210550043013
0.389366995025533
0.39669526966845
0.390814287849108
0.404722076267242
0.391078098149554
0.395310501402026
0.40337551166209
0.3864482893473
0.401700344535731
0.389031300766969
0.393819292518259
0.390571530314258
0.395914850292283
0.402064681265857
0.396825479864348
0.39354791539989
0.406854845159806
0.394385927823745
0.387794991428403
0.41238937303661
0.386400468127052
0.375227388810922
0.366321529017891
0.368432611575049
0.368317940776665
0.376817435248452
0.377610916025342
0.363459029505451
0.365136162151143
0.349700380129487
0.365982971195032
0.357000441457644
0.35819086106977
0.354448183422219
0.34808035323573
0.348399628262511
0.3408528021687
0.359853099604126
0.335491638286072
0.354910303850627
0.338666298534957
0.343632049357366
0.338458102306374
0.354438644466164
0.336107411649989
0.328182092737098
0.328519506781038
0.32602149945907
0.322714628631397
0.320854993601878
0.313972595176874
0.3301319672755
0.317006253998113
0.339713628848649
0.335506165544907
0.309265559899623
0.30087592414396
0.300535312717007
0.300967457385095
0.306445347802902
0.297150627896344
0.306132772694492
0.290881552904358
0.316755322492813
0.299629172777128
0.31260574437002
0.311296637746095
0.307115245653203
0.307018334369278
0.312586023208726
0.312712694336699
0.331235317931984
0.312075403188417
0.331118627757853
0.317495673041537
0.331282185983738
0.33195880990573
0.337799646074281
0.336272644019011
0.342183838915079
0.346524947544966
0.355552752524714
0.361444659258959
0.365531021853024
0.370690206489293
0.389249928432613
0.384598694283119
0.406181807386355
0.409635940969386
0.407766986805561
0.440183386329444
0.420628623296991
0.449549256935254
0.443238931805338
0.453688655359189
0.459366662018667
0.469389910252743
0.481550714487542
0.480275621267358
0.492936429177306
0.495921824336462
0.494360773575391
0.51136899440383
0.511618796239718
0.523724137825675
0.527956300570461
0.553803250485672
0.515463954560784
0.560725932193672
0.552449569594636
0.54509802767506
0.553368620587139
0.555200471619206
0.561475028768219
0.55051019060375
0.559130604028725
0.560337325886961
0.577518501434547
0.572762895833052
0.574123000726373
0.583093761236991
0.576979476185361
0.578587923079038
0.58186900789353
0.584623423374012
0.59235532168567
0.589659999490355
0.594738640263096
0.600237071469925
0.61647680661437
0.624701327792563
0.59759288646643
0.615445926722208
0.621412861479594
0.621642208962943
0.624928687670777
0.629643306733018
0.635374074089231
0.63328691035291
0.637843220402408
0.636816342055822
0.646428590142867
0.66302473826795
0.66310548294184
0.661374423325709
0.663150121499027
0.678504082086674
0.673171174025145
0.68906975208549
0.674287244408457
0.674931842879557
0.690772793954993
0.684874345253809
0.688337036697363
0.687182308981196
0.694432596377917
0.691172150528502
0.696622728986279
0.683471901788128
0.690153801796103
0.691636875085942
0.68192775936802
0.691728288795267
0.700178073485155
0.695543437745789
0.683986574718678
0.686147139068848
0.684095923606613
0.690307236530236
0.694129872534923
0.689064686766044
0.684650756768568
0.680585734491594
0.680815369913622
0.688918516106155
0.677426118207249
0.672636042005681
0.677174501850574
0.671076595442069
0.671065335407413
0.677175180587359
0.671615096617649
0.687225005650861
0.696103893998985
0.68901538516027
0.697876322470503
0.691577743478726
0.705323823502636
0.705128715133794
0.708279004481983
0.716528496649795
0.725555150693469
0.717225935823868
0.714770064065379
0.713892676254225
0.723004785208658
0.730148121065734
0.736661462908841
0.729477691087008
0.718961367006726
0.72680133552562
0.72750280365884
0.72576884829495
0.728262356471026
0.714710007661772
0.721228710242678
0.715485374776179
0.71272673801009
0.703174935254348
0.704218352602096
0.695883783898188
0.701532269319406
0.690737056177302
0.690278930026842
0.685736246651119
0.686398715623566
0.678644848735625
0.684328247817227
0.673408673647041
0.670995307037136
0.664756826629844
0.667342148869909
0.664161557459341
0.666689702005045
0.664165690661612
0.664723066326687
0.658334120840571
0.652805159897878
0.658598200838309
0.656212650415156
0.651491981398184
0.664669219618914
0.652676955071879
0.666209767899377
0.651698107597315
0.653607491322132
0.649337997564204
0.659700690692561
0.656467218305344
0.65348679983939
0.651558625998388
0.651354327313638
0.652260393743362
0.645498431878125
0.649412211373807
0.65177155521213
0.655855943215068
0.642907287387592
0.645505929346002
0.642941418009084
0.647369382180739
0.640675245458391
0.649395012073205
0.638059266021361
0.635735648762503
0.632709861200505
0.638139932448675
0.641377280892528
0.635706523415624
0.634202728372486
0.634062085246164
0.637396873948899
0.638624748266561
0.634030176316297
0.624754604072082
0.630804057803251
0.634471123644318
0.631570656313597
0.632548981413212
0.628920198774997
0.629445140593246
0.627845543405165
0.62083587359793
0.621245567338005
0.616462386585232
0.612253007886064
0.608843871718815
0.609950101887131
0.600758192362953
0.599659317161162
0.595885080897222
0.586683669129051
0.586607793737294
0.58199249477505
0.571597069708066
0.571579867088765
0.566325788651891
0.566191618550529
0.565018384046778
0.561363827634885
0.557771322693629
0.555775152906684
0.555810111232299
0.556642477487965
0.555228329844066
0.552630659055014
0.55159917957877
0.554774878327455
0.550334684697466
0.550524363540009
0.545166857652065
0.547459076580415
0.551441915205279
0.552252466019687
0.552036335746963
0.560515443775279
0.557661230199516
0.557591667048126
0.561001054312689
0.566205009384664
0.565521227884813
0.570174233537552
0.565397930603505
0.57145997037151
0.578904125415397
0.578200799134897
0.575300720196632
0.574436757257694
0.57799280218761
0.579270374400908
0.578453650302616
0.582363803909995
0.580193594926229
0.581747304580718
0.580248698756845
0.582010572098072
0.58074508749776
0.58172973317746
0.579772079306627
0.58316678456332
0.577447438816866
0.576013009866945
0.577033340875807
0.576466095149114
0.577304294683896
0.571491231040868
0.575438290553294
0.567911208381415
0.56880416799587
0.565112573567537
0.571343299679285
0.567452212517514
0.565890902250299
0.564998399725665
0.56273287790088
0.560552267809383
0.558514567230532
0.557663828222006
0.558047055017336
0.550004978286515
0.550235045486551
0.546243001621964
0.545152794728941
0.546692122272248
0.541270352495248
0.545201689351781
0.541390017054297
0.535685817984191
0.533062549882846
0.530918224289469
0.528321527777875
0.524500275201348
0.521749749327407
0.518570860389908
0.51392689720493
0.518909825959278
0.508658588126837
0.508480619596312
0.503825316080856
0.502534942141462
0.497791714045956
0.495481353691723
0.491407475307662
0.493753807266538
0.490305722782656
0.486490525339869
0.48487120831982
0.485398656505833
0.488052365495208
0.485009274793596
0.483511146179887
0.485721192262476
0.479658318909006
0.478473678983232
0.474976345195374
0.471182690842631
0.469008910792665
0.468923594843895
0.465003477925431
0.459676306950431
0.454069885617858
0.445548308881994
0.440965217429443
0.432411973420983
0.429482707865328
0.423003558519249
0.418954288319502
0.421083011003653
0.414371660250177
0.415825119308666
0.418218201076219
0.419338305129173
0.424858818198123
0.430801048615031
0.435101239034031
0.448092011262714
0.455386420866433
0.470611667729969
0.48270910888752
0.49691451903872
0.514506538705282
0.530014589495978
0.544741654194348
0.566207109910148
0.588123715200802
0.60767610037492
0.621546279462597
0.641279175353817
0.664033758557461
0.68669290007855
0.70975380506348
0.733818210292132
0.755530365532118
0.775488021680451
0.802809534380999
0.822776327589245
0.843093288080858
0.863320679373394
0.883100808554742
0.898560586212739
0.924796434431018
0.931866939026484
0.941049234395989
0.965640347900622
0.978864706967279
0.991592963262995
0.989711906522096
0.994549354590991
1.0009449751995
0.999051789847573
1.00863809463793
1.0004346228536
0.996279228552077
0.996290700354527
0.998003439665479
1.00303232151023
0.999205958817864
0.990856228166588
0.989087114761159
0.969440862519586
0.970963001780204
0.987093090632801
0.980154860694121
0.986756932502328
0.985479412201146
0.981327115191985
0.999311227860698
0.989967532423103
1.0007187644396
0.994075943593557
1.01522242389108
1.02285445275615
1.0383759153663
1.06195374525235
1.06422677536767
1.08048980554466
1.09427133627196
1.09795751012627
1.09371175138076
1.12257043754905
1.12975945379284
1.14612094631592
1.14841815816884
1.16114239882952
1.14159879843775
1.15835993968845
1.15982415109848
1.16809952545376
1.16563003344292
1.15967207000081
1.16607004746495
1.14699456734855
1.15958175005264
1.16152763135907
1.16849729303035
1.17250321756746
1.18772107292868
1.20266376506932
1.18963727452749
1.22470382029996
1.22090620322286
1.22306072892567
1.23002289985082
1.26949272538286
1.26660200236237
1.3084581026045
1.26343791819182
1.30455250366049
1.31839775820533
1.33359989405761
1.34912228913632
1.37120200652294
1.34861216248204
1.39589425895492
1.47691126209409
1.45177590145827
1.51652748118307
1.51861814629424
1.53938931334627
1.5706876721133
1.6529512054467
1.6105550472792
1.6178951815964
1.66706975572298
1.74865971046506
1.72154715574848
1.76249393212322
1.82482228737064
1.80102058426472
1.87260765102944
1.75357488219221
1.87813761102613
1.96669927860666
1.84924593918214
1.97797365255612
1.81227777865758
1.84571255506173
1.81377909214091
1.84996188524437
1.72291397607009
1.80568842376238
1.73174340226405
1.79267779835873
1.83822628544718
1.80032951819404
1.77672351033757
1.85540179478503
1.82463726759127
1.9678943978963
1.82595539279758
1.81715547157241
1.94631147853185
2.08062969262039
1.94391415359116
1.96756958029753
1.85233010027288
1.92592004611859
2.17874736757374
2.05811421120486
2.04616936581704
2.19675977238453
2.2477141193345
2.00104072163423
2.07576945298862
2.08920271983646
2.22482510649694
2.4156768348454
2.18770298575897
2.50851900647849
2.11658357409895
2.1175840744934
2.14266740574625
2.62113486295839
2.04832237120679
2.11400143955151
2.38978747948664
2.29454402238768
2.35647101607791
2.42883293068415
2.49171513931875
2.28562376578818
2.53709404298474
2.71188970301906
2.24044695032956
2.46167651532219
2.26230387002416
3.21681768045339
5
2.44043929092648
2.68415655863435
2.54564018549567
2.45257083648454
2.33576520736944
2.43698601184454
2.50708889703752
2.21567148628793
2.64356149814081
2.55922435207086
5
2.07114185187779
2.14076521741421
2.12664567409639
2.27815818648287
2.06793768898499
2.04464863368754
2.11632858039707
2.03312000348276
1.89267798937554
2.07066683404189
2.08596433181579
2.04066718978077
1.8681331901653
1.91897329886436
1.93648779356152
1.89827937519817
1.8257634036262
2.00614075811285
1.80444185770066
2.0315360254208
1.88687624077458
1.82525406714856
1.78480911397163
1.7392668314948
1.69555319396729
1.69725821791847
1.64504276097154
1.6511765877504
1.57044800752983
1.5336012935266
1.48449995754897
1.40418362006808
1.36206999223113
1.3096744198503
1.23592386880183
1.20181954632794
1.13984781615233
1.11472988845356
1.05473901850774
1.02922279750892
0.971690946275377
0.929176550230451
0.910451039789099
0.873915962041163
0.839214123918569
0.810015916818748
0.772738888234932
0.763079134118969
0.742702594614803
0.720700880856983
0.706997101176633
0.688802863963209
0.681755444340377
0.677422807590358
0.668159847464062
0.660124643211687
0.653165907443731
0.653144247627385
0.642779286910793
0.642529921565846
0.635142274050152
0.640925349037688
0.646421493432273
0.644618513937797
0.652649628084342
0.652065043797754
0.654615613257596
0.6494310294921
0.663064138948622
0.668837156512275
0.654666797254888
0.66002152237856
0.653540667312315
0.669413696695111
0.657165295934213
0.660842424859091
0.658205857340193
0.65548393603175
0.652464370880696
0.650270343415809
0.655219305791664
0.647594028255531
0.652885262689741
0.653497822629796
0.660703811904012
0.6607877186034
0.66140709345389
0.665197893369547
0.659268343679987
0.669283099437218
0.667367273055956
0.665317572696842
0.663223739479579
0.670937515905027
0.673017957290969
0.683921409356091
0.670332066144269
0.674927431542664
0.66291623078772
0.664893028866185
0.668563759549215
0.660667157920241
0.651741072292761
0.656548036970286
0.661526126546482
0.662108649921509
0.651905212356701
0.658433654182911
0.665004935245782
0.656528279756819
0.671711292864191
0.667735992809996
0.679825488364885
0.696914630536283
0.680963525121023
0.696208230573607
0.714785107018882
0.722575435715966
0.73910156835935
0.751279130864162
0.771282528132012
0.781160322766199
0.797082514374208
0.792599549744522
0.785076149178793
0.779674378318525
0.782111924955531
0.775746480430307
0.749950111100899
0.76257615122076
0.739060183063712
0.732298095903463
0.709103170775298
0.709246105385856
0.706865638261448
0.707615243786652
0.718018579872162
0.715755770087252
0.689664697150593
0.704889645887728
0.692770176971161
0.708837531853931
0.714905697859294
0.727172939115616
0.714015357400044
0.69964270543648
0.692940830471539
0.702288873470567
0.68014713297647
0.684373945311154
0.677694592158212
0.695142705672341
0.683163647253936
0.691017497120281
0.673102110556475
0.674759374373574
0.673651361856664
0.674636455820965
0.683548475735088
0.664539459032072
0.672022894406795
0.676847297596544
0.660527246752891
0.681930136008404
0.65446264734108
0.659529211190149
0.646156584864218
0.659994282389114
0.653632553462589
0.652554270436562
0.643651188767938
0.650735764383377
0.638668111990128
0.645297842271767
0.641307206274829
0.635181027787358
0.615854427078979
0.638746566743244
0.618665901113899
0.631578963507806
0.628146867169591
0.628286789147462
0.616966752120919
0.59884271603741
0.58348706833425
0.619547782472305
0.59838962304673
0.60556227498163
0.590408057649886
0.599103166882444
0.603544598373924
0.589513887486768
0.57501678053752
0.585461192045534
0.566639935174792
0.587692337622851
0.588430182760908
0.591715601360294
0.582807757079638
0.586190700310113
0.5792189032571
0.573214545344814
0.579359136374893
0.583407641821605
0.587463967445376
0.602722529017175
0.605356183085075
0.614796577861603
0.614819055306143
0.60480666454923
0.601524639425179
0.605857904481756
0.590030757981472
0.608323536171877
0.601885005990489
0.607304175498281
0.620848458884945
0.629735527550199
0.628028351232553
0.633824344423706
0.638476626949459
0.656271463366587
0.668446229047015
0.690220275204479
0.667447328637621
0.665378471838517
0.686330970050926
0.711840836606786
0.726910812006724
0.737737213122312
0.771531319436338
0.80264294210687
0.793831385504345
0.793288941413135
0.828705861885292
0.852156069624818
0.834201278723521
0.875036499538656
0.890005313991816
0.953620227761461
0.885277086234793
0.875552820900751
0.907074725803804
0.979590108200858
0.940296774098721
0.952351525342084
0.918068738456575
0.912669307215812
0.904745596832528
0.933281282952241
0.897338352781578
0.953430168244622
0.891100828619614
0.954270179474213
0.902649677581058
0.915510601758681
0.923483020107025
0.953288550459011
0.90242497566145
0.950853046506835
0.926586211468707
0.937649674079481
0.982425172375391
0.938499393306785
0.876169977915026
0.915614294599743
0.901832668692812
0.914414490061222
0.852435488837448
0.911966242309864
0.842014271241914
0.921987275826403
0.882713088212668
0.871392565581847
0.870523501500488
0.926038829939757
0.832115190750603
0.892654847834962
0.921347312509684
0.853549549468486
0.842867752052101
0.853906666726677
0.88560207820708
0.88996028134313
0.866575672778596
0.843967073009898
0.864253439293669
0.884183670151437
0.844191121490608
0.894475191558805
0.898895598839278
0.922253599604576
0.831991736469396
0.958296296050215
0.990449095269023
0.885122230277277
0.814756283418984
0.876896052877894
0.910968448695429
1.0544496746633
0.877005497507841
0.907940532842541
0.921199004199513
0.856210863176932
0.916412251054965
0.972438190280247
0.842548882653855
0.944476977893902
0.954727998010532
0.884310947087258
0.929462356276724
1.08977141090811
1.00494840808934
1.06469232552856
0.930354031181455
1.1150700221323
1.0964171329505
1.09095803646857
1.02527108044009
1.14820753513454
1.00516922828563
1.06213643481904
1.24863510604235
1.68181217749063
1.1268384025383
1.21142184735377
0.988315597436523
1.0390764523081
1.2605595326934
1.31601929601184
1.1205957325174
1.18277951023433
1.18679632311402
1.19594886921131
1.34989485982222
1.19998751062589
0.949332308080006
1.03064629986371
1.06322126546636
1.07903792469732
1.11201381786479
1.24047569770768
0.935703078840496
1.5539988167084
1.84304763490499
1.1440332409177
0.75421258856309
1.01426769825918
1.28407578577589
1.50201160185209
0.889462198517053
1.13856130854053
1.15784448196781
1.04342019712987
1.22978341143142
1.4067407254946
1.12645246085536
1.06992980509706
1.05070432546011
1.37268421999092
1.03854862416013
0.939528978940755
0.883978918289965
0.915963289430095
1.0236194085173
5
5
2.22610011723328
0.818054488055382
1.37366324218928
5
1.55312943120889
1.824517948144
1.36679328880525
0.785119294562029
1.2103492271122
0.862124525436646
0.704890170312401
0.600264466438991
0.564267378559817
0.772643417066499
5
1.1172783793428
5
5
