3596
4000.36533379555
650.420452594757
1
2
2
0.0635199548547676
0.0495943498740466
0.0578947954295674
0.0338597982740162
0.0560450552628617
0.0421696589002559
0.0573717349369392
0.0423263086769393
0.056535357186317
0.038650795131122
0.0507712853560486
0.0484631359641444
0.0546366589091389
0.0400138837983264
0.0525639350896617
0.0414281266383917
0.0508514324450339
0.0426220110289054
0.049175290741889
0.0442204934163621
0.0546216295306991
0.0414492438563393
0.0650459980757745
0.0441756384544656
0.0558405030267248
0.0516831978278724
0.0553541050669848
0.0492504527969642
0.0572243440593036
0.0443326901734407
0.0567180441439173
0.0419536751737662
0.0494850123919295
0.0528811172656792
0.0591472049044083
0.0426034687494259
0.0433004813039564
0.044462758826433
0.0629825533071666
0.0462060120080859
0.0510635824413967
0.0437953413876103
0.0523457824308789
0.0389752421105838
0.0510249278945313
0.0458439696354052
0.0524898174318753
0.0377244290122754
0.0526946034689737
0.0439838947917433
0.0555480148303291
0.0422140175401827
0.0600113601510791
0.054159420914693
0.0393532619431494
0.0330810546550864
0.0473845503635457
0.0397092985681655
0.0522358249532122
0.0514247951671174
0.0520732713339519
0.0367313048878313
0.0455370207482579
0.0467008615950672
0.0543142606527066
0.0439837878760556
0.0499254574995756
0.0516229085761448
0.0444106689314
0.0503487717157022
0.0567913607756952
0.0393543365764059
0.0568819115636807
0.0353769100990234
0.0583499656252349
0.0444143195517494
0.0522558098018681
0.0325695654303599
0.0439133806273767
0.0353626023298137
0.0629320468243245
0.034939214684581
0.0546966858166966
0.0388388835610009
0.0447067692634914
0.0374001661333993
0.0514659559395384
0.0345001096939845
0.0611180229874297
0.0282201186041891
0.0431106495766815
0.0356920935168601
0.0438738935745188
0.0323975991550641
0.0511976171328759
0.0363098824107035
0.0570328846939782
0.0361976573133659
0.0507788338359659
0.0301757029173099
0.0595626338042352
0.0278739601659067
0.0697371144849666
0.0354067737104261
0.0436509882216465
0.0500111839278359
0.0260908877833559
0.0534830416951714
0.046421409662672
0.041252516655065
0.0483491562362919
0.0376083656221443
0.0370058591009296
0.0286504822644129
0.0568894275301758
0.0450305572247842
0.0565024644772388
0.0333231335640446
0.0485718624278039
0.0321520721131142
0.0567604412858094
0.025218607892106
0.0687399115911717
0.0228335254345911
0.0477572127941023
0.0323208627057924
0.0484220397032395
0.0323816996163285
0.0525192434455793
0.0283638878863916
0.04976607317967
0.0337599542361175
0.0543739944925943
0.0253754345220887
0.0691167812226109
0.0320515726247679
0.0468801323784118
0.0456050362593964
0.0457602767029164
0.0270805985995506
0.0368421052362403
0.0331197227977169
0.0517119528635763
0.0363414655862069
0.0652827308831739
0.0235809612309111
0.0500385958671056
0.031701799033718
0.0403758833913896
0.0255814273517322
0.043838976029476
0.0358446310855807
0.0466621048283203
0.0326019775491413
0.0650898042814082
0.0144162236141949
0.0948285426111286
0.021031120379454
0.0649970413144566
0.0275312414258635
0.0347167990468694
0.0292010361680419
0.0380410269576441
0.0414686337951076
0.0365349974353886
0.0379802039791665
0.0433816254255292
0.0487183351566352
0.0483609271430271
0.0475683826942911
0.0499977678395838
0.0394815730541556
0.0499485824695965
0.0194526620113034
0.0457947949321961
0.01532020775627
0.056601229431114
0.0257336555513716
0.0556726170615192
0.0315958748302354
0.04240409567929
0.0354773235904716
0.0468651130597534
0.0338629990350151
0.0501993762524328
0.0224328480973246
0.05107109073961
0.0315193458145192
0.0516484456121027
0.0374829130602634
0.0616362368499467
0.0273329182960632
0.050778576679543
0.0214936056558539
0.0442860594739641
0.0428711048985626
0.0433052256692758
0.044782142612408
0.0386121284580358
0.0337531489950246
0.0399295163051117
0.0357662241280433
0.0455557785683652
0.0330367571375481
0.0490698405115334
0.0306125512510122
0.0385685298729357
0.0384989381514046
0.0419424848466255
0.0340179727278172
0.0474770531714847
0.0416684425247928
0.0279855305570049
0.0491709594169468
0.0428898151845365
0.0420000523158609
0.0404682760643178
0.0418055671182396
0.0421595185370498
0.0307191406820103
0.0469310225592292
0.0418718386961524
0.0462467690079625
0.0345732721246871
0.038955477445339
0.036524902386176
0.0453792489219359
0.0415470491354281
0.0468348321789431
0.0419585558056641
0.0494493312147344
0.0474939266013636
0.0514394526672169
0.0380049923325796
0.0570023774387863
0.0460081419928451
0.0572516908395056
0.0406759941343946
0.0493846803037412
0.0339620953590559
0.0444190620572424
0.0372609035627195
0.0494400219963319
0.0412071768900156
0.0483689794734022
0.0509028465157588
0.0493844809387875
0.0412503950337364
0.0396775696951321
0.0624688645292495
0.0320413820963245
0.0598744432146167
0.0368177560605454
0.0478769249714987
0.037816326952912
0.0573337023430229
0.0405683775891206
0.0469458713365607
0.0523206346571165
0.0565667677192706
0.0424265529265955
0.0463475500115595
0.0437581685033398
0.0535315482017012
0.070056543116989
0.0303545920028918
0.0723454975475987
0.0454435859516259
0.044261213490854
0.0506065489693312
0.0408798000887175
0.0611478319251207
0.0615724218412141
0.0231168425179411
0.0559375197218004
0.0501719088092385
0.0488750863215144
0.0363236282696173
0.0566233287314865
0.0364647208899836
0.0707692186842424
0.0547806735482016
0.0784588323230506
0.0500709271252364
0.0254213887734854
0.0678001042430714
0.0407593511650431
0.0531029064972684
0.040005816564535
0.0542971458630786
0.0496959925404651
0.0632313751993113
0.0450306021364363
0.0621793190379015
0.0397318158439096
0.0534861658486315
0.0576536287836427
0.0567961911378405
0.0546751421141484
0.0489587749104664
0.0621001463102829
0.0561596112475145
0.0512621127596358
0.0519606258670703
0.0621920113873243
0.047746088793393
0.0639808299302051
0.0570528989981576
0.0612421470367327
0.0596116413038038
0.057187336761112
0.0429027303053331
0.0538533384014452
0.0580134200771342
0.0585694328054953
0.0578087788058871
0.0606200358178903
0.0506777304957644
0.0640966733548325
0.0471880031393251
0.0639642200362377
0.0537019426045172
0.0617688747641546
0.0529265207327958
0.0659566387602124
0.062557529809237
0.0622065370050315
0.0624203138399963
0.0626553428507216
0.0716611719504848
0.0634097134137195
0.0582800119881203
0.0947111216786578
0.0518623118712381
0.0726320807310326
0.0596864185840614
0.0681484870514796
0.0678773770581081
0.0661383781176459
0.0600015409582791
0.0632185476941699
0.0725369195140526
0.0821318025084123
0.0629524972196068
0.0731474306261832
0.0780382859191232
0.0906252178533282
0.0931594263698762
0.0738843040330989
0.080087171995111
0.0720623686256644
0.105474999353743
0.0711349582938733
0.0881459351277276
0.0801881705538474
0.076306224657547
0.0948049541057196
0.0875037931630428
0.0962939269477089
0.0900586067962461
0.101931355940961
0.0855885231254127
0.101707661011337
0.0915938349508192
0.104754494538895
0.091972413068154
0.110097654324989
0.106967936175267
0.104294630499606
0.107014199993417
0.117329135126813
0.104555016572502
0.130816951763396
0.10913917995648
0.149404355717662
0.102769610298324
0.134654730248761
0.134812339219971
0.123161898407048
0.12815919551233
0.118098767196438
0.135037748416306
0.13563825065256
0.134134395104562
0.137903852211987
0.143674786124483
0.143941970958138
0.158183559759781
0.149624572791387
0.149459969957597
0.149032857113906
0.175276659481738
0.15487518359805
0.167166481671353
0.158790610302574
0.177124931869473
0.177445965370042
0.203412576329387
0.159686671189091
0.173451813500592
0.176640440147228
0.177696717304894
0.178137766864921
0.185923206334805
0.205433828975349
0.2025418242542
0.218389393045732
0.207082530118579
0.208241755508043
0.205638258500044
0.201782005509881
0.215735512843063
0.214820420393857
0.233363332916183
0.241494152540548
0.225015889564443
0.208034730994524
0.240361690723956
0.244010799569169
0.245159695878157
0.247274056390184
0.233729936293401
0.246717864359018
0.235747216568738
0.257486304938976
0.258897575048592
0.274159535464544
0.253434317018548
0.257888712472946
0.277729097679006
0.272399940941506
0.275013912840293
0.283120723758028
0.292447951707187
0.292566743603122
0.274864794835657
0.28759315012021
0.31892899210323
0.298475368965772
0.323453336287941
0.310171303669036
0.333782690239571
0.322030776503009
0.281903817333184
0.299930859353468
0.310491858138367
0.328118503720162
0.318720138195866
0.341557480742722
0.355045159396321
0.360113419625966
0.351566727329225
0.36864252845834
0.360419076673222
0.352603081647023
0.381770166764831
0.357549176473444
0.372357321420676
0.383841671914123
0.421678104593857
0.390164524091943
0.402166826032401
0.395355565007293
0.413983990840209
0.41746125446434
0.391965546673907
0.419755613638867
0.412321139786265
0.393220281789067
0.41803491679605
0.448031045647343
0.444151854095071
0.444278721214409
0.444597571914223
0.445892369617654
0.452361386866188
0.459001567953659
0.476103433193404
0.457242157415672
0.467601218376826
0.471551286672271
0.482507938123765
0.483194401430741
0.491413353906686
0.502733759952307
0.509042788563852
0.479648411522619
0.525967125345737
0.528231374440777
0.530681820197152
0.512982476315819
0.55063343203787
0.534006883040882
0.547595888448577
0.54047258536794
0.555003918591695
0.522969185599769
0.574566250598711
0.582519884917118
0.541129801085298
0.551448145708871
0.578034622841835
0.585654241020998
0.587444674593278
0.592526806106904
0.613548197861685
0.59808439180695
0.579116319510626
0.575207338903819
0.618618203407212
0.628108238409749
0.619687973938361
0.622051543806779
0.63028081108721
0.620390551690772
0.63824318556382
0.619180172629549
0.661182330163867
0.677984184790097
0.708282579244567
0.639991251437349
0.672921107599088
0.678095346681976
0.733601291728453
0.684357916894281
0.691031174922275
0.675807815376099
0.715802351295257
0.687010175751176
0.709893477007249
0.710681230247782
0.751900786172908
0.679431331815683
0.689756359391444
0.706012347670967
0.778095305129124
0.723995035266395
0.766754201915874
0.752182662709323
0.770636385580659
0.7573912309036
0.805502393102798
0.768316630983292
0.811858589334722
0.747497804697704
0.800416199480704
0.773215554496137
0.76721772197503
0.739463901518171
0.838804565352349
0.790094925055184
0.81029123021312
0.822055333983163
0.856287975397776
0.79202783150192
0.861414758907647
0.846286994664673
0.822086513884198
0.81365133821014
0.845572680319262
0.858499530047122
0.888407033811516
0.879889652712444
0.872432096717987
0.838201154203629
0.926241265200049
0.868602467689544
0.892658792787086
0.865277649357287
0.951679701387226
0.875664080563076
0.937477710282136
0.878302965340489
0.959974290576029
0.934601859649499
0.921513830364634
0.895635690687581
0.987136162354054
0.979569219499341
0.958025923786074
0.930165298510041
0.98808037059524
0.961842732939219
1.01353481792588
0.916262339743266
0.957309857391113
0.922628557285921
1.02653823722305
0.921629851835783
1.01154904083941
0.915967786055061
1.06856922227446
1.00430614960611
1.0862604989355
0.916579952306325
1.05472763683091
1.05885584801426
1.04712851671216
0.980487772834701
1.09129893920442
1.06576518461932
1.0738970998267
0.981465914463071
1.04561435405256
1.0152844891102
1.09158511090941
1.01105519850732
1.07780545113224
1.1105529805191
1.12510927263333
0.99215714414665
1.09195471981128
1.14451156072628
1.09306470462719
0.994766636509837
1.2268602795224
1.01619011643314
1.10051143010483
1.09249193671717
1.19817511333265
1.08769200288676
1.14756363956742
1.11411451465781
1.16181767231119
1.08755920733628
1.33315247580382
1.12391909853589
1.13450523371627
1.05472733117864
1.16058662639176
1.12427506175131
1.2015398949898
1.15931419175415
1.14118850452137
1.14250782986537
1.21755289451048
1.13816374946626
1.30199148423731
1.13056429340743
1.21616347358875
1.1837316750117
1.25192727150636
1.17128315166567
1.34870353639872
1.20816175688609
1.22194221410372
1.18711408319277
1.21842132553548
1.20540042396911
1.21557102206783
1.13944167335311
1.2750322536133
1.23672654304949
1.37892387172856
1.30860830088534
1.31225969456544
1.17352468983174
1.30735578274843
1.37187537579312
1.42905740694952
1.16661619722832
1.39094378098647
1.31555823967057
1.2819472026251
1.30294329932935
1.31853572564353
1.20456997129032
1.35424826419234
1.23163582256898
1.38258679074701
1.26716739694337
1.31328202060459
1.18296473318589
1.28325384733753
1.18031520010062
1.24445736871344
1.2107917117573
1.29930996696473
1.2771898495485
1.43119838584921
1.23987826237228
1.35387498002496
1.32103556184778
1.33091643540454
1.33582674763462
1.61994236050238
1.24055216869035
1.49078501481232
1.3537756761342
1.39572424025051
1.35723790273795
1.40519993301318
1.30037583781801
1.35440063367305
1.38235084323108
1.56723783868993
1.41831620149981
1.37454443209482
1.19205887409795
1.51229909595971
1.28365038670967
1.35946750884471
1.30914776913897
1.34411730065393
1.297128228439
1.53015181296153
1.29465339338838
1.33621342029116
1.30045359282177
1.39341923138142
1.3479781997946
1.52670882370505
1.3299523418981
1.43891321303316
1.32596715834737
1.45733734969826
1.26427140037265
1.48121229571699
1.33263018383692
1.44327763392616
1.33864481810311
1.48245902773989
1.31938607715341
1.35769674383464
1.3493953220488
1.40743089031667
1.34384834501131
1.38291433476829
1.30834291051011
1.441079770626
1.48224092514907
1.37547626369945
1.29808400314566
1.47157002827535
1.41580524250858
1.48857120986375
1.30972175819967
1.51471637049262
1.32684710144021
1.45111827657557
1.3942919724544
1.34484655177553
1.42077075883251
1.53947919579487
1.31905798512009
1.47557354174721
1.31843260636133
1.32223714416991
1.40109161394672
1.42358632933936
1.50409937738713
1.40223583010372
1.43278845893142
1.47160699797153
1.38080088030526
1.37619883204834
1.47020775977627
1.46376195603684
1.54443598592219
1.43188968750074
1.30924475052421
1.54550538045323
1.36144594809153
1.55673836367022
1.45846383205608
1.42623829730808
1.30334054702706
1.47242765142625
1.32387138826915
1.41763859823592
1.38589698551637
1.43904362401375
1.2596852320934
1.50338205401188
1.35004430584468
1.38297240774256
1.42512102110614
1.48833521181084
1.321626029947
1.45127447473147
1.37448829393856
1.42783045133433
1.4134228124013
1.52817404930151
1.34486930472401
1.43932977259928
1.38207329275327
1.41780060559767
1.38654808922779
1.35707032660539
1.3555680931715
1.50431332153394
1.38909670838538
1.49414814087063
1.29431268406875
1.3647896500636
1.3219420202772
1.42559681457453
1.39545758601599
1.44736397210333
1.37644518291689
1.42727581910901
1.36747639300291
1.38902727561688
1.33521904502907
1.41833594186677
1.30779275523387
1.38171393600355
1.28348319524351
1.43323978776206
1.26216528597856
1.39810101036266
1.33673319427206
1.43402795386463
1.32069342205549
1.39267061477403
1.33541477923149
1.3489350094926
1.29196799034112
1.45230907622615
1.33526535768558
1.42753464127888
1.25006908638751
1.38561331432199
1.35192155146899
1.26749867852752
1.36864626338412
1.32133302088636
1.33519696413926
1.33828689711796
1.22422660730838
1.32063632803397
1.2540618404972
1.3686745593245
1.29907267332697
1.30176193842903
1.29488340246595
1.31659217700857
1.22917263690765
1.38053384762957
1.27788909591662
1.23730102137731
1.29048476612349
1.34615372062186
1.26433894827699
1.31671116835629
1.23449060640399
1.31879296114747
1.25059711787767
1.29552260245656
1.19807679836103
1.2547195021841
1.25104135107616
1.26230387221602
1.24972078434205
1.23810722802295
1.22032341510792
1.26566241567978
1.14812224518045
1.32264618465187
1.26950562051894
1.23730127017938
1.1913407173876
1.21320868821265
1.16745430012353
1.21968060430072
1.14081752639879
1.23610543419963
1.1434279448753
1.17262369735911
1.18032070581773
1.21408272121212
1.14322907822035
1.20130032121873
1.13347905260285
1.10693619981515
1.16263335748232
1.16991586685762
1.09501971528297
1.17693555714479
1.12256225540187
1.13821198796165
1.10112425274158
1.15776805295218
1.09929045395089
1.13908981778117
1.10611727058221
1.11839774508253
1.08678529202339
1.08986225097416
1.04177604542856
1.06517215988613
1.05115348247261
1.08888784509699
1.0449972092724
1.08327469600789
1.05924400313482
1.06389524825023
1.07868661463669
1.05192665936997
0.987239957661951
1.04405173367393
1.00415849252026
1.05653247865558
1.00446180377159
1.04511742210598
0.982323625308921
1.06064682391618
0.955236909524958
0.98086346003064
0.968612075106209
0.966514663040286
0.984120393469042
0.99128368738381
0.947034195244362
0.987702302459474
0.953724644098242
0.979780500192039
0.949689006251195
0.961325101454924
0.906187064761026
0.936679157059785
0.919392353353079
0.943906318089649
0.905800491183201
0.905895843709602
0.896993692906137
0.912333185781156
0.869024053465964
0.909594519872001
0.869589621512655
0.898726545863602
0.863677446653295
0.893039799924147
0.881346487543973
0.865984692631761
0.876265056047883
0.845162872641161
0.869875253302364
0.865516478865365
0.862473747228927
0.85341875154695
0.828961702040439
0.834673638923934
0.812977231116907
0.841165570085526
0.82905299430296
0.817221454853955
0.807315171609886
0.820644781009552
0.801193782265456
0.820687643794842
0.777726996469133
0.78040894012133
0.784248706680079
0.784406033147085
0.764010528713736
0.793129086270585
0.773711556867093
0.780230861465866
0.754821885680412
0.783360107169589
0.744318109365518
0.773022277761573
0.746199173349177
0.762452937055554
0.742444022339846
0.745170214571067
0.728494963721795
0.733161220224317
0.719533105652658
0.722612711801357
0.701469611739937
0.726936692427401
0.707553853910736
0.711218695416306
0.710276741376407
0.717044403624079
0.684720653474263
0.693973561509088
0.680691423104348
0.693393773945696
0.669273752357076
0.684573419508451
0.67383402587373
0.666217007114234
0.661065389045141
0.664851751435529
0.663750330458986
0.670708337013362
0.644660557081789
0.658309598051597
0.634958571499497
0.65055731926447
0.644815370179924
0.657821584845681
0.621875092932377
0.634318154205894
0.614697894149123
0.622775557880381
0.617353635760575
0.611071400812012
0.603104514457864
0.617619193890881
0.606313074064014
0.610934090198125
0.589771844526084
0.605508442995797
0.591304342505789
0.609680461926284
0.587440885946377
0.584749509801242
0.57419143142932
0.579503733230155
0.567350750454195
0.578582079666052
0.557079862703399
0.567714239808852
0.556209332261118
0.565786218109991
0.556111856059262
0.55905113562869
0.547536468027899
0.558770313473713
0.529805382791722
0.537448361303196
0.528017984570507
0.546807742098989
0.524451264677521
0.536962811533594
0.527484219563732
0.531394026847655
0.520809668691634
0.516606770165653
0.518298351350289
0.512143610322146
0.506607131178131
0.508341755734592
0.489595703330314
0.509426291712168
0.505710159820697
0.507187431865809
0.499262740096329
0.496525542631602
0.486224817522038
0.492204716642183
0.492615553509822
0.488087909425267
0.478254507323303
0.486662658447469
0.471681003916851
0.475910981727722
0.472262993077297
0.478252775582539
0.466879535736771
0.462254005860349
0.45610551906671
0.464405399916888
0.453774554884551
0.466345585547487
0.456411931564494
0.464721101481083
0.457891567387234
0.461682200332291
0.448875857734717
0.460440863429541
0.443774133308525
0.453687739239707
0.447552677923313
0.449268511002651
0.447234939328382
0.450081517221535
0.434910162609474
0.448423266371235
0.440129272990162
0.443216011882859
0.437642963461606
0.446568410601347
0.435653461514164
0.453922673748636
0.441522451784059
0.438314395483741
0.436270948932379
0.446725602291084
0.431355774305522
0.447625683461298
0.439497738378199
0.444485826133101
0.447487406710793
0.447007968871768
0.437517488188423
0.443779468521263
0.44513373269333
0.454207022863716
0.445274740122214
0.4455049846852
0.446113263974198
0.451427413742383
0.451771439612991
0.469361066478838
0.46029275620797
0.463059431645652
0.460110648929604
0.474520903129154
0.463765465506632
0.477696918156768
0.456581009923008
0.478501121197979
0.467460380232962
0.483049127310045
0.469634615317738
0.484308268736172
0.471584924641903
0.481528211534953
0.484584203278525
0.488479001546388
0.488489071326066
0.504819113536856
0.496703908001929
0.509725193541999
0.517434917056767
0.512855364341939
0.495169186440596
0.521329240369132
0.501779060628568
0.525281292601235
0.526767759989617
0.529162942414809
0.529564939028084
0.53174239260115
0.53731621568156
0.553927861755024
0.544789024454756
0.549109147068762
0.554449465230425
0.570334787076126
0.561592258326403
0.584564555751459
0.5743521606214
0.595337416155792
0.587603490070419
0.5882703953388
0.581500405395851
0.597818139824536
0.587774715495674
0.591695008732694
0.590004719855245
0.58895408779585
0.600495887446047
0.60328741223401
0.59231772659718
0.621059710852566
0.615770279805431
0.613057803604632
0.610394187024855
0.607298617490713
0.598715089713535
0.627223929084768
0.597216643613124
0.599889080599173
0.596129569184719
0.596145486636949
0.590342270987483
0.608401938247567
0.588583976053296
0.598317306763855
0.585571695672663
0.582090771071272
0.577745417851291
0.588479143056751
0.581373646574382
0.598432004169305
0.57979588023251
0.587335884799533
0.581166385105603
0.585657157481917
0.590800347852678
0.588683544130886
0.580370903941102
0.595322613276645
0.587146175802284
0.580447741941954
0.575681459634521
0.594800125829728
0.585080604581832
0.59229559461563
0.580197352089489
0.588878113462025
0.585061682685078
0.585608475700021
0.57345448658618
0.578287429692111
0.580409887466051
0.586166442430336
0.574278016123915
0.583944549118946
0.571458453070039
0.575021484752616
0.573867050508704
0.577868357870608
0.568513034389165
0.572670912896276
0.563368852436216
0.565831346069141
0.563742983673445
0.559777944754344
0.554181141854208
0.563655105195708
0.556720064836697
0.553807206825461
0.53811082899191
0.542087698667634
0.540269793871772
0.541751967163728
0.527342036499336
0.533744215749794
0.522856059902017
0.527431629000152
0.521384584056147
0.51780468777395
0.507087811379652
0.510841547473594
0.51270532533264
0.503534873919635
0.490726243941555
0.513554288320685
0.493496012055362
0.499612419484416
0.482824905475522
0.481203165111691
0.483346069975472
0.483446487153927
0.475061954453024
0.477971287849248
0.468944723130619
0.468947868325893
0.460063132626373
0.459072643170112
0.447926569158543
0.452641426968972
0.452367054393492
0.452368446569243
0.441890156012964
0.448175155447245
0.43545917095738
0.4363316968864
0.432072844240226
0.431938420997761
0.429185945672664
0.430721182905379
0.423613220713872
0.429917965440643
0.422936419207553
0.420301978637101
0.419205348984866
0.41499699659735
0.404615967331787
0.411591765039341
0.401956066122564
0.409739340061877
0.403301861312313
0.402799763826549
0.408371897774583
0.408232228984883
0.385699553976285
0.396376748334368
0.396550041261568
0.392324462488582
0.386396010003699
0.391081074129544
0.384522586282189
0.386689577285183
0.379094775229631
0.383580842364793
0.382283662177582
0.38571775865021
0.374024670697728
0.378513878375111
0.380118907537855
0.374625147151655
0.369862201604307
0.37299407331265
0.369808426294537
0.370213249642859
0.366385519139454
0.371819305454431
0.363814140047716
0.366754081985536
0.364359919032606
0.368920143267573
0.365530063430162
0.364318973069963
0.353764567296916
0.354566216824852
0.35491354411622
0.3555431734424
0.353588952014659
0.359712003939502
0.350943807537552
0.349297490672423
0.345221134114689
0.35081835057046
0.352730514044693
0.351207625912201
0.343958327738865
0.34642583168269
0.342438528662033
0.347238582645952
0.34083235551765
0.343805220275756
0.342153765906242
0.342881739182782
0.340814254041771
0.335964926454341
0.329947304345739
0.339361642751557
0.338029311246791
0.335125748147801
0.332562081964504
0.33782495476156
0.338841060309971
0.332618973608751
0.328257843734109
0.334408039975909
0.333313985721541
0.333935641798668
0.333298713167442
0.330234186311974
0.325776695286614
0.331436558018338
0.329303988401735
0.32452098883265
0.324646196141203
0.327616480129942
0.325664521290189
0.324328665401895
0.325568067001613
0.328579317127685
0.317772447985108
0.324494092487824
0.322799747269384
0.31752393214742
0.316180889070386
0.321617724214762
0.317269939357022
0.315944282256276
0.312341073371828
0.313404718659576
0.313835166164913
0.316590957883141
0.318325274786745
0.314775152758686
0.316699190544641
0.320119957371841
0.318423876141169
0.315780927874443
0.312513502874103
0.318752434678603
0.311442018118674
0.312063936224834
0.312109429479572
0.310704689044697
0.312559416908675
0.313830147952523
0.305943086488106
0.310038651240006
0.306799452261935
0.306589714365489
0.31078254220907
0.311509255552444
0.308257160673886
0.307932791262044
0.305552708025113
0.304739476473367
0.302771610885775
0.30055393533387
0.302678590408396
0.306274395221424
0.297595620740172
0.301741490164008
0.299857229456672
0.304716867469942
0.298711931115397
0.298289143311587
0.305196275673321
0.304946611807621
0.295579945641866
0.299073594839783
0.300166334298575
0.301660071497771
0.297932315617461
0.297197259486863
0.296497575987445
0.29594952764432
0.293726323344102
0.293276308801408
0.293306639688679
0.289515289948274
0.290197234317794
0.292646884757323
0.287652662996301
0.289649447915434
0.288184250226754
0.288670234135732
0.289908730422851
0.293439477526966
0.292795017536604
0.289980456093542
0.286829952204143
0.284190531806354
0.284370228551215
0.286961332416572
0.286743432935634
0.285604671952829
0.282600574442826
0.282647967951282
0.281170735347279
0.282140060367776
0.282696191298195
0.285849575810308
0.275948031442722
0.276871395888273
0.280287360605899
0.279613378876917
0.278701153596758
0.277029660810506
0.273853425669044
0.276213207729425
0.277067255422827
0.275440625497667
0.26990134263503
0.274311168879233
0.271204641460464
0.270932113446704
0.27113531336011
0.267797379791856
0.269774024400511
0.270685963631794
0.264035344334358
0.264131813622506
0.265872505348505
0.268165975411357
0.262689994469116
0.26297882047869
0.260477486782686
0.26347913075764
0.267332949404026
0.262911373343062
0.256771945447541
0.258930626041563
0.262167604604134
0.257500971320605
0.25443172140359
0.254922001777011
0.252303684164968
0.25894119222576
0.256072754817949
0.253776021293681
0.253071405189499
0.254286766004934
0.250117982986821
0.246878125025512
0.24835693642337
0.251294431886493
0.24324259559799
0.245713740064095
0.24316939605347
0.247400848948084
0.247891181431808
0.242615256567152
0.243300232203088
0.244288688601004
0.244865430725727
0.246416204006107
0.242746519409923
0.242313053541909
0.240937893524034
0.245093086557522
0.239257960995776
0.237058717099726
0.23982364734679
0.237099380250632
0.239733877781213
0.236249654605823
0.234939527132692
0.237183873910888
0.229733365528636
0.227821741679129
0.236775238806397
0.236858611474712
0.233829296504491
0.236986470089843
0.228211951907085
0.230933237974072
0.234375821577408
0.232959741162904
0.230629085977868
0.232194966030322
0.22944170208568
0.229051258597532
0.224693205026663
0.227929286249519
0.227422518529983
0.225927730602109
0.224792041291834
0.223285659858423
0.223489778263674
0.222646279055609
0.225137954533156
0.225046342300911
0.224022598341162
0.223998797615287
0.219291715283154
0.218883883822454
0.223456500929201
0.219438118458195
0.217975412592622
0.217128865277364
0.218120673871271
0.221216277258429
0.21597766579364
0.215004747786611
0.216905593376128
0.219546108908035
0.217475165754356
0.217402224067211
0.215642656164449
0.215838557194869
0.215379462356568
0.218041041225265
0.2136009243277
0.213964196823062
0.216786004902016
0.214083020078114
0.215986264856093
0.216515732464811
0.215051112844394
0.214003380552667
0.212952670993226
0.212434940037568
0.215469230391102
0.214877321754693
0.215428396855086
0.213936435723533
0.217198082650523
0.212214551765088
0.2110746717234
0.211450347518258
0.210327796122246
0.209732975066659
0.210921938192539
0.210555279440161
0.211647191279552
0.209184478643466
0.213162721806886
0.211815534534098
0.209564652537735
0.209827940050751
0.208071753975735
0.205980969910141
0.204679584759811
0.206515606860754
0.209667170497044
0.204668096447485
0.207032502742504
0.202811429684155
0.206073149299811
0.204605248017103
0.205893112660835
0.200776471391008
0.201919420768309
0.203004721158049
0.203414349492506
0.20252575375442
0.2031637743706
0.207850608753759
0.202285447712363
0.200565294693875
0.203567485949813
0.202552915159694
0.199934867312095
0.204419134182493
0.205716847918647
0.199810865410653
0.195666043491977
0.199709806692044
0.199182910905766
0.196115633267133
0.198565482732279
0.199266845412271
0.19922212570383
0.199025926505139
0.195788001435616
0.196905754184098
0.199385736434754
0.199194946400646
0.193453936143848
0.195897387656336
0.198068215660089
0.197756674898812
0.198063259006361
0.194977884017483
0.194694295245197
0.196761048437837
0.197308389782254
0.197315302039541
0.195351533224497
0.194050147371618
0.193931380396428
0.194109490301572
0.195018050440031
0.191950730131918
0.193797666515183
0.184731105986946
0.194530457467066
0.193634320600895
0.194355133564196
0.192186775269115
0.192626147854873
0.18933180811224
0.192778528802249
0.186338144694732
0.188220032838324
0.191945064646428
0.188919926384608
0.185613323974549
0.188003118094532
0.189364652752926
0.190962541720491
0.188009990739296
0.188102687852601
0.185976859842702
0.18588858358822
0.186653621643897
0.185587567692237
0.185955561009413
0.186760085063142
0.186983534109563
0.18821431406059
0.180198117172771
0.181718578095586
0.179864429032596
0.182171740549156
0.181095363833523
0.180135074346008
0.182579526916337
0.18130448524645
0.178151143692714
0.175812212855503
0.179597569512132
0.180650114526168
0.178795489418331
0.181088727490702
0.176529190564103
0.176167596429155
0.179208416318051
0.173437544668818
0.175855119983419
0.178013025435895
0.178512165591711
0.176047328355862
0.174082577856939
0.176623979492475
0.175257059731018
0.174543554133718
0.171090380771058
0.177514091561429
0.171225803539411
0.173698784440548
0.168698516499775
0.172884321533747
0.169211652079331
0.173008642888754
0.169928018554169
0.167121956247375
0.170972550644214
0.169489998187583
0.168796655556692
0.171220372743693
0.168700107853822
0.166488660504229
0.165776705295752
0.166170927523484
0.16173253584202
0.166756556268303
0.16529699112823
0.164320959660252
0.161382079663017
0.161781917831394
0.162183268179617
0.162207829310856
0.161132988968663
0.16480161027484
0.16097047679601
0.165762822886504
0.15917533353679
0.162013391112212
0.160385727167749
0.158441662816486
0.155880921815463
0.160064390789168
0.157851997793695
0.160813012940982
0.156380659611988
0.160807291888003
0.155515992697771
0.156454427177977
0.152327597168954
0.153277425885883
0.155402783926285
0.15386808757699
0.152780464592556
0.157944792406076
0.154971359017175
0.15200255820165
0.149598786715828
0.153051242247889
0.149704087264238
0.153646064903593
0.151450089405811
0.154249891959448
0.147794540739067
0.153885170417993
0.154964877256064
0.15231871003905
0.148745429703097
0.152856998204809
0.147161736632624
0.149060774631584
0.147266971076112
0.150693785654084
0.148128616451011
0.152757033656351
0.149997166737624
0.152232216272681
0.147101471638612
0.148924116558272
0.14243937678516
0.148947866460042
0.144966816184136
0.149465418749016
0.141584850040875
0.14857412585042
0.141002757703044
0.147190502229339
0.139252300162338
0.14803645159058
0.139297756016651
0.146140824351561
0.142530877667772
0.145255890985076
0.139854841316187
0.144542138715324
0.13307763745697
0.154636308849784
0.139606250306675
0.144335832467543
0.138331693772063
0.140048574468033
0.131325085091359
0.143927696651037
0.131369153912558
0.142838778870682
0.134909289372614
0.137603503424946
0.136781135419886
0.141234816686058
0.133815384826907
0.148256635584434
0.129195498544912
0.143167195793681
0.133530997771256
0.141120746976341
0.129144902803181
0.145699589768387
0.129410055869933
0.13979324113141
0.129784688264011
0.140873864590709
0.12364263303006
0.13710560398837
0.125065359366724
0.139754023951515
0.124229078422144
0.142805795719736
0.126198344487724
0.14871240669585
0.12810029708348
0.140293043462486
0.121581023154518
0.13923389766276
0.125500876553278
0.143027821304014
0.129555569792355
0.13540731587955
0.132763005501466
0.133112597317567
0.137901836509076
0.132128881984298
0.139694639217625
0.119661390862881
0.146677928701536
0.120722957789926
0.154593878612329
0.111733307627943
0.15729184121604
0.111587972649375
0.153949861658722
0.113772481143629
0.149243015683382
0.113588579494886
0.143668843039262
0.124513590893758
0.137875596341063
0.127883578612213
0.13654821564984
0.135019396035974
0.132493988582568
0.132511871470061
0.132509717296632
0.129387287718618
0.136812978790417
0.130755427378953
0.136813811943876
0.128544874668247
0.13396812198041
0.122035023652279
0.132921089572765
0.128827316491126
0.132084670719072
0.128509832596354
0.13206191330593
0.129230991292536
0.132298635074766
0.130636460281478
0.13350609512846
0.127549528251533
0.133174343644529
0.129925647982501
0.130643774412013
0.129251977363017
0.132784257699874
0.12911154861784
0.130432476751941
0.13451127245794
0.132996908430006
0.129620695335591
0.132419817560074
0.129818074380161
0.129983564164907
0.130149915679896
0.133311614412335
0.130192288060111
0.134586139957471
0.130986447803398
0.131461357773742
0.130097994653716
0.135305549382247
0.13111418186859
0.131894259831428
0.131182941683449
0.133366581264454
0.128169811403156
0.131422029190512
0.131198069321341
0.133204577300911
0.129179586846381
0.132208582981636
0.129362681859981
0.132469215339708
0.132483097015979
0.131720197398472
0.129545073181755
0.133161110128446
0.130867165009374
0.133095593178654
0.130057145777002
0.132081118413269
0.131716825936918
0.129732920191505
0.1292477962185
0.129177935375205
0.129348619999985
0.130983136023875
0.131688936505774
0.131460098263101
0.132706389061854
0.130989988536739
0.131635380488091
0.130649350207478
0.130274858902647
0.131221986691727
0.128385000544231
0.131901203982457
0.129958467769365
0.133545937920986
0.131725685669989
0.131918444950322
0.132941866654018
0.134274118624234
0.132671085982802
0.131731290121551
0.131282250591122
0.130560234451188
0.132652114737914
0.13376561089384
0.132766056489029
0.133934440997204
0.133330127851019
0.133517145872211
0.133664420115752
0.133976250330315
0.132882181050587
0.134298006002555
0.13271553433219
0.134627166978675
0.134902617856886
0.134026011886696
0.135663554950249
0.13547664354208
0.133988810105534
0.132907299970461
0.135923454625176
0.134778609336269
0.133180760214563
0.137336324918972
0.136460322568026
0.13552314547967
0.137337178654259
0.135864323772067
0.133346902701274
0.137639236879882
0.136580550313574
0.137745156627753
0.136106158074655
0.136232037941973
0.136061241984154
0.136766545430639
0.136769316840057
0.135386533795423
0.138234626027092
0.138547215480154
0.136977329169086
0.134760309988574
0.138429241246453
0.137399099263704
0.13955343021146
0.137979814073086
0.139349089675631
0.13713036945007
0.136159761918754
0.137517112947832
0.13675169690903
0.139536028788364
0.138918447598622
0.140128217580924
0.140917195169483
0.136899423414546
0.141028767329547
0.137857983348432
0.142590676398715
0.142825485783474
0.140957430152397
0.140443121568099
0.140883733214479
0.139667048020969
0.141149284101988
0.140137317497022
0.141938691102796
0.142732294282137
0.142889215399584
0.143665353997231
0.142235696130477
0.14275029664345
0.144077659700545
0.14540212376571
0.14189837911023
0.142225114040051
0.14299391225145
0.14359083696991
0.143400873559372
0.145494227570866
0.143078926293058
0.142524885331742
0.143253690057337
0.143356080555412
0.144713779521061
0.142833483816928
0.141706959417941
0.142021732685388
0.141608857637874
0.141978110479016
0.142372061844495
0.142389887439396
0.141784599856226
0.145569354365721
0.142573655451421
0.140468108206158
0.14203951771722
0.145248955086965
0.143758969307503
0.13996499424045
0.14048076406429
0.143807073888463
0.141396834178035
0.141157004300383
0.139896487156315
0.138850118725938
0.141477065905715
0.141658302722595
0.142170299976337
0.14147260362815
0.141627006580192
0.142186373316391
0.138910832354138
0.136494546180114
0.137658294242901
0.140391197153081
0.139664615443849
0.139412219580948
0.141360527326487
0.140683914620883
0.138857117192281
0.140694579730792
0.141854315523789
0.140189187922216
0.140218763356535
0.140000055211554
0.138467728144565
0.13993109666771
0.139265918928408
0.137967050678632
0.1389754974883
0.1376436755058
0.139733568505554
0.136417201637837
0.136578747245623
0.137116421765528
0.138262832064364
0.136086035226314
0.13616136560186
0.139022269506364
0.14021582437716
0.138491982263756
0.138955203425292
0.136438588073594
0.134515176668703
0.135358426052388
0.135036471422576
0.13675696058084
0.134358819646023
0.134164538315271
0.135495122029533
0.133943001750636
0.137027706580392
0.135966033717408
0.137434221818399
0.132496158530484
0.134180715830896
0.138022911309342
0.135132480849584
0.134731724156949
0.136979834133012
0.134938588700309
0.133414444096527
0.131835342776213
0.136403612234577
0.134685732109761
0.134803494015961
0.132872200769252
0.135787909099402
0.132368217424835
0.133626688563604
0.135123532337084
0.13195634132705
0.131999381971614
0.138167323597446
0.132609630361996
0.134088542216718
0.135152466552125
0.131823491326147
0.134738761983243
0.136901192649688
0.132126007380235
0.131069968663081
0.130568525563581
0.133123088305223
0.134110101574226
0.134231056230725
0.130973090835938
0.130812882178994
0.130028558760761
0.131994912343912
0.131153929294087
0.129092131938717
0.13070145049872
0.128332181444895
0.129844429634262
0.130670714639075
0.131558225005513
0.128999361279855
0.129580827661862
0.132207625077128
0.129697705930365
0.127860076358265
0.127907024330453
0.128685568848033
0.129905223852405
0.131058504564418
0.127392779324126
0.127669788019686
0.126174593432968
0.12503768991738
0.125228726583891
0.126764954773378
0.124368325932644
0.124485350074837
0.124980485461392
0.124993633796407
0.120914298713561
0.123621046110642
0.123459580422739
0.123521371293055
0.121504923263899
0.120648971643719
0.121798310736108
0.12404418986776
0.121438726549915
0.122624523553352
0.119757095224617
0.12225346100328
0.117633372816387
0.119802996830549
0.11910626539868
0.119635555439009
0.116945171529146
0.120044412254515
0.116965976106943
0.118014621834413
0.114684243057931
0.115527473193809
0.114028718657819
0.114418617952859
0.114286894988103
0.11520179716865
0.114602531903021
0.114700349950412
0.113890318836061
0.11442389184321
0.11088914995638
0.115081598658612
0.111040213377095
0.11585566280011
0.111475043426044
0.112854551327977
0.113259899636717
0.112984809524581
0.112754333736279
0.111477221758229
0.112653878025282
0.108972143486112
0.110431503224
0.113111467462343
0.111235680191847
0.110457954599281
0.109176789583856
0.11082648497561
0.10868187162177
0.109162824533376
0.108575274071967
0.110832133505481
0.111259056552495
0.11013787272681
0.106652472665964
0.110999884642924
0.11089971401614
0.105069749225228
0.110215326249044
0.108898639174901
0.108341488545501
0.10771620876499
0.110884244580304
0.10857256226867
0.106960031928195
0.106256774514364
0.105008733335862
0.106826890355496
0.107922227899667
0.109254203412425
0.10742041254439
0.106240072906737
0.106064639340421
0.10751468923359
0.106033848021145
0.108549015104294
0.105359402651754
0.106744469335003
0.105761101522385
0.103111268807128
0.103069015193445
0.101651525904057
0.106241958395595
0.103575738439662
0.105704509951948
0.105150300440659
0.105306963019106
0.103975970952771
0.106705795388364
0.109205969046196
0.0985813079920769
0.109916382763938
0.100116929535759
0.105726238935554
0.101141980771863
0.104853156430483
0.101928878177218
0.105032484265034
0.100304032318223
0.103357349117875
0.0995366952391594
0.103462283593381
0.0999290026850211
0.102889606726375
0.100318483499731
0.103105423793314
0.0989709284828862
0.10149185640382
0.0980732556525988
0.102676465007345
0.103375068617586
0.100203093484897
0.0976682773087428
0.104578503391772
0.0953653070018924
0.109505102000829
0.0965182146140886
0.102207212760246
0.0974117526640972
0.0975736067861713
0.0986455131103527
0.10175387795381
0.0982453765104438
0.102914850982708
0.103617558447913
0.0960996988130758
0.0992494618363349
0.0973091472396487
0.0982433558933844
0.0973425340072437
0.097434498634251
0.0988129964431199
0.0950100505269152
0.0982433015361887
0.0943043493027343
0.0982178932074658
0.0968443773054687
0.0989864277177919
0.0976326408157566
0.0999675242254237
0.0968179222375004
0.098168196938344
0.0969816351792191
0.0955244187369875
0.0972373426797778
0.0999211858858638
0.10256715179771
0.0902677471823736
0.101423041877792
0.093535734523936
0.0977285420219365
0.0955208756355293
0.097445996703535
0.0959286962918997
0.0969095895433544
0.0959116508483966
0.0971262878860136
0.0948414431460558
0.0943457034292183
0.0969300676833195
0.0966143592754834
0.096533125611658
0.09441112061611
0.0945449253192601
0.092939745983396
0.098623987120103
0.0949817458794449
0.103121327354159
0.100907311139731
0.0934090885043649
0.0946146974606822
0.0921424245654297
0.0964414316317951
0.0942921040280923
0.0967868648235828
0.0930583110747212
0.095439629619024
0.0897758400351242
0.0956909715320308
0.0912381982843706
0.0957063793913831
0.0923210194114035
0.0954287431472843
0.0932412945681361
0.0970581831959813
0.0897708932210473
0.0983095818065729
0.0915202408784321
0.0960546160348942
0.0896395048955766
0.101149595916044
0.090454354759051
0.0970680528421578
0.0898521255291536
0.105334255290644
0.097925025301662
0.0880897491468336
0.102608722960252
0.0904021607140938
0.097349663985321
0.0914244653248441
0.0965110124871299
0.0971355584912844
0.0941754674639639
0.0932545314266051
0.096521629020548
0.0936034843272633
0.0943220879443212
0.0935284034383351
0.0968615953015984
0.101654017878582
0.0930360249912679
0.0955833551521277
0.0956209593927784
0.0909261514316931
0.107403697914675
0.0901039536668063
0.0988071350229592
0.0962010670817427
0.0947759409871394
0.0963189083765589
0.0972534205473143
0.0962146148668852
0.099750199607286
0.0953348746671647
0.0913676077733847
0.0957796930712706
0.0942799360094134
0.0982891151904354
0.0998518990958996
0.0976555385654808
0.100132072978157
0.0956434472624345
0.0980797033313228
0.0995728607420575
0.0972222232836105
0.0976842778242775
0.0979585525513559
0.0984880380483566
0.0978718217919336
0.104593935691397
0.100603144903376
0.100954783537873
0.0998155912236396
0.0984266585630538
0.10219701617389
0.0975386184904244
0.10059437693789
0.100741337129056
0.0937068620119186
0.11523103223456
0.0941963301862813
0.114604570815592
0.0942613263669791
0.106523602584438
0.0926121669250636
0.10621849373263
0.0962181596242779
0.10942738871019
0.0974288755049575
0.101939717799061
0.104383652923155
0.10111881526413
0.105953444637011
0.0969429585148457
0.106734618317964
0.106263396356946
0.103972822759039
0.10227952313871
0.110392014535482
0.0984728612098062
0.122958238958938
0.105009032439585
0.102762767923765
0.110413197017723
0.101538130491822
0.118949304708266
0.102211608513529
0.106720286087198
0.109073307080963
0.106389796004553
0.11271259589807
0.10746142191031
0.120507833862521
0.111626747299954
0.109141548470187
0.117651434421038
0.111214319342158
0.121134273852448
0.114090320512827
0.11371260731986
0.114601729968942
0.119789761585794
0.113664463907245
0.118187668403283
0.128851771992293
0.111903066213027
0.141983202264629
0.116531345082552
0.131264588217768
0.118115261471456
0.130391812181975
0.124189685949647
0.136392738394686
0.122331322053476
0.133712147986918
0.126677951980202
0.14429700637292
0.124989090975029
0.140869309419851
0.136182762215595
0.141366592219861
0.142043911494638
0.158624987026745
0.141861382642072
0.151779163823539
0.145470039206669
0.158889635990387
0.148951484118971
0.152615366721164
0.154937335259756
0.153985905446351
0.159288088943374
0.160027623720347
0.159680660041471
0.164262385724573
0.157997855590369
0.168787862182811
0.163584866021911
0.187918933492544
0.172319704274084
0.186188738304145
0.171233473897389
0.185034922051581
0.175585323555873
0.176981376632275
0.178271732729842
0.180429146053626
0.187580374045984
0.185623524843306
0.187208117206199
0.192051707057183
0.194293092786684
0.203829095977631
0.187060003021009
0.212211414015611
0.191706313127885
0.216315947423779
0.187251851835455
0.248561731908116
0.214303638078443
0.213894795052051
0.234865966166568
0.219367700394423
0.260659676956939
0.233347547052594
0.243202053354934
0.250237377028119
0.252141131919567
0.257217345228453
0.268506965749313
0.271897829214399
0.28198877610426
0.284470184485422
0.290096936463783
0.292676901868161
0.313025029434963
0.3088080820732
0.323214630303667
0.316210896800105
0.33465008701438
0.343636591158678
0.345772811203744
0.347447383085394
0.366550531029965
0.345738767366909
0.400865812226151
0.377206286555594
0.393860304370888
0.386356039936145
0.41303481443946
0.411793455367092
0.413917940769054
0.446146615580022
0.426361134442366
0.449676937609872
0.439627202467525
0.463191549616381
0.456777381631991
0.483661124025805
0.482199526396164
0.479698665435365
0.492536059641086
0.49296445165496
0.504455986403609
0.50907185760368
0.515753287640313
0.517389036696227
0.532255260685084
0.557371768158918
0.536580066498663
0.550002184783375
0.526091558670808
0.54807772442134
0.527112722001139
0.560567993362245
0.542021468444632
0.534605278282909
0.55636159716102
0.538847323476637
0.549313583667294
0.548859070148225
0.556143398244185
0.547068814351904
0.555671307060754
0.555967280008529
0.552609591366395
0.567927847193044
0.533097247562443
0.612025404617773
0.543510211836976
0.560439074285231
0.553019988299822
0.555836570116594
0.554335510833898
0.555910757807243
0.535266788624106
0.563873190227735
0.541473082839715
0.54370251725449
0.529954899149551
0.526992296922896
0.535066347061293
0.512948685513099
0.509674671312005
0.500785639956321
0.492116378182288
0.493409639443139
0.489983109452636
0.523627537113889
0.473458848625374
0.470186658389221
0.467935290463537
0.453565786642084
0.448123352777885
0.452548607163637
0.441519567831785
0.43572534940755
0.428947481485178
0.433976812469411
0.425675448837913
0.421802529429502
0.422606208199795
0.414020502095231
0.413556477093396
0.409813546466096
0.405753419477938
0.398966223830183
0.402733095097496
0.399311141392286
0.395098091644773
0.398135591208797
0.392936884588084
0.391012360995207
0.385902859085902
0.38207594915496
0.387391615940165
0.379434018215912
0.385393056784016
0.376749362417768
0.377462621744275
0.373612396769221
0.371317217338165
0.371870659149275
0.370091098608049
0.363311911661535
0.366330825307327
0.366632463180576
0.365980732402681
0.357494996970225
0.360640859764054
0.362013380069666
0.359499525974726
0.373673084371124
0.348839682820475
0.361665689937427
0.348408263663412
0.355348051572608
0.350739968911912
0.355487797257602
0.360078224120751
0.344484958900295
0.345558030310381
0.344400392603872
0.331143892596264
0.346729789657347
0.338755254207816
0.337624764678696
0.345321397506929
0.319345613690614
0.374504946383303
0.32559222745841
0.363274781322475
0.329632908022747
0.343089532401018
0.333834640550595
0.347942803730137
0.333868196386311
0.332444775753385
0.338592816133966
0.320756464889815
0.339889436998961
0.323096652776998
0.333660701242171
0.334926633642631
0.325696396044571
0.337792485034481
0.329307838828791
0.322050937003526
0.32252363219891
0.320493452656916
0.328849852979281
0.338742599298062
0.323656752777999
0.313890024819498
0.309531695866423
0.313757887161371
0.307804740655121
0.311584774425904
0.319126895630245
0.304413402991427
0.309004185933711
0.298440695650116
0.312464685586404
0.293940981904551
0.305742140507458
0.29613532821977
0.296885822479706
0.298556486709845
0.286418200480137
0.308816238723269
0.28948874922825
0.307776169612951
0.287373661182006
0.297510250896735
0.284905465534093
0.297371948043978
0.288998718472586
0.2841777948824
0.28696432169489
0.285746975002896
0.287230687676066
0.28017271595823
0.26833611906749
0.29132062363183
0.276016922168211
0.289222014719421
0.291813031740567
0.277128326614897
0.274709950065399
0.275218479736891
0.272946371808176
0.27582371619662
0.270197136802824
0.279357578040708
0.260523575937821
0.291124587026633
0.274122990360255
0.284654102121492
0.284775443041884
0.28162439010147
0.281850174886058
0.290155814110463
0.290673746493194
0.312352172764826
0.287508627542925
0.303391186950747
0.294830634986925
0.311465397374441
0.307778576188924
0.312582198391845
0.315799719737275
0.317535924296587
0.320772127224722
0.329521945922828
0.332183857661989
0.342600737548288
0.34560908177772
0.36265295699182
0.358112724238815
0.377948117639578
0.376906979163417
0.375123367776792
0.408784902514641
0.388902439701154
0.424155471839542
0.412978241338953
0.422851247444398
0.430733155894425
0.436652081035671
0.451485968153697
0.45232845297011
0.471464407513622
0.472095570656964
0.473114274207968
0.482051637945185
0.483332113276232
0.486264916445993
0.489491598447276
0.517751367491562
0.469475251436371
0.532505266535008
0.515984129320671
0.514138019706688
0.514564342114769
0.515235624996314
0.529440597854643
0.520047205807073
0.523558481355962
0.528624961804994
0.545991196630004
0.535315415545549
0.534456450307285
0.536874920873029
0.542367347991957
0.545341475983607
0.539517516880391
0.547699114190832
0.549501788057264
0.555618435860271
0.560887248998839
0.561892373428973
0.585157484553585
0.578676928922441
0.563116685241202
0.57941251190763
0.570659353867722
0.584223298857183
0.577626826027537
0.592163192277854
0.595326380371745
0.592055210964596
0.598529792572117
0.599179035770172
0.601502898150795
0.609988578714757
0.603496825337846
0.619289957471082
0.614081730615967
0.62964958589108
0.621534785169304
0.653004276582801
0.630320009829608
0.630082234946115
0.632501904414172
0.629877211148296
0.636905320829564
0.631516148463299
0.636466318299681
0.63491166533951
0.644329880498461
0.635371065605656
0.639046577156894
0.630878500863025
0.636071342246368
0.631501123977959
0.643607851711318
0.627449257156856
0.627720836740787
0.634289342147627
0.620563749176003
0.623198663694382
0.61732529555028
0.628186783902354
0.627145547237492
0.618677449154348
0.620934286084336
0.623851963395047
0.618382249842032
0.61886600485028
0.620724012452666
0.614005212847232
0.614497109125858
0.621467787883272
0.615276480125419
0.624291254416611
0.632434125153037
0.630064736316413
0.638572929888322
0.641516394947167
0.640184116436593
0.636690228866355
0.649830039298947
0.655411301293004
0.666038405309318
0.659143690975429
0.668937633303838
0.661959030323741
0.668696873838552
0.671902277657247
0.68041156084218
0.667691409156331
0.673344824162627
0.680062161229776
0.685820985450142
0.684299080169747
0.681504578913759
0.670746912757581
0.683561895989049
0.675892784914113
0.66714244677908
0.663676529047361
0.670973164952688
0.653023095279493
0.659834463890646
0.655771528951044
0.658852759040871
0.656544455760357
0.655784375415717
0.649421841018152
0.653010519469695
0.651643970497008
0.63897796961028
0.644684765392181
0.64392038996814
0.626686729685006
0.632355427458623
0.632137210597084
0.631879088712672
0.632288984247968
0.628966923705483
0.627241730673342
0.630815780166208
0.629404018067287
0.632008158472252
0.629836338295484
0.638967851710696
0.628216421689097
0.643910123102303
0.633584577132029
0.637565738487677
0.624488978874295
0.626523995787806
0.631702966241745
0.627515476487767
0.629066611460436
0.620142291782194
0.62263156758541
0.627867357396076
0.622659366857005
0.618967275479097
0.620652289107536
0.618636990467541
0.615401511900471
0.615605742040839
0.609023290064449
0.604942086831678
0.607877359592512
0.599808348038101
0.598901560340365
0.604117323967962
0.603055960181587
0.603964460941043
0.598909328161446
0.601025965928047
0.600325505826994
0.599480795582841
0.598151012879029
0.59366177150277
0.592057154168911
0.591876822108705
0.589082932247221
0.591525197444092
0.590171987800425
0.589115558420184
0.584991239267979
0.586205802706567
0.581346314621892
0.578815500450656
0.574153653471922
0.569206572924478
0.565072369031634
0.56423250784918
0.563983219925745
0.557978531942104
0.551258664102162
0.547368582525572
0.544582798337836
0.543150714587191
0.535625143066648
0.538830874403537
0.531396604882884
0.529569160131685
0.53268165696875
0.527043631186596
0.524146550319089
0.521209689658219
0.523835618271336
0.522914200519519
0.51583670950981
0.519789942051124
0.517994045554092
0.519647515245085
0.517810351752841
0.518862519525796
0.522223552901602
0.521307199960418
0.519927526922178
0.53140050202146
0.527381962676754
0.52804675577868
0.523604631616812
0.53713949651153
0.531548640066066
0.535149626670084
0.531372703269543
0.538699433875958
0.538643055289966
0.541399075373729
0.537820346564342
0.543404930722486
0.542782700268559
0.545252376421514
0.546980943705616
0.54721519783162
0.542286198965301
0.547204257286951
0.548960967382377
0.547712811163004
0.545784710880733
0.54750021397211
0.54770247287553
0.546719389888968
0.546273354380863
0.542804832537974
0.54523648734065
0.542531027290137
0.542800614718129
0.538808966834755
0.538665348702029
0.538871636210047
0.535502573788527
0.536187831772406
0.534328134689276
0.533620908636866
0.53344428655538
0.530131170071964
0.529826065885995
0.530686503888035
0.527244284974469
0.527772804897625
0.522041651833442
0.520995335252153
0.523394297312645
0.515420959824873
0.516638575852707
0.514778306695701
0.507092713296404
0.510643544487343
0.505762179022772
0.506372893370883
0.502908134872585
0.49842321992115
0.494650348221757
0.489667376716076
0.488946909569433
0.488698812297618
0.484068308431758
0.482605100636683
0.479108194775582
0.479500632404148
0.474447295616778
0.471935068954001
0.473418071133428
0.468950503193425
0.465118429918449
0.466329971939924
0.46450826160201
0.462253211647448
0.4676721681936
0.458713694269777
0.461018890249979
0.460517134558675
0.458327889381042
0.45851977666287
0.458466051287649
0.456224782396578
0.455397243886399
0.446538591874336
0.446518432287383
0.445467498607087
0.440952057729967
0.43340191608562
0.429523139856845
0.42118897771607
0.415675952148237
0.411749735307469
0.403845155505377
0.40050954386263
0.394102323870141
0.390084976908545
0.386477561285913
0.388561894559783
0.391735621243095
0.390548420879398
0.392358180230381
0.400286996596616
0.402519083010208
0.409118748424848
0.419591856951419
0.425163595140624
0.437166947627641
0.451726962215556
0.46434029302347
0.476726541185088
0.493974099273355
0.508701506853065
0.52453155813871
0.539725511620716
0.558979068489533
0.578747025090793
0.600309544696992
0.620632668047738
0.645306469973079
0.662166121473195
0.688695865858873
0.710235827687803
0.740009941438777
0.758806910287392
0.791719591903642
0.807646152569051
0.829386423155906
0.856736406102271
0.87145866025693
0.894047851308933
0.924468790776705
0.935363590672013
0.94335096674926
0.953943033741315
0.955231075493699
0.967911279255601
0.987759449162916
0.970800067822348
0.975425637689077
0.97713663961899
0.980682502777324
0.97072654592711
0.965282857579754
0.971600564346791
0.95925367782248
0.937596417125566
0.935533424952524
0.931945153313842
0.928527176985778
0.925764882036892
0.908835017611835
0.916881549603155
0.9156587007439
0.914200836515181
0.922621554834116
0.932855820825648
0.923962940848167
0.928672107797457
0.938230558745438
0.947903110542298
0.951243871107565
0.957200992876308
0.97359778343889
0.987586869833033
0.997620341602117
1.00721674487254
1.00591270872398
1.01916935076059
1.0197286891597
1.03305462683221
1.04756883499311
1.04898410609561
1.04492212006543
1.07387939608856
1.05531306487195
1.07601055361032
1.08130828936087
1.07516048555744
1.07610682500123
1.07504160932618
1.08326740714412
1.06663761383647
1.07085655200775
1.08001509536262
1.0860019975988
1.0955172212308
1.10776707934317
1.11018972147891
1.12260326861923
1.12784599990465
1.13921020535032
1.1423283029454
1.14159627509607
1.16171992087142
1.14630906043996
1.17073060900387
1.17517194069543
1.18546617368155
1.21706780892305
1.23161447875164
1.23644298178282
1.26700731355785
1.2733528377263
1.30386778226317
1.32956307496876
1.32781846408101
1.35846102627805
1.41327247396934
1.4115693958629
1.46157196376332
1.48735653881126
1.54581198529469
1.52935613843145
1.53406235665181
1.58845609063865
1.61760906095394
1.60359156097107
1.61351191242235
1.6177370881613
1.56430645550648
1.63551981055236
1.57944054645447
1.58678576154261
1.57637422734871
1.61515657630122
1.64679860643008
1.59847686329317
1.5783981787774
1.6135592798303
1.54193451418293
1.63184440798439
1.53441274034029
1.62168083741632
1.56987752884667
1.6400129058537
1.57016006695423
1.66667463517318
1.63726827671429
1.67133607392197
1.7140094141401
1.6783992932672
1.66164963225692
1.75952954790378
1.76905836221447
1.7872833288671
1.78898252794789
1.8918353876601
1.77590736658082
1.94209571333105
1.87325733412709
1.84590054948015
1.8746351645029
1.95187305832655
1.95902253011965
1.94852254367901
1.93695073253911
2.14088006798331
1.91244124833609
2.242340022534
1.99384475132407
2.19540097740742
2.13115294931174
2.42087749599613
2.05313611396987
2.15901986684142
2.36993541423349
2.11862142894269
2.13373897013705
2.14059492814401
2.33326635904176
2.43081151871202
2.21966980456595
2.39345138464828
2.69704075765771
2.39317225970287
2.32914420339614
2.53533509524396
2.69963855895355
2.83408010503412
2.17411033043425
2.28759995946173
2.19093193502591
2.69544904938565
2.12849723264371
2.18485992035258
2.54041752848326
2.34303083708336
2.02584792085586
2.18944351815703
1.91429548281624
2.35771328739589
2.05100044937336
2.05903443125896
1.9872161419967
2.98155669662138
2.14360174942285
2.17745170996904
1.96393910252467
1.97618995544305
2.03248185047298
2.08712343088143
1.93368102845972
2.09172157157294
1.98538669711829
2.02427493291557
1.83756176906963
2.21234295276111
1.80457161356053
1.86154321374446
1.79679525987183
1.84289496435607
1.72891767779968
1.67661668115899
1.60854396982826
1.67307106382381
1.60757103890311
1.62353104606782
1.56185449250916
1.57230334319731
1.52689705532546
1.43843236595684
1.41782534483708
1.40856984049503
1.34161978488325
1.27550826763935
1.24659459714243
1.22217101704498
1.18061845844945
1.17259399359896
1.10694042307716
1.07195746349227
1.03551521034894
0.991471295347394
0.959332394078643
0.953964666023456
0.919943173934054
0.872980839590696
0.857164132182925
0.853553740196215
0.817867903399891
0.806849581030549
0.79097021650939
0.785166163175981
0.772094975051391
0.768752688672409
0.744742158372323
0.752616924511765
0.73990148551401
0.739854378335027
0.732072174844836
0.741842169187018
0.744917748477399
0.748901306191306
0.752010628303727
0.752139960148498
0.756232216820305
0.757056043962848
0.754246915622343
0.767104144526386
0.767497055825005
0.773084395073976
0.774120333697107
0.779207194270142
0.777509578379778
0.77632946086809
0.773948780380771
0.763607350788772
0.793525034327108
0.77856060608893
0.765578191591161
0.771650993319751
0.771315503000732
0.777483120583695
0.790081654100356
0.793160979339812
0.783113178074194
0.784923775765154
0.779531710157093
0.775502351245589
0.77155816045579
0.775835677012349
0.774854914149248
0.792579537716947
0.774751162745361
0.778682650128503
0.764871805572036
0.771003532372242
0.757658084012129
0.771841038968848
0.758005787566792
0.74807869121594
0.746423549322632
0.742180290110447
0.739126763750857
0.74218236281103
0.733109785782586
0.74876890679156
0.739445646690731
0.756588880978534
0.753694300337014
0.753743393866662
0.760355306521855
0.779408305514044
0.77706365736712
0.808580926668315
0.776392481296402
0.794972852281729
0.802135621640653
0.838647455897778
0.824869410960546
0.837172576516404
0.826295647921539
0.845966438591246
0.825646167096963
0.806889860441885
0.793196283249018
0.806980310560705
0.777482620893652
0.785876770893936
0.758561686499474
0.764042086442972
0.747722195942647
0.746256599766779
0.746660426387288
0.768937266890442
0.755373475235903
0.762420774156025
0.761315155517788
0.759831491421209
0.746137647242659
0.758385519010819
0.758113179183352
0.752826308310115
0.746399825874409
0.764287460778951
0.732053995262886
0.742079787361978
0.753090692838206
0.770109763426637
0.761380751299795
0.75727438119239
0.759951119609053
0.760290425484005
0.74583412732438
0.753672104825847
0.749051899693823
0.739794796773904
0.754826050318611
0.760269137875975
0.73974611486024
0.757830279618716
0.745226662691831
0.778442421577198
0.767518503613134
0.75482182360048
0.751498972202556
0.753822876729512
0.729842757808939
0.750216062503259
0.728154504701544
0.756488378637695
0.744214138827408
0.742316032391279
0.736436473013771
0.745747107937832
0.735628684796518
0.737508999078203
0.711221461179665
0.727590999988339
0.72207987037901
0.725744797788926
0.721633335101477
0.706169821501147
0.683516138803186
0.70382152861704
0.687903081925358
0.712557049462702
0.679832348395605
0.694571035608113
0.669827450522513
0.676128036038247
0.692296549248281
0.697760444228342
0.680054237424081
0.679148963079299
0.698481497687432
0.686203080588692
0.665005290249239
0.678101285316815
0.659841674552437
0.66772576223302
0.692451455562564
0.698383867999604
0.690370506750926
0.67359727691884
0.694922663386868
0.714842793972237
0.694580043598646
0.705814164457129
0.701595044078722
0.728044196861073
0.703619053375021
0.70369871837738
0.720527587681827
0.720159698892937
0.756311002286503
0.744624624885865
0.771127874996942
0.774506707971891
0.754799486524947
0.784567366990731
0.757526720540539
0.772523353975899
0.781896081711939
0.804565580520528
0.818562320031817
0.808232698860576
0.834624003247902
0.840794162526012
0.836739243680399
0.901203704994266
0.884908230516889
0.985165075238322
0.922770502872586
0.892850330111673
0.938404403451445
1.03028164982316
0.877793349915025
1.00806104555645
1.03718174837802
0.999581767285389
0.903130453820001
0.953088777723587
0.912128912932026
1.00372770965363
1.00375617556421
1.03496406314678
0.926613393331575
1.054416980858
1.03665818815388
1.02732081056457
0.968491415507666
1.07375200327458
1.12198267629927
1.20398877705406
1.01200786790256
1.02886767142029
0.99667865130898
1.07610340784127
1.074459185396
1.10457368719052
1.02110597482822
1.06606921003431
0.92472932199799
1.10939066938182
1.0968374518914
1.01997693274672
0.984267497021475
1.00024598113197
0.997308357716738
0.968019361250001
1.03972947004153
0.944013133307334
0.939041818509907
1.01758065666543
0.958658457721842
0.989413899037103
0.942868717662805
1.02610942594707
0.985239053612256
1.10086699394065
0.941804324180697
1.03267381346023
0.918206598887785
1.03290569517126
1.04345459019246
1.10783664001845
0.970766626885163
1.06150113958619
1.06313032465686
0.902759820511571
0.947308439474055
1.03860536869687
0.982826209325369
1.01281900294527
0.866468061220389
0.946177577257794
1.11494961025994
1.05234691965352
1.04703926341399
1.06505769475185
1.04501719991064
1.18055982916691
0.97719538133015
1.00049073204752
1.15381652031633
1.18872578937257
1.02990036145077
1.14715075168057
1.07721360560133
1.18596589702146
1.10619437582264
1.25275168167406
1.04991352273437
1.28272695762508
1.16716231109457
1.40617506496637
1.02485592076377
1.16860716390769
1.08465455512875
1.19593053842225
1.1266168882907
1.24271040071655
1.14972233449818
1.15499328697414
1.07328920977928
1.97989672273769
1.23229550097264
1.14712873862008
1.25208788657688
1.7055539431232
1.31612874901789
1.39546450482142
1.12143551834083
1.14724452066029
1.30925794312662
1.41170895650044
1.30960719476577
1.4899050615285
1.41122495706703
1.39622364566034
1.06069983738398
1.14863648070085
1.04649411799876
2.35134896343364
1.01426265887876
1.27667536288441
1.14062706301277
2.40883537825309
1.51235936908507
1.18388294421048
1.11660020710694
1.25499172158872
1.19285939622615
5
1.52700098510587
0.896202302963521
0.883917944745779
1.80483695845949
1.04923819004265
1.27551586721567
1.56647782757528
5
1.38206771077954
5
1.30599292662985
0.885047951217591
1.02164005440219
2.5620267042528
5
1.12027968322847
0.554898969639548
0.8234729624183
0.843896099657386
1.45343075054648
1.70121431831624
5
1.99764892150288
1.22931998379925
1.10179507615347
0.722906215477806
0.856879545836576
