3596
4000.36533379555
650.420452594757
1
2
2
0.0617549644356937
0.0507893453122486
0.0594629997359424
0.0495740337157524
0.0650006201662716
0.0426160607296786
0.0568652169057329
0.0538525378692456
0.0576430014963118
0.0397113020793524
0.0629349342929943
0.0556158145917383
0.0640405069721938
0.0493629433688641
0.0610073864541408
0.0500706562106641
0.0553759905703469
0.051469616811572
0.0596565387730144
0.046023990150548
0.061954134658106
0.0368860512306828
0.0674698277318974
0.0500357323841536
0.0537817105588471
0.0461133518431639
0.0602862338310683
0.051905052112039
0.0557042007385814
0.0503369132065891
0.0618247061710582
0.0492144611635211
0.0562470821991449
0.0495085190673389
0.0583744558043824
0.0482599772060402
0.0561501142284131
0.051032787515023
0.0637635654051377
0.0413873652565116
0.0628517682578395
0.0527110453306655
0.0663419303547078
0.0521059981961698
0.0558355459341044
0.0460273454929279
0.0531987566195158
0.04517014738362
0.0570381879082229
0.0490212627049606
0.0601821255141498
0.0456331188580135
0.0617494025999568
0.0545520049537317
0.0495484119747985
0.0425358438682249
0.0475731909388636
0.0534147577852842
0.0609261711189969
0.0538849327375068
0.0541533591874717
0.0467177298039963
0.0572176894725818
0.0488730431357329
0.0576819455401584
0.0482624949799739
0.051780161376435
0.0501820278076034
0.0534373838071229
0.0554770654990886
0.0590763287720899
0.0490754466151758
0.0589982690634815
0.0374292865471753
0.0649351830201532
0.0444116812841698
0.0516395001720392
0.0466918268315836
0.058404899402608
0.0421156860704007
0.0609793845386694
0.0383747757852387
0.0550016261967474
0.0474790537813154
0.0505090703690603
0.0470725737719776
0.0655128321205346
0.0365003659525475
0.0710981740940734
0.0431401704753556
0.0521024026717974
0.0429252161981776
0.0508086190656578
0.0356690764524447
0.0571899159244562
0.0418382490938648
0.0539006037855728
0.0347379305436022
0.0543323150431919
0.0341364528008217
0.0725006182181588
0.0328938014952247
0.0741026135665454
0.0457747201990248
0.0431036257403696
0.0539756029220503
0.0373870684490353
0.0524970025460374
0.0463730140932306
0.0484620514991166
0.0521525861217388
0.0369850232297158
0.0445882284125149
0.0334887600829551
0.0602190901662518
0.0486440011038772
0.0587038925911071
0.0400564464332873
0.0549801381653034
0.0427543591197065
0.0681313800485896
0.0227523543641861
0.0687691107011853
0.0321181087028381
0.0525580882651684
0.041187456649798
0.0564257334241514
0.0384775567827431
0.060044215053512
0.0324176638243126
0.05314370176173
0.0330645236181866
0.053872609470718
0.0290685620053067
0.0701514908218538
0.033329420831553
0.0459617345919964
0.0431461510574559
0.0457404124015924
0.0336496314386431
0.0472153148552354
0.0408297953738904
0.0573378415659616
0.0442104243013474
0.0618731168940764
0.0244438366029373
0.0502232566075486
0.03981786489892
0.0505406720100784
0.0244628565208303
0.0477195114495389
0.0453492944304092
0.050212417824005
0.0350633121110919
0.0691391446339905
0.0184378935383835
0.0843146856852018
0.0219967345047735
0.0652522587123893
0.0245599329396101
0.0439066147905171
0.038892585341374
0.0396528156500134
0.0414002506659447
0.0426804321579549
0.0543039153450392
0.0475147565814787
0.0519312873087567
0.0576854680402087
0.0504709361170542
0.0531822766759362
0.0470779547220785
0.0572568432509195
0.0322985072374067
0.0537164742850265
0.0199876785950925
0.0644571786117008
0.029019111676959
0.05699234614642
0.0356943154784969
0.0471401694379889
0.0350218498634577
0.0465025614915928
0.0418569806199
0.0609440164218652
0.0266027057238962
0.0531667840005035
0.0372606161313525
0.0573486726007957
0.0457509395729047
0.0678957254964343
0.0265918560722059
0.0586676939766659
0.0278926830639604
0.0472804461986888
0.0489889521798559
0.0375268773937918
0.0382781599329712
0.03583058876415
0.0390177524810479
0.0481236334424357
0.0330628895592392
0.0512312501452635
0.0404328436097064
0.0561731552982956
0.0451213811262366
0.044095029135043
0.0424570844796829
0.0473144892331421
0.043455774219364
0.059068104412134
0.0566608896133623
0.0393695267082865
0.048313706244204
0.0367741596109325
0.0443764291068617
0.0461755626293332
0.0482289063570607
0.0547488370549562
0.0383703495409888
0.0440750778454391
0.0391481252588576
0.052642818615117
0.0442848364408064
0.048816589936965
0.0428574525401071
0.0513835894593368
0.0454518011306256
0.0464211231895445
0.0435736314952086
0.0496264744293627
0.0464496354637873
0.0558889271395145
0.0422417529859421
0.0635246471594608
0.045196138303215
0.0563164863949669
0.0419109007738367
0.0484206726814672
0.0420553555936512
0.0503694525212675
0.0396047631022411
0.048869436206297
0.0399473018960392
0.0549960312027309
0.0535637686190157
0.0451610067831922
0.046522627188868
0.0408029510666904
0.0668281011251121
0.0383214842212898
0.0624481212846834
0.0437403015768304
0.05385756905353
0.0382086565745584
0.0623057435027837
0.0489889711035906
0.0452187087878757
0.0559091709436363
0.0612044659956423
0.0364590179978732
0.0462348315178628
0.0508310238877553
0.0516010162918586
0.0694489038126951
0.0358968094246228
0.0721126395943505
0.0554882919679777
0.0446303054139123
0.0515208609191347
0.0437419595310993
0.0646132450550011
0.0726763279737366
0.0251388517270969
0.0488779870798993
0.0498033983854507
0.0495429909568668
0.0399420736413569
0.0643635788845045
0.0394124832309361
0.0702482330017145
0.0523155486781841
0.0857340087498511
0.0559083276323007
0.0301257294621726
0.0790368822324089
0.0388220033404346
0.0516546982973179
0.0370785679544992
0.05482609064043
0.0552941119154522
0.069057329677876
0.0504845408556811
0.0597217788614033
0.0384228647135083
0.0556023019288557
0.0579151831907609
0.0539264969591108
0.0532110056318528
0.0559181804890987
0.0607178077427357
0.0549355019661
0.0560811967657432
0.0531447865418886
0.0638556683643074
0.0535753573586306
0.073616377526945
0.0653037838981553
0.056551038024723
0.0627365078784766
0.0567357374305089
0.0511457230447199
0.0579049916863635
0.0591052906009377
0.0590634279121358
0.057371914808657
0.0604264825690308
0.0552065661691983
0.0773233758513974
0.0501749346898419
0.0610703626946055
0.0591326620571541
0.06726172892781
0.0569362352832133
0.0623599686694566
0.0648623881000763
0.0700658073511679
0.0636342892870679
0.0630093490756915
0.0818738746667719
0.0737269419297929
0.0564474063675363
0.0940738082747258
0.052898094111537
0.0742722639872192
0.0651342932745975
0.0782146806959392
0.0733027086244657
0.0671893970900904
0.0711974475529256
0.0723829284615737
0.0751682953453799
0.084322050233656
0.0733133586438319
0.0766231496762244
0.0854147065117506
0.103713490360496
0.0951643801624241
0.0726048099181459
0.083718758313074
0.0769923220659405
0.110706698926728
0.0660351686350357
0.0969772415029372
0.0836405394153217
0.07910437529429
0.0952500787166968
0.0880261508460561
0.102981853515019
0.0915803905712452
0.105241480296884
0.0896032088825
0.105938459715296
0.0998014595302019
0.118315247145921
0.0987870361839482
0.115897279083668
0.123103191735786
0.122284943761033
0.110348089774543
0.118535102185305
0.105994463635925
0.130843784507732
0.122041055016197
0.156127628446693
0.0973599630881022
0.145391766694216
0.139784489258109
0.122762321310583
0.133399832003622
0.124034914718036
0.140814087441901
0.147233919106972
0.139108238932423
0.145827936067307
0.154993798012893
0.147421236897452
0.164139252446174
0.155851225695799
0.161805995254402
0.164201666130496
0.191383610796414
0.166107602925329
0.175561007574682
0.16654090706131
0.187563445362672
0.176848476009134
0.224507391106542
0.172335499223157
0.181829312188358
0.19286684901103
0.198050482632158
0.187768123135307
0.200345128017508
0.210712585561395
0.209115056965465
0.229348799404967
0.220861412922821
0.219441156804793
0.220616112023318
0.213760843199831
0.242264882650539
0.232287225644475
0.244897050170303
0.249961805238659
0.251004342010388
0.229355968341654
0.26848247563877
0.255918541380607
0.270107473384074
0.274549437673889
0.240193006896855
0.26997967398156
0.252838675959092
0.266344421910022
0.271924486629872
0.285486366631342
0.28990289252215
0.289472993700051
0.303213310816905
0.283605732016754
0.295437102911192
0.309382565452761
0.301087768343528
0.309932920108492
0.312604321891568
0.288054946024262
0.318725202032433
0.322542142948446
0.352829480117737
0.336448262250784
0.356090471794403
0.354273993671968
0.327698539948922
0.339579746350451
0.340129554149104
0.366220978512223
0.361351509009001
0.367498565554468
0.375695032965518
0.384813437507472
0.391499530719565
0.384923399941115
0.392715845689507
0.400751835272151
0.394584078430492
0.392276526478795
0.408089581393844
0.389075276358579
0.427100042109755
0.410749531450718
0.442289306180122
0.445384419949959
0.465566322515858
0.457254168487396
0.440196219746986
0.44808981003248
0.444707484590951
0.430915383183667
0.460956452301351
0.477005409587523
0.480332680864635
0.493926702759637
0.483000171359086
0.477140717832309
0.4998730498644
0.504061377372514
0.502316948782448
0.500476936639647
0.51067139783919
0.496239430449478
0.552408177984149
0.526017342092155
0.546306059510078
0.559498870191013
0.548063237618098
0.530789983562576
0.553622962706979
0.519478060762085
0.53876699328477
0.550509581023195
0.597839635711375
0.568071831034463
0.611551218320442
0.572159973798557
0.618121901376929
0.575520381688053
0.612275422975826
0.599478732808456
0.591645708771547
0.602411272090912
0.615736402218823
0.630568211384781
0.644545754030802
0.661450221978062
0.706246295239689
0.649646607186203
0.636078862119282
0.661070345518954
0.658005268740441
0.666871839983382
0.727288437150023
0.67199940561643
0.662349970630383
0.681076337924118
0.723737294876529
0.673426350807864
0.708705915924724
0.698966482032638
0.696417100629911
0.660790881048906
0.727564367632397
0.722260576285156
0.755497719328038
0.759622286893906
0.753688952370159
0.751191577944685
0.797410442321814
0.727621237419198
0.799080505435145
0.754821359536339
0.757865777834364
0.731029374795448
0.823990859645021
0.804173241187446
0.869358881048528
0.780957841018993
0.809808363339249
0.779076383245359
0.838896922153318
0.822998455169912
0.890251399268132
0.821785785305766
0.869126191504261
0.783480697996071
0.916203980591234
0.856668932015621
0.960039889044798
0.824312567570931
0.885168437914424
0.922083622363117
0.927405691825526
0.813972021083345
0.881291580220842
0.845361651216522
0.960807624771711
0.879896838153778
0.910660272078638
0.909123758727447
0.976183474016225
0.936009225594278
1.01378759996139
0.954437698094674
0.963452000359316
0.917197579903318
1.02419958041288
0.934162566092965
0.964623921732405
0.886094846324607
1.06267194025749
0.924058892066438
1.00837173529665
0.974858930477749
1.0578563790451
1.0351745697234
1.04382507162912
1.02018731420593
0.947817684097904
0.992315012601746
1.0289055320739
1.01186080599123
1.16750035286544
1.0337933005428
1.14868154527267
1.02312338822519
1.12998535756893
1.01490406619321
1.16780119256257
1.08694465444859
1.19823394820072
1.10540476023234
1.14925270677469
1.04575876974596
1.20098404223294
1.0762420954204
1.14475876649448
1.08324339391982
1.19304721607408
1.11763098153533
1.14789607663141
1.03769237020037
1.08148445676301
1.10705441830363
1.08995296110454
1.1323817041872
1.18725203166648
1.18778706419494
1.15236856536315
1.14252603239955
1.28987771124485
1.1424847284293
1.16893106179143
1.05900326226127
1.27091952874588
1.14252214686625
1.35810416952718
1.19596588492097
1.23714341492083
1.114090034325
1.3487468655007
1.15213739165285
1.30490503370805
1.19481228921923
1.44316905168146
1.17960073436245
1.3419910140549
1.35776792409833
1.30068107891968
1.21660598704039
1.40069819983334
1.1558749729406
1.52160633821668
1.17114438751639
1.20544113481647
1.18339485166321
1.37153723561291
1.2276152925863
1.27400520678921
1.20129171982352
1.30683190094031
1.18142169663194
1.44802340878161
1.16403632483549
1.43291716882841
1.33459810700286
1.45343702086876
1.2884710858976
1.42864777578972
1.37144141482724
1.55042737138859
1.25601089400393
1.2951225560451
1.30669509157983
1.44521464703566
1.35208964502626
1.63395520228928
1.32677524434373
1.60399035673965
1.2746414322135
1.46307799663268
1.30986317155336
1.53878970476224
1.49303807971275
1.36691638022899
1.34799773580736
1.53807437570085
1.26813351040435
1.7273168636175
1.35085930465397
1.71294843365156
1.38417451718946
1.40364023777633
1.36609603894938
1.48871489160024
1.2620579639497
1.58110445741588
1.45799216268265
1.67925514599065
1.45659963991934
1.50298450798857
1.49805418630946
1.70291929852937
1.50335988005914
1.38920788289492
1.3347337442947
1.49948017424579
1.60464000963915
1.51822287142732
1.33331168367783
1.66210172966806
1.42401729824181
1.51379505124928
1.32500925455846
1.66937743717173
1.37432505224625
1.54552046354884
1.34506262588412
1.73641779031867
1.46089444192228
1.69921623409982
1.50448395827223
1.51316397320866
1.37316513581619
1.51843096509369
1.42129098972502
1.50834182596883
1.3389848819558
1.88381216403085
1.50616644880574
1.40656686120004
1.61653079758663
1.77270799745475
1.48777357338591
1.65308059510164
1.38789057014763
1.91034260728444
1.35198016752347
1.66647423612218
1.52131982027947
1.48650679836986
1.53628115547078
1.63244395564081
1.49338003167279
1.48886968964335
1.52512299083725
1.61838789845605
1.33466884218842
1.68046577186837
1.48499868237463
1.60196006253412
1.3309724372164
1.62543459215685
1.50475492111251
1.73891758271179
1.44918967814617
1.48610886222393
1.5897325593358
1.61251460512071
1.50809228004937
1.6921229250724
1.29388016030057
1.48371876708202
1.53876043362068
1.64634124368894
1.57129939619916
1.55739410290692
1.57490421785763
1.87662061753541
1.48314922121477
1.51377514746964
1.45961122302934
1.61903814035281
1.59197435211983
1.65676219243242
1.35202913246664
1.59578482563075
1.44169054248487
1.63375699554081
1.5415072612451
1.57998907277593
1.55898435134651
1.58528418950249
1.43415847494383
1.51965062487423
1.534963802994
1.54099358680173
1.51086764030749
1.7338632333229
1.46403712678927
1.71260605369987
1.65051376869403
1.56077283944454
1.46930095100184
1.54272059001726
1.50590369319345
1.53493769709477
1.39952823452552
1.60837333767535
1.39256672209809
1.69249912856535
1.32529014382489
1.56805306504079
1.50976719686147
1.66461659549285
1.37511530359309
1.59250153243009
1.44391815897984
1.65146496741568
1.55787043604771
1.47667698554565
1.37116316337269
1.48951940891397
1.4494899677973
1.4184578151104
1.51178626856542
1.4400424645064
1.48613444286873
1.45743908682724
1.54602398447376
1.55286709816233
1.49135377922173
1.61824961428952
1.4534332358541
1.82890790101993
1.4777485057696
1.52761933142842
1.43322276746708
1.45999718689868
1.42360081064165
1.69790580012533
1.40745032240817
1.48158734126324
1.38777805530093
1.557150961812
1.47830433816311
1.51123472135071
1.42529367014359
1.42374133609671
1.41447412399377
1.49490609245963
1.4305351938121
1.38038674048439
1.36347957049522
1.47922391763775
1.36715814383943
1.51555046744526
1.33932717565406
1.50202722306337
1.46799031276339
1.48384467264641
1.4478265632831
1.53966071075716
1.35376388493199
1.54689227862704
1.38371446543059
1.46513635707885
1.46788217779264
1.36402604399833
1.41992153024153
1.465711733767
1.28853955807657
1.33584602325814
1.31246811455067
1.36982381214975
1.38039290706936
1.4063486068446
1.30942349514785
1.33523839866672
1.22504674280364
1.43826589484867
1.26980810506262
1.46680887479495
1.30823545218412
1.38179778649056
1.3105519407726
1.33194121777779
1.27452599729717
1.46322622780166
1.35264032518721
1.28855839226935
1.28600081518102
1.22914632244713
1.30812998377206
1.35284176064321
1.24139044870949
1.33824604144579
1.30054603936551
1.34692687353161
1.26366690211056
1.29092278249835
1.2437504230712
1.36619169767462
1.24756944534751
1.21216850691341
1.21763925327955
1.29779669331475
1.23887131377704
1.2703419822814
1.24039602885811
1.28461647737814
1.16757514132817
1.22733299309585
1.13597071767681
1.18278634855269
1.23906387705023
1.18911889821009
1.17700005683186
1.19446590524192
1.16813653272608
1.16601368126978
1.14240067475927
1.19511534086578
1.10725940658339
1.15552282935902
1.15618684761903
1.14050032211773
1.08361870040129
1.20124526896471
1.07371279311546
1.12558360799906
1.06590618254495
1.13935482294647
1.08049544814817
1.10540425532786
1.06162546023339
1.10510758721814
1.07951125402763
1.09484749767373
1.02665580412876
1.12890087839195
1.08244211562952
1.11071999817901
1.01770473405098
1.04050600831113
1.01990302765982
1.06152662730083
0.983448047148016
1.04372277544093
1.00447384313794
1.01484984093755
0.981239173514644
0.996515256167147
0.966616886021493
1.0019425464002
0.977882970114472
0.994703299389636
0.930934288437243
0.966607809191679
0.935195022478839
0.973444164307218
0.955091710467902
0.959289254571149
0.934342406428892
0.924164518890092
0.922206354299951
0.928129525203105
0.912675851160091
0.916161026711285
0.902646414863267
0.925114322697128
0.868098251078685
0.908926762790335
0.880404155806684
0.889237186519103
0.852705828960404
0.861435912354224
0.845604320951415
0.860537877945516
0.851898912975255
0.88486714084321
0.834005165076605
0.870231539943379
0.826479317278028
0.870822917376189
0.841805631960774
0.845128414823228
0.81711749797088
0.852673975559723
0.813171503802525
0.837772108067586
0.805512951778656
0.813384680299106
0.794419168065195
0.792200180015168
0.759112194748493
0.79117293842196
0.777142169911675
0.794255125839954
0.772021584058813
0.778423243837005
0.75049991491265
0.744621257357684
0.745010583313501
0.784914266825443
0.7437776456734
0.745235359144144
0.723042489912124
0.730347359274825
0.699383374263046
0.744389574658875
0.710207082141317
0.716235719469978
0.685550321068096
0.719883249931718
0.686738626703658
0.708944199826653
0.700514871042935
0.700851553505728
0.664848065749918
0.69277714084199
0.672175059936356
0.686407170028962
0.673134683263589
0.674218225621235
0.653041970650239
0.668596441593767
0.640571114024257
0.671318453390141
0.640617338012025
0.65033282424811
0.630008641776749
0.639522542397122
0.63842652197155
0.639906438851435
0.623399320175289
0.635944379052645
0.624604666872901
0.622477203700817
0.603424760675257
0.605950255879938
0.584861495659221
0.597402924529114
0.586043667222275
0.602743237952052
0.585932588979665
0.594356300143221
0.569937553707419
0.581669057994794
0.584421405163046
0.586411646255936
0.566094809473736
0.572260654798423
0.55252170216133
0.56836160439842
0.551655511395255
0.562760754246365
0.562201179017976
0.565208824555149
0.551561586867743
0.544789679678756
0.533804914148136
0.551863524843532
0.538145535375873
0.526588461925091
0.518937673164654
0.539262033293713
0.524453148692369
0.524306390544313
0.514019275849171
0.532314399151921
0.526488573659675
0.517876402045951
0.499586464604015
0.514367842009078
0.508694404424281
0.505433334545707
0.489076577436159
0.502064809929617
0.491173024352932
0.493835974118355
0.489247341028982
0.48906893400799
0.479478893123958
0.487804016967278
0.469584555022207
0.488913904581817
0.467748808180411
0.471271017700354
0.470210763456736
0.476801399169085
0.464510763119419
0.479743653752695
0.472794591773816
0.467283886374227
0.459997171069392
0.46564909996228
0.456363836926518
0.463692908008994
0.457545188625075
0.461525685194079
0.456316788654942
0.457152012790361
0.451089303181649
0.457264539671406
0.451825046968429
0.453813221525498
0.453305077534687
0.459082391899042
0.441688732742265
0.455729611616947
0.45431683477134
0.454773994701067
0.444308853024199
0.451369677960795
0.450036560822001
0.462825975715314
0.451425751660737
0.454827065765374
0.455104374993118
0.463221717575115
0.444572805680707
0.460330919639922
0.450266584488478
0.456763623117555
0.451054012973005
0.464054330139331
0.46151227101213
0.468663690990661
0.462317898841498
0.46667331227543
0.465074165474632
0.472216883527606
0.465050280047482
0.483709654311942
0.477590223212619
0.47626858966593
0.476312635168136
0.491987498360738
0.47890082720389
0.484438195971437
0.485734209158736
0.502888059666309
0.486365249753679
0.499953312180791
0.494877651378491
0.499603444290849
0.495612711128218
0.515748732308973
0.511066158743062
0.520019053231022
0.517412858118134
0.528203788110452
0.516537684217453
0.540925977443835
0.528062941895107
0.533500654903395
0.543712719530316
0.548936263338058
0.539739378442519
0.544523897049255
0.554082069033792
0.574876767777179
0.557136182692604
0.575793818688347
0.574083863017679
0.585523702679683
0.589438590777989
0.600968915006616
0.5971744036419
0.616091538116665
0.606239203379853
0.6173532537425
0.608882499384086
0.620708766663856
0.610608475838026
0.6255452954408
0.618411024836726
0.62916727125858
0.635538334875859
0.648108452928391
0.635781984003914
0.619577648085962
0.615277376921402
0.634243117339458
0.610773912657712
0.633785098843473
0.625169428817407
0.638811228954358
0.615472124448375
0.612451437203825
0.619478138666529
0.62426095370115
0.618911155427671
0.632908950818215
0.599954012243925
0.612785013604855
0.613924101791716
0.611952188945491
0.61209820778411
0.611157498023065
0.602623462320439
0.614544067541042
0.597497168344853
0.602855568023806
0.59674147455268
0.606973129082878
0.593204733222154
0.60215228261462
0.606757592877992
0.600465987197004
0.59619128506874
0.608753883950711
0.591753749154083
0.605498933265773
0.593462871146618
0.607508892097197
0.600267029933369
0.603541315332135
0.595349334490139
0.603624302370406
0.591510363143568
0.597349680791048
0.589856450409489
0.592500070070989
0.5904515061042
0.584581705828473
0.582011592115912
0.594171768389758
0.57690411452497
0.58227588808504
0.573943842362505
0.579623633089648
0.563687761035847
0.565875799824791
0.568304231642802
0.576199863301685
0.561059603856863
0.555382872810001
0.550309852241765
0.558901582279644
0.551370659856917
0.553332785925436
0.542757437850777
0.548635362621552
0.530488688304176
0.525093587840273
0.520673672684924
0.526546967216955
0.520680517393878
0.519390183088722
0.506314962419182
0.507837274051531
0.492509962902042
0.510592727465068
0.493347316018399
0.491707643061385
0.490718381349476
0.488947038508884
0.476842893377925
0.481257130730362
0.470653412152124
0.487397176615597
0.470456676524295
0.464095697802116
0.468806464015612
0.475775356959564
0.45765776899971
0.45527014550297
0.453593214094698
0.456278698562435
0.44564854597515
0.446411941065167
0.438023792160162
0.441271999353189
0.437095802334972
0.442338486371529
0.432239942906283
0.432812584970712
0.42166854818694
0.429136013616646
0.431049320837267
0.428247477656987
0.421394095051284
0.42775772800754
0.416477723209311
0.417971155528193
0.408327572254453
0.409639315671384
0.404199921121906
0.407855377586494
0.406138089364617
0.404392134826371
0.39718133872616
0.40143424222097
0.391880216218059
0.401167442934433
0.400749379220288
0.394429040793785
0.386919767592247
0.388946867298447
0.38092358639151
0.382329488846718
0.377400507424495
0.386114089443711
0.378254470294611
0.384287265273352
0.377534829041779
0.374975616506527
0.375301554267511
0.380892973460342
0.366984049632864
0.369059156984344
0.371749375249049
0.371096423676826
0.366096961646216
0.370627905527897
0.365081942831034
0.36862743873197
0.361395177172611
0.360853584541265
0.357861556943572
0.364439815257077
0.357677479914292
0.355508858214031
0.352822513596663
0.352247037204144
0.353235598418472
0.356831597137649
0.349873358964783
0.354578305132295
0.348686164750604
0.35292111302516
0.346069716315727
0.349050877042223
0.342213502702245
0.345003707864416
0.343141991835735
0.34215917036765
0.339264765488497
0.344095163442718
0.341303908090946
0.345005571302877
0.337773221493371
0.332439438583694
0.333688002200147
0.338934303729833
0.330921052825067
0.332841572044221
0.330662486080788
0.332067149348034
0.331004236294757
0.327281540006401
0.327948449010461
0.332537176724041
0.327944579479452
0.329004997834336
0.32701172359944
0.329985246220906
0.325435512829298
0.321393722183489
0.320260991123734
0.329526776173784
0.320829679895235
0.322672690990277
0.323835756470597
0.319516268994797
0.315037904063207
0.320179481896289
0.3210652091482
0.327138894059387
0.319554224439767
0.319129545216583
0.319453493047652
0.318028679424152
0.314904617178518
0.318054442871959
0.309832212069208
0.310867592797233
0.318502605450664
0.31516309705356
0.308746850831608
0.315526748491334
0.316161680008046
0.312925158174276
0.316199776211087
0.310361205904242
0.305429037040312
0.310842677481594
0.30670923177246
0.312643348316217
0.308977624918865
0.308602416260843
0.312319046944911
0.315160527078406
0.302353201153692
0.29994234370712
0.304599492279762
0.304152490684123
0.306796925072331
0.305994719746456
0.304407483067679
0.306010505524137
0.300954988325387
0.304176341418092
0.30311505156957
0.300679251047825
0.299723435791107
0.30119812834393
0.296251686524951
0.299320476594225
0.291617815698049
0.295587571003649
0.295986634457539
0.296891462169915
0.298820784898092
0.300087484677357
0.294651928946848
0.29801359005382
0.296872140330466
0.289680486484437
0.290440766799601
0.292991529249759
0.287114628699472
0.291582857169214
0.288064349716948
0.285606854176807
0.289052736358184
0.289242348867606
0.287150744933609
0.282751441300581
0.283897774422877
0.291449996535434
0.287956779915702
0.283965440665507
0.280792630267647
0.286943980268597
0.286469419128246
0.285721582191075
0.282561988744452
0.280426044468005
0.281489148033492
0.280380198281178
0.280355520147339
0.27956804902527
0.279220842345303
0.280001778705085
0.275411023717006
0.275533096964131
0.275463843418833
0.282993571650168
0.275926832974195
0.27080160843454
0.271589483389709
0.269857925969429
0.269803914860122
0.274026983720396
0.27109522538893
0.268417096753375
0.27180624647669
0.272120062995516
0.266116071158716
0.264897054133786
0.264693280871025
0.268849996331568
0.265568092863137
0.2641031681715
0.262766104070789
0.261799139699031
0.260129428913022
0.26263321550438
0.257183840003758
0.26141638763989
0.260706148993524
0.258610243473647
0.259992096680358
0.251427492177111
0.254363827960838
0.259022687588457
0.255808834467259
0.2575790870408
0.254118738473607
0.252133102365608
0.250666556056548
0.252426022986744
0.247966439693287
0.24875119355446
0.250471107669221
0.250987076953632
0.246409548427515
0.247822407508058
0.240789733486862
0.242458559464511
0.248180096915352
0.246415758176409
0.241439378836103
0.240230774218021
0.238612872228564
0.244419385412986
0.24076963390418
0.239777801371919
0.234130818923341
0.233350459359483
0.236454907000751
0.23743944191182
0.234356945654103
0.235383393662449
0.231447754883387
0.232940318767639
0.236468355460429
0.228159486282915
0.229650971041002
0.231523595403887
0.230215959506518
0.233436244130704
0.229705388574994
0.22908413074906
0.224413669326896
0.222565187977873
0.228611889512204
0.226550962460492
0.222146347234199
0.226125002908621
0.223756604755056
0.226571233298517
0.222715818773491
0.223260052014855
0.220247443393383
0.221584068059324
0.222621378875859
0.224448677679823
0.217341439418876
0.219130340567398
0.222809853101497
0.215125533687629
0.216919710793685
0.217073607736948
0.214587808982451
0.218073635950069
0.217273200048806
0.214377891000574
0.218958706819902
0.217351159587852
0.214024647901222
0.212574833965396
0.215022317778247
0.212983079184983
0.213056127296309
0.21094304909645
0.208869396069032
0.214505483115412
0.21263295509842
0.213567563051168
0.209738039027012
0.20985920035789
0.210429367475573
0.213182531571512
0.213367503438845
0.209372420112094
0.206311720198701
0.209010400708523
0.207596825183524
0.205221789469414
0.2079220805223
0.206762941759469
0.210364248919486
0.207145621807191
0.206141847582507
0.205724049759208
0.208032560859242
0.203348789083875
0.205776175160972
0.205650936226882
0.202810556597313
0.207994424395357
0.205388215787946
0.200236865656973
0.200289037101455
0.203458212991108
0.202191824985091
0.201233788530137
0.205393716145856
0.203359436359889
0.205305612209626
0.203093722385301
0.204070289041899
0.20254061748418
0.200653121708733
0.199126559203347
0.200043321325534
0.199458396974456
0.199617654373141
0.198345516914548
0.199880438284609
0.196127110006408
0.197133195206572
0.197164407417893
0.19900120538126
0.194193434078586
0.198507455768853
0.197617727486686
0.196738339828385
0.19493314885385
0.194616461819043
0.195379923935935
0.19564346293077
0.195799603144892
0.196541053867977
0.193806343924476
0.195432692836875
0.193208374118827
0.191880277340967
0.194151108853487
0.192346403106529
0.191148058472415
0.193798135692554
0.193420799992051
0.192905329976777
0.186752599408512
0.188345880767081
0.191082553130493
0.192632695809045
0.189506119485795
0.189304837823447
0.189884955414899
0.192527236993
0.190635597542199
0.190351035111609
0.188223944537756
0.190270816929618
0.189583937016203
0.188919930563249
0.187234682590243
0.184944116952703
0.187974061475403
0.186945987013019
0.185996583823417
0.185491507129345
0.188833521204647
0.188860449499879
0.185427107121213
0.188256349794934
0.181850537001018
0.184835337602412
0.183347220676387
0.187896938018593
0.182695005439808
0.187183017386727
0.185064786190541
0.187465940242934
0.182953412080095
0.187212739046501
0.183813009188327
0.185507687877799
0.183331297024735
0.180121836693264
0.180841323071874
0.18294942390691
0.181683141581323
0.18366999698693
0.182802960966324
0.183554986418169
0.175984444292279
0.176538482236889
0.180178424063144
0.179003850864765
0.177516820776945
0.181803395779914
0.179424844211357
0.177566913899082
0.172269807334352
0.176261215277972
0.172951109766343
0.176504402147345
0.174700311836319
0.172151858947864
0.175182265649845
0.175690934279861
0.171284445002757
0.17334111140982
0.172904115294669
0.174470950353428
0.172811082991122
0.175367783305824
0.170927276307558
0.170589118846576
0.172835253208597
0.16758427808125
0.168079702953591
0.170564188111912
0.168927077586736
0.167019332633756
0.170993958109922
0.168598566869674
0.167470909396075
0.171270552162236
0.16738015979787
0.170300001509935
0.16533689707505
0.167486288393216
0.164751295293449
0.163175257677064
0.164546618225437
0.16411535580013
0.164688225412635
0.164128957328947
0.16254155132473
0.162948663176295
0.163224684750342
0.163776432510857
0.160581530256465
0.16045087573416
0.160675813868644
0.164142252339549
0.158807899980235
0.160927234755919
0.156080464769175
0.158957225496804
0.159035181501477
0.157544649313306
0.157049971634464
0.156567061077402
0.15464201071631
0.16041267910284
0.155403386247319
0.158649098318013
0.152666649616285
0.153943987106204
0.156910781204132
0.155841737200624
0.150264804112804
0.156789080379015
0.15330244396583
0.15304852619909
0.150267417797306
0.155735226557727
0.149328695540483
0.15306126636455
0.150751345081874
0.149992682035891
0.149953554259349
0.147706735315506
0.149730435864206
0.151829026934013
0.148605969510945
0.151969014775698
0.147031564485845
0.14923935939379
0.147587782857686
0.148032411162794
0.148111344590611
0.151082492579932
0.145475720593334
0.147763137850926
0.147856675530242
0.147422167074046
0.148172740558306
0.14661763734545
0.140676246572896
0.147717863336834
0.143498009913358
0.147111518935777
0.144267352357195
0.146636492025297
0.143038377726251
0.147796336532104
0.145769746386779
0.145243899406996
0.142874845811267
0.14461971523643
0.142635995723599
0.146388726666395
0.137027714437995
0.141303457848605
0.136432194987657
0.1468422312745
0.134780849355764
0.146364709602765
0.138059215708029
0.145625949965287
0.138348498528398
0.143098200805207
0.137847295560272
0.139330086919842
0.130763189290853
0.143478623246811
0.134030438429148
0.14369074818361
0.138282404526686
0.14503375038172
0.125207629437682
0.138809806065348
0.131178039444793
0.145710667917858
0.125508133298058
0.140469314778011
0.131018163755183
0.136767940895824
0.13025655688633
0.141104590115901
0.125162882878725
0.137916866773564
0.130248087591764
0.139446361378501
0.125222360783851
0.142456356932538
0.125233219827414
0.138548719790319
0.122305195772483
0.139276912657621
0.121583704329828
0.139102382970398
0.123206214932861
0.139975306223486
0.125133905562593
0.138673319476417
0.122711686828795
0.14722817541626
0.126987120513576
0.140597902209379
0.119663534486759
0.135800238792909
0.118992652619042
0.139815692280558
0.130673847794713
0.133364525610964
0.125208914229001
0.133514075693531
0.137052539154862
0.130315337098277
0.142883277487622
0.119348982157426
0.144575472548934
0.118371935887392
0.154620628457984
0.1054204134211
0.155665865187714
0.110808229004373
0.152396136816952
0.109233782627377
0.152480508140617
0.110950647566029
0.143846917367867
0.122271058312635
0.134266559919918
0.125558334135054
0.133644632478472
0.131654566619972
0.129106871067692
0.13312705476623
0.131129404647322
0.1267695270966
0.13393555012505
0.126391409543344
0.133512804325601
0.127549594500133
0.136057308434114
0.12478987503337
0.133120303612328
0.130607662113947
0.13131791609088
0.127819695902435
0.129947216632776
0.12750409835917
0.130968688435188
0.13086481026589
0.130768364776988
0.126782589394124
0.131270374219349
0.128562332556926
0.131743734638889
0.125468444245847
0.131651918061577
0.127378501401129
0.128544197165179
0.128130834795964
0.132407128467228
0.128220701803477
0.132123726229713
0.128417861124626
0.131129215840392
0.127245880479729
0.132233625457288
0.128411658792407
0.134452816372375
0.12808677520739
0.131121731628025
0.130530314435401
0.132086501806014
0.128834540299067
0.132478596401572
0.129067047019799
0.130722662445429
0.129597430936418
0.132264019526067
0.130142310694486
0.130124789577971
0.130574077118302
0.132810995548583
0.128897423762699
0.133870254013681
0.132277071110853
0.135083756737508
0.12861361243663
0.131824638490943
0.128271300333394
0.133963639508732
0.13035821852973
0.130677461993218
0.131574680453156
0.130692698617352
0.130748360388094
0.131879299908087
0.131174775769497
0.133560714652402
0.128106308196085
0.130769690436865
0.13123160527429
0.12947042723886
0.130461224116072
0.127690817030462
0.131820939650815
0.130654729364207
0.128105269430023
0.130677439804477
0.132443241126494
0.134285936620348
0.134099311990679
0.132020446260487
0.131090196174615
0.132387655665812
0.12900065636934
0.131859881963574
0.129395185728119
0.132957525491752
0.132077448565108
0.131612828541235
0.134727482885883
0.130832843187666
0.134487377333416
0.131024955909076
0.135219970965601
0.134229680956715
0.133719267722108
0.134767011849963
0.13449645925666
0.134427549144864
0.135623216171296
0.13351581577333
0.133132012904857
0.13624366811609
0.134401108540013
0.134186664889033
0.135621979592837
0.136042181982455
0.134835873879639
0.135199674194376
0.136858200574574
0.136712446286958
0.136301992301194
0.135756742003189
0.134562292201677
0.137629461156255
0.137588201368509
0.13885613040173
0.135014698279204
0.136782438615589
0.135231961518207
0.137649034537292
0.134937934587139
0.136925706271121
0.140113271834983
0.137849902188735
0.139338347933408
0.136632044167332
0.136902384302982
0.139761502525863
0.138945027706015
0.138670275770501
0.138003891386301
0.14034714773761
0.139146336096076
0.138643535798964
0.138887441978305
0.141592240421595
0.138828744696999
0.139316564106543
0.139201528402133
0.139343910362289
0.139310522032005
0.139908446464787
0.140287546378424
0.142241272059712
0.1390693739654
0.139638827233081
0.139998886557778
0.138913656231422
0.142738729490419
0.139240452227241
0.14105580599755
0.140675475043633
0.144324343236862
0.143671562683476
0.144645341742102
0.143712891387656
0.143197099826037
0.143178275773213
0.14218362296065
0.142472437801755
0.143604709337817
0.142384036367529
0.142817618932056
0.145342096370678
0.143400774822001
0.141787510875863
0.141810540674909
0.14390318383734
0.143843391273417
0.143077027646431
0.143075197886262
0.142272524484402
0.14264884829618
0.145850824509005
0.144655565682907
0.142901726037347
0.144044168379098
0.141356683047503
0.14365753021361
0.141268892447639
0.144046455412811
0.143276710087958
0.142733587086778
0.142848021496357
0.139615823036828
0.139148542574532
0.141166232179023
0.139681021933971
0.141379102988003
0.142639701340874
0.141627983557204
0.140229938742924
0.143504632248019
0.140707179920565
0.144425076371583
0.142055988392111
0.142224672240512
0.139978663481333
0.140390030722645
0.139716876428289
0.139401791100585
0.140000318234597
0.1410934888597
0.139280779590678
0.140162981647979
0.14273725113072
0.141693772991487
0.138152630914573
0.140441760624357
0.141910554024674
0.139673950178846
0.141258815275537
0.140370166126508
0.138558857526175
0.140713843313976
0.139358380350599
0.140811172860932
0.138792273379241
0.139771292954387
0.139621872027434
0.140244837202145
0.137424667887991
0.136873193897652
0.137981128655376
0.140551854266012
0.138935704215689
0.139825792044721
0.136204291072546
0.137160079364075
0.135915472198018
0.139531112453429
0.136734227767037
0.134298470894082
0.136610351264355
0.14011765660755
0.137949179493017
0.13758828623104
0.137426799177415
0.137791003977469
0.13730646884857
0.13595010749222
0.136119669906992
0.136184817032228
0.136673903211578
0.136343128782023
0.135820797392283
0.136358893186118
0.135563929899115
0.136269558069683
0.135821789608259
0.135863308735233
0.134364619321487
0.1380769297689
0.131617477047315
0.135093770447677
0.135906197062407
0.133010200778919
0.133609339237526
0.140283365084518
0.133592909775199
0.133835851802125
0.134365941749785
0.133344822830669
0.133645652988158
0.137217139914119
0.133325250871604
0.132285240912311
0.133103022359288
0.132820390453147
0.132822505632642
0.133562285122504
0.133325663850477
0.133318248255243
0.130842716796599
0.134350293076653
0.13243606488212
0.131758152833605
0.130921258749534
0.128968254109236
0.132419132601887
0.13302926922132
0.131445821425609
0.131442175616998
0.134389021192533
0.134159399649738
0.131599780767432
0.132198264475138
0.128278741784699
0.130061915520267
0.126624916499379
0.1295832485032
0.128923721573957
0.128593726378953
0.127815555763891
0.128116761998661
0.125535629692033
0.129411989251721
0.126126249779699
0.127614228993717
0.125749476741423
0.124698575677899
0.124548880669312
0.125533203822962
0.124050424913853
0.122892545331814
0.120903608017666
0.123464746528501
0.122226906742752
0.123040932472866
0.121678448253384
0.124479707661449
0.117638723694064
0.121072156565969
0.121384500662643
0.120554617488457
0.119734999415006
0.119223695584459
0.118589770175094
0.12209372877034
0.117297704167358
0.118434758419237
0.116263268716407
0.117392638634436
0.114618028049813
0.116544945357234
0.114766391740511
0.117795980908819
0.113394038000139
0.114716306375282
0.114049276203622
0.115265819637319
0.113254740797176
0.115868144574568
0.115182804727701
0.118458351487253
0.114119347271203
0.116779831112799
0.115232598861169
0.113694912204532
0.11315012390909
0.113914981343411
0.111032324326419
0.111598509764224
0.112534126060146
0.112751656002018
0.112524437277626
0.109871383818118
0.111740694989118
0.109934567300099
0.110418440606267
0.110665100017908
0.110540122390466
0.112155815042651
0.109409743939746
0.11271498345881
0.10965222268009
0.111108351818672
0.109863695861711
0.10874944397771
0.110572980517981
0.106350525111637
0.110466419788423
0.110812610734189
0.111047691892181
0.108627643788528
0.111312938495237
0.105981213230782
0.107452798136794
0.1080220864512
0.109444001232844
0.10791086558406
0.11032968940064
0.109615136669989
0.108015954911901
0.109927332552607
0.108614754402226
0.107768896260885
0.107338941014993
0.108153040339387
0.105915965664455
0.104476727781494
0.106269011024049
0.105313650989939
0.106347170427734
0.104538151801251
0.107590468816397
0.105233727289185
0.106867335018258
0.106747408647057
0.108267078030437
0.114058782524679
0.102491334505154
0.110190359815434
0.103093353159434
0.108109911899598
0.10483952626582
0.107874777583877
0.102035019414007
0.107875644739638
0.102612706385096
0.103726447510928
0.102446958066719
0.105195540319309
0.102386103255145
0.105824970346891
0.104202183139885
0.104065814003265
0.098598046954969
0.105685714405875
0.103122463292413
0.105820777509459
0.104455247289206
0.105036518654563
0.100938119550433
0.108362426463226
0.0987514887650248
0.113341290546121
0.0962398573227858
0.103609745251844
0.0981552612764978
0.103436530517102
0.100511968283153
0.102063342078115
0.101509212414884
0.103462219186117
0.104571735670123
0.0988873805837916
0.103542470495924
0.0978849288358655
0.100088186565827
0.0993045058117074
0.0996131033926924
0.0996624038735724
0.0998608139329075
0.101406040018236
0.098166974312925
0.0994402373539032
0.0988050803435035
0.100106376300003
0.100029141934642
0.101106878357698
0.0998151869232397
0.0981559202081767
0.0976367042511535
0.0980505322748659
0.0989584854340302
0.103066406939406
0.106548931578044
0.0928705671372204
0.10095043213179
0.0965003971927805
0.103188920223811
0.0973162012792276
0.0981457196674404
0.0988514208792294
0.100893916188236
0.0987956086037382
0.0992919269782216
0.0978352799614632
0.0963705778519379
0.097112318432472
0.0973583073934274
0.0999369323684618
0.0955199512600813
0.0989332881452065
0.096378134231091
0.100995440244629
0.0963280219993747
0.106517014832867
0.101516820467597
0.0981464897652037
0.100657935923834
0.0969662921855814
0.0986720101451724
0.0948837595679101
0.0986719673523838
0.0950891719807885
0.0997411822580146
0.0946881049305575
0.0994167517462946
0.0955435784376271
0.0996105955047831
0.094652035421007
0.098467073436065
0.0945697243849633
0.0997318917354904
0.0927825104062832
0.101218075658649
0.0938489668716626
0.0985676977771774
0.0934202520149886
0.101199209179118
0.0942075256023669
0.0987158714912298
0.0938767021716776
0.109963181804069
0.0991016496007669
0.0924160273892468
0.103055994239782
0.0928137379433302
0.0984441680571274
0.0947256207635475
0.100078129576745
0.0977167200258183
0.096229138231747
0.0966231709693767
0.0976340314767003
0.0943433381146441
0.0968272599547522
0.0954643410356162
0.0998608008409801
0.103568345179094
0.0950597955425156
0.0969246210559873
0.100512090536573
0.0931178762469695
0.109104142870554
0.0935605616877697
0.10064587255932
0.0956174250311893
0.0984492282293492
0.0991284790173338
0.100579003143479
0.098346160000733
0.100407276185258
0.0994306130270836
0.0954439352027148
0.0989144645368823
0.0955939826378792
0.100235507225318
0.0994504244302595
0.100506042247208
0.102480987782446
0.0977327866427046
0.103588797021253
0.10074374074525
0.0993678086372857
0.102433307206728
0.0995199797222552
0.101541123200223
0.100766857862331
0.10342327662679
0.100835326290986
0.104808982288431
0.102653837460048
0.102082363132043
0.103594637451502
0.10062547462184
0.102635363290326
0.104181005931159
0.0997104602370364
0.119452848417887
0.0953020148743514
0.114487628787264
0.0947299097181701
0.108881976771186
0.0973980765781803
0.108167787680241
0.0949545123402149
0.106238006975126
0.0999706710078869
0.104149316114101
0.104643991165338
0.103602524752474
0.110317830822271
0.103690563147328
0.10641609756609
0.10566328582027
0.107408471588662
0.104185718932226
0.109819675727111
0.103090316497381
0.126187035823976
0.108416278418941
0.106076718502685
0.113969758423085
0.107588325153043
0.121847570692361
0.106233141743167
0.109924371482926
0.11111345721271
0.107809576303943
0.113354127573254
0.108815098925773
0.124014154647218
0.113348695241917
0.110684548910573
0.119976811120085
0.114361246972609
0.125630785337803
0.115272639077498
0.115473231784694
0.115899249944106
0.12193165213552
0.117887709705174
0.124229920203029
0.129407950142593
0.115816003580103
0.142347435193217
0.117499132501715
0.131194347613941
0.119786033352784
0.13247864132283
0.122320900442308
0.133637362757269
0.121081667908033
0.134999180691918
0.129131684956128
0.147729401409612
0.128162283605831
0.142150096261284
0.136202117942572
0.142614938476004
0.147978677805454
0.163795413110279
0.140840264200738
0.149460188101697
0.142591513678194
0.157784031406009
0.148464418390998
0.152991431518443
0.1540837788848
0.15522862056187
0.158108033835168
0.159476552546335
0.162239582272816
0.163406303143636
0.158452657772133
0.168058716163905
0.163175841650411
0.188833274884332
0.16963210471302
0.184028623606525
0.168373018555718
0.185405338065122
0.174417396002384
0.177611907708887
0.180047758289439
0.179135602987298
0.184273242623475
0.185940666980788
0.186501454302159
0.189314497605737
0.196178178766524
0.205087462906637
0.187874373230972
0.211867708500861
0.190365482670868
0.215973640138277
0.190228851989126
0.259525085791923
0.217170870483136
0.210427175027066
0.229145132196539
0.214498504548206
0.25491202459276
0.22719393781572
0.232907626577645
0.23953553510818
0.241808611121422
0.244117005683877
0.255960812237644
0.258132304046416
0.265066809611423
0.266098346118583
0.274031869302568
0.281869728944779
0.305753803014911
0.289137380216199
0.299622140419675
0.297620867821101
0.314629216446658
0.316858868463454
0.322879589215103
0.318115936480831
0.336252422355151
0.324491042929056
0.374512168940021
0.344268283441443
0.364899140377893
0.358491812317874
0.379462690799598
0.380438178656226
0.3857420697126
0.405585556278543
0.3820827331362
0.409422123933751
0.403783318355577
0.420482706489543
0.418333733475292
0.440232711650355
0.433418300659711
0.437156654514116
0.442371768448896
0.447457920332412
0.456456153813246
0.457225903351299
0.461797509887974
0.471945970338044
0.493099187725491
0.496900049372296
0.507807582060741
0.504266167676894
0.47751864317672
0.49182466825571
0.477964400200097
0.512031645435517
0.496632751429997
0.4899257513928
0.501953215374774
0.491952434379566
0.499883804108617
0.496257883633162
0.507725364634938
0.500836050347159
0.504964657757416
0.503808808343456
0.504706556336926
0.52366850452635
0.492100563150308
0.554470912702033
0.498159991778415
0.507227486543101
0.488897895744238
0.49612503876252
0.485819650577744
0.503763597714255
0.479953324366611
0.498180272261143
0.4804498045001
0.475717016248974
0.469357774784529
0.475150975592632
0.48630034409033
0.456443794590599
0.444377775076253
0.446169126503103
0.436499323276621
0.442462058360176
0.433305013184076
0.453168422365251
0.420468360560234
0.414185021110995
0.407067685911442
0.397420191344201
0.39702534079283
0.398529272699511
0.390343915885701
0.38591828789973
0.376814143942306
0.376716713411469
0.370228178503296
0.370931867944739
0.367791164497049
0.360077903079421
0.359164490136354
0.354612681522473
0.351098472226277
0.346272308076131
0.343678478732509
0.339653875085143
0.338627707822591
0.335066188723974
0.333786581017624
0.33045365599075
0.328775334417323
0.321285291824659
0.320019257227072
0.323541256998087
0.322259193672579
0.311294926452582
0.313176525592498
0.31641436741312
0.311502344540935
0.3047254387861
0.310330866490672
0.305781449127589
0.303629605822428
0.301954312943689
0.303223953165494
0.29461358857955
0.301377373680187
0.303805695572533
0.288422001108931
0.307403426977531
0.284038074095882
0.298218185996663
0.284220180667568
0.292854410992247
0.292866473983646
0.289257844274901
0.286502124651215
0.277823883010164
0.281145298342121
0.283056232886897
0.275686152384228
0.285305337540784
0.278627511805477
0.275771815746168
0.286801897305306
0.266525154904373
0.311964108694081
0.272839148470714
0.303073115999317
0.266481093011893
0.280515564706667
0.270534826677447
0.289003460516019
0.272862193957035
0.265236774978157
0.279267882480614
0.261661401436958
0.273761247784076
0.260050571088953
0.262935327117091
0.267328472723296
0.267948360351616
0.266788076308284
0.268320048438713
0.263530516369921
0.269792006096212
0.266201807426349
0.265671220832811
0.273635815099928
0.256231215554951
0.253562549828694
0.246728319255989
0.256734864274608
0.259634567858483
0.250897650279983
0.261435223403968
0.246767944458575
0.254519230918317
0.244618798883215
0.257863428107559
0.248484252299004
0.256443238405219
0.246688534892872
0.246270775249837
0.251119542050096
0.240968788233566
0.266912059989326
0.241120220832395
0.261756462744364
0.24127099154017
0.253560015589685
0.241712372001824
0.25405564305401
0.248952542172223
0.240879712097246
0.246358904077631
0.246875047732624
0.245671124637976
0.244835870581757
0.235617121634745
0.256434207340697
0.248165613249159
0.259722402234874
0.251513767822351
0.246692023447343
0.244408437856573
0.245845276472745
0.244177785044174
0.25027922083134
0.242586931444903
0.252906533586386
0.234985917679057
0.265463474088682
0.243948662457348
0.252820241805666
0.259992753881514
0.259121914098196
0.259328126151228
0.267965252486811
0.270951895318216
0.288264345317982
0.268899227947517
0.284093687727874
0.269632988980027
0.288373122193818
0.289598885271599
0.292810131304892
0.294334495647764
0.299495564274359
0.301541934008683
0.312781750554479
0.318874761601126
0.320751511055838
0.328156373847431
0.348189309572797
0.345730510416659
0.361090492675244
0.360019442433218
0.363376004278425
0.400276801244618
0.366195343131989
0.404128007673392
0.405617551439632
0.410868345993176
0.41809233309356
0.420410815934619
0.435213182144293
0.44117328673938
0.450399553486442
0.457978804390456
0.460149321902524
0.467494200370128
0.472530033148205
0.484745203809308
0.477670689945816
0.511367215101308
0.477584692648184
0.52012640209923
0.505678475518862
0.510148309087136
0.503342260555877
0.501327086650831
0.518148315858481
0.507695732926449
0.51393085901496
0.517280446665272
0.536046362373642
0.521764187044679
0.523448795875393
0.530359134640747
0.527864003177376
0.534531659276638
0.524314325670661
0.530442237663965
0.537951909262548
0.541404668598344
0.542959685252057
0.551531718764913
0.5674399230889
0.561354388827564
0.551391119123725
0.565478327109974
0.559500597967563
0.569962550606625
0.571608328149439
0.579330098124913
0.581301245370154
0.58202930382285
0.588293707808704
0.580408355349386
0.584951947584463
0.590969002128893
0.590125741718005
0.604110378408288
0.590847397261629
0.605329407382611
0.605440956627552
0.625173417729005
0.605478491126934
0.613317802506946
0.612823353357383
0.609965289570312
0.614732387482469
0.610329380474334
0.621865740709631
0.622001948606308
0.621516631963476
0.614369292913705
0.615493795501228
0.604883322984293
0.607301280291541
0.608457199160414
0.612669632823891
0.609186213852307
0.602987733525469
0.604191583417957
0.597157780749884
0.603760952986568
0.597549991141178
0.59740095096061
0.589927909886446
0.593242044444008
0.590145078996421
0.589814147465429
0.580728665166722
0.578675196462716
0.576961414598628
0.582855319322143
0.580384258370588
0.590747929302609
0.582004591190467
0.597121788324655
0.598212625341833
0.600541034062735
0.603766070183001
0.607139653101917
0.616465792235688
0.618938778340626
0.620338467678497
0.630224856678788
0.624367449140094
0.632688730290732
0.64248633026325
0.636289329315632
0.651505055817454
0.645342950234943
0.654094764318506
0.654380678146596
0.651147769235036
0.661027161258588
0.661678067694055
0.665739921113462
0.6629337070658
0.657447813297528
0.660268420358211
0.656828971798106
0.666894314688028
0.664750183747459
0.657493471758735
0.650326136278262
0.657685791040206
0.654812356720304
0.65429119747475
0.64536628742065
0.644020627341659
0.643947195571296
0.650789445465904
0.640969739156245
0.636509253527714
0.634599675796529
0.635981393987134
0.632316887791211
0.629258915552582
0.6305509652508
0.630188689735021
0.630822819629387
0.634564783511164
0.628632967635169
0.62308823283449
0.619838134328146
0.623889862462471
0.624707102350362
0.636234361671129
0.629756913925849
0.629272136036038
0.621664994015868
0.624548204274499
0.630151880869708
0.62033024478788
0.622303069558215
0.615616897235699
0.61931204777704
0.618022423353257
0.613563843097849
0.615509942157096
0.618428510586834
0.609608864939629
0.607331499481738
0.60470619421038
0.606836241529161
0.597400620968708
0.597642385431168
0.5937041075649
0.591069926016221
0.592771692242618
0.591628460628922
0.581729223250801
0.578191641175418
0.584445204526698
0.57882544585189
0.57576364275119
0.5751829966745
0.571592788205016
0.569391775969649
0.574513218779916
0.573805559594402
0.570949803312536
0.57187291646951
0.570128789341486
0.568908380537628
0.56447722178407
0.558591723520036
0.560409134116874
0.553414910100625
0.554231277014909
0.547327947908901
0.548197586597251
0.542202539438509
0.546379258094907
0.535770378756313
0.530551356867041
0.533550264980953
0.524868354789724
0.519608449405645
0.51937290081178
0.515166788493735
0.514654324276805
0.513986313775214
0.511105907687036
0.507918644130757
0.50825968294007
0.503788180837965
0.503674276885101
0.499290271215318
0.495982551234112
0.495909230210993
0.500047346241362
0.498296356832653
0.496746868497818
0.498494557473481
0.493103278930602
0.500179331974039
0.501563395432502
0.498556691240369
0.504704794124965
0.502239750082431
0.502801596377086
0.508839655676452
0.509616600014115
0.507338625615133
0.508716418045964
0.505328171795252
0.514121536022114
0.515220192368083
0.518023864434346
0.518334256029381
0.520220736076139
0.517158705575694
0.519149897790354
0.522800752609008
0.52280974723857
0.521521510913794
0.517627600304451
0.519542840676867
0.524447594981282
0.522568370528224
0.519803116609018
0.515585055818039
0.518082987339877
0.522971396329948
0.51947555892108
0.521769494513201
0.517185165022791
0.515220974075185
0.518536918233359
0.516054262962118
0.516620507961697
0.514391463136975
0.513730475425098
0.514611072226488
0.511200430514905
0.510780727491933
0.510415352119324
0.508823604806593
0.508176041098384
0.504359056560258
0.50618969036201
0.505930505539502
0.498478851567948
0.498712058407215
0.493855871397184
0.493498798332569
0.490937095183485
0.484708648561056
0.487306819494562
0.481783134935423
0.478668324168943
0.475906328947699
0.473889966753099
0.469395183915879
0.466028053926919
0.463067980315246
0.455731013229713
0.456826895269227
0.454277522329553
0.452249417877207
0.452831006629467
0.448389442982908
0.448629618905
0.442637239554671
0.443695782299967
0.44482658080372
0.446861009136817
0.44110073379618
0.442386340440971
0.446201579876856
0.444711557979
0.444365639319401
0.444987434645213
0.440745029977756
0.444317859494137
0.442722803435042
0.437844310905581
0.433517981013602
0.435740408068774
0.429777185470386
0.430291288680122
0.423189394405273
0.415609451578837
0.406205721323717
0.404923474869517
0.397588584388896
0.390108237504658
0.385881661017716
0.38170282602708
0.376010299231124
0.375468150754561
0.369664064918131
0.369009321696022
0.37013182826167
0.370073781793805
0.373753096435781
0.376361158113328
0.382507810822024
0.38575895522043
0.391949077882019
0.398873630894443
0.408442735765921
0.421652184398044
0.432164617600648
0.447727786300976
0.459070140616299
0.471825959994811
0.490500547116774
0.514596295176474
0.52639223914809
0.551556930031196
0.580467551771959
0.600210997560786
0.623443814310347
0.64795632091164
0.6788919590025
0.7069293352583
0.73436414016369
0.767154615028059
0.796419765541195
0.832604486633995
0.861957706548997
0.874952778261358
0.900534495382008
0.93911402531006
0.95564849885203
0.983607070181712
0.996100692102466
1.00231291724191
1.0121615713007
1.02390119224578
1.02558961797484
1.04194177007766
1.03225239942178
1.03631986480773
1.0377520549043
1.02515569589828
1.01566102597016
0.990676437076176
0.994234929145649
0.976501117569757
0.968314776447376
0.950617373945678
0.945989241592041
0.935345965281436
0.93450394959249
0.920564961121949
0.925386797425132
0.91670368831048
0.927206578423243
0.924751834658043
0.926229038926704
0.937736007668723
0.940021467934503
0.948199763632293
0.939154891803176
0.962354743715437
0.982944665812457
0.970770571880779
0.972835430934171
0.99856841130004
1.00664922028848
1.01962877496923
1.01911718429607
1.0141924766532
1.03082106240836
1.03667601975891
1.03392585758823
1.06183248165643
1.05346120559777
1.08467413143306
1.0632101211002
1.07670330441882
1.08550657095605
1.08075562692057
1.06514525513419
1.0843121131615
1.09409383713247
1.10565219037235
1.10339984586785
1.11061827313182
1.11524204614071
1.13378043469574
1.12390944877149
1.14117237734215
1.13665055825764
1.14767576081582
1.14395249859902
1.13428578686434
1.15003786839558
1.16014663120925
1.16881829249268
1.16989435864502
1.18647905714384
1.19673711096449
1.20717709262214
1.23677896153412
1.28927255714726
1.2876391198278
1.3226876066157
1.32674367685225
1.38442634640444
1.39918343139405
1.49049477145
1.49634160603606
1.53146331657491
1.53572124422391
1.60191407402471
1.59026408748446
1.62138575319144
1.6275094842159
1.59297510034198
1.66801634654967
1.6795363742874
1.61576740233651
1.66901177081894
1.57787654880133
1.6838467560177
1.54243724907432
1.53094684033959
1.53936983321965
1.54970143629134
1.49845791030899
1.55384302271381
1.52253105794726
1.51446666893004
1.5693074318646
1.54484619576358
1.52861614180521
1.65526247935154
1.59741385479656
1.59347437459621
1.60607323511533
1.65530157924768
1.65698709066202
1.74262282727226
1.77179348167535
1.74608415061303
1.74977737180503
1.84845232184386
1.77447322041828
1.91775131080366
1.94825294785062
1.92791966263083
1.897983177266
1.97007660096002
2.06586961211185
1.96327714357218
2.12330073553508
2.00807762659137
1.92533468800171
2.19537386055937
2.11096582333828
2.2415462159022
1.93554851100085
2.25003953574276
2.01143337271141
2.26402847208749
2.29693276808936
2.37070064193909
2.33329560352867
2.1334828640784
3.00217886430264
2.87390282005494
2.52839950187834
2.955199121645
2.15832648783854
2.29456100565447
2.60638063485432
2.30696030465218
2.3879923991082
2.48815823753555
2.50089396478513
5
2.26381227768947
3.13592190485183
2.45708875416985
2.70395906010484
2.05579433936124
2.5806277084522
2.33608851672648
5
2.4722370288818
2.33846428403492
2.33545827530086
2.22017947750751
2.28890719908474
2.23733580572464
1.95553106039831
2.23052037663942
2.34371905990431
2.16232625934043
2.0495901520326
2.24550353994001
1.99738608847263
2.21379790381286
2.00319065536174
2.09779010368585
1.91880032221673
2.16309936945502
1.9727488805774
2.16869321044509
1.85643255888991
1.82690589735873
1.85024550056695
1.86113691389627
1.71555410555872
1.75022429967148
1.60974149488788
1.65805038814076
1.65142963951499
1.58900076901009
1.54330931626469
1.5637806126834
1.45089585765104
1.45490272089142
1.38028602935325
1.36978768043085
1.30782650543303
1.30808450544473
1.21515678060388
1.20975485241382
1.16799204954768
1.13880724031885
1.11791282531667
1.08517156446765
1.05059812016866
1.01326766997065
0.962675844244673
0.969265658547164
0.920229821697445
0.902727359148098
0.865279585663287
0.85218682028886
0.836197814712657
0.835331239259689
0.806204668682229
0.788140009502919
0.772532678194845
0.761103166909352
0.751957667809975
0.754719331272797
0.732477241868458
0.739643480495093
0.724474515316388
0.72554166486293
0.736939420097911
0.730191389064459
0.734598682890744
0.754426025927996
0.752002488636412
0.753320656585484
0.761578481541369
0.774228263916368
0.764042347802504
0.799218945589677
0.785411686576038
0.802000049640963
0.792625373447706
0.806448669231735
0.787786083871192
0.790227848312155
0.805095408663853
0.807018697016633
0.799704672085261
0.794873743523032
0.803298405446672
0.812956634638056
0.805366571592488
0.809232473874622
0.822445675063142
0.82324041541937
0.811648611746976
0.823841620767801
0.804441902237047
0.818990853193433
0.806702225870296
0.804429885216338
0.790420587241229
0.796666687505469
0.805433653375759
0.781358911925677
0.780438025538835
0.786840693169413
0.757225544846225
0.748084077226454
0.731468545479853
0.751482987437646
0.744702624397012
0.738664131639109
0.750527493859096
0.741152350381414
0.721123207201172
0.735984925352789
0.735314984719609
0.736183517625866
0.733001408580653
0.752985503208349
0.749844908166275
0.758070695954494
0.753550004125977
0.767970579805898
0.773932518902683
0.796235352677511
0.804487169405764
0.79345212309034
0.777123652273299
0.785220909111746
0.770683796389665
0.785861761267372
0.748425478708269
0.740237614077853
0.72298142713899
0.72741191235
0.709468301076024
0.698654523771108
0.69713361890045
0.69377618512788
0.682842765629471
0.697505756792227
0.684403530270903
0.703640662904809
0.695191292659697
0.714846513754023
0.706714235070727
0.710092726833086
0.70094866346962
0.712890496460953
0.717098082631408
0.71549016403696
0.715481508195518
0.701692112454205
0.71291856992378
0.722891269132694
0.724951055144729
0.746996402006967
0.746067053411304
0.73281058604171
0.727895619087707
0.732605058706405
0.72923800889394
0.758771269051961
0.749492337860364
0.756310680477123
0.757683716676849
0.767566682901208
0.73956872189145
0.74901449945803
0.757696727470939
0.737665203258242
0.735726581417919
0.75458946549814
0.741061405658451
0.743788892769016
0.737218026576686
0.772809245251624
0.746885794559453
0.749183446526855
0.74968449782564
0.743730509656893
0.734214198931214
0.758586293992922
0.723077173143299
0.732601278671255
0.72199371581401
0.721556827146723
0.718541951539807
0.727825728945912
0.713728612177039
0.715184941495775
0.695586970863094
0.703556512987824
0.689209803071241
0.702944957490924
0.675977019373172
0.690950677235778
0.695331245193679
0.709809824929782
0.709980596715056
0.697089805428552
0.675142002248897
0.720000875883801
0.674272358352022
0.687630122162409
0.66936816882451
0.673492378287786
0.676505358531303
0.705042795943681
0.686224300423399
0.694675013145106
0.694407310302285
0.701439758267804
0.698963847302257
0.726274348268577
0.701216308497407
0.696546100329034
0.706590745203877
0.733909540718381
0.700794738495102
0.754782714133033
0.722596274399086
0.730020723460819
0.745826208663552
0.796761211171513
0.750820408905328
0.715415330622207
0.757005450297131
0.804583075259008
0.769832146256439
0.801465645767629
0.821650213692921
0.827162892045067
0.819502151918326
0.86502916832534
0.858908486217787
0.858799758379671
0.864586181569203
0.893500147288139
0.859619527200986
0.882641571597534
0.938879789233285
0.973005826263667
0.88172075917169
0.95197585963709
0.899298084363749
0.933211506027941
0.906646694218344
0.960962364130302
0.916346005432582
0.99854441498583
0.906412338117956
1.04707950287655
0.944271763062697
0.962358424905474
0.97584415558927
0.956950979962072
0.945035912472759
1.06428939715891
0.897025868255291
1.02440957262563
0.999312989753382
1.04654522630965
0.995715646264314
1.06452831731621
1.03523346077007
1.02130799531901
1.05403785864522
1.08443002954962
0.932746639454206
1.02000027723111
1.01080841120726
1.03184984081171
0.959265168375383
0.998694029732371
0.966635699378336
1.09458354507072
0.997603150276102
1.01273451498764
0.940392377200764
1.02159249764451
0.986512852872587
1.01761152427085
0.967774566293708
1.07931383490822
0.955425293769282
1.08879353204958
1.06705599164097
1.05795025944517
0.964482425461663
1.03357547853616
1.04784653762401
1.02603748777812
0.902520636067242
1.05681328321085
1.06156099290284
0.979731158601518
0.92242109411296
1.02545029474414
1.05361275553159
1.02741585952209
0.881265062305681
1.02726918957892
0.906914583795442
0.999136712452092
0.98983032477902
0.980891194289305
0.987435697613178
1.03170795258069
1.14208117126378
1.31002293463821
0.910709146978697
1.02884174251031
1.07613182746701
1.07321598308131
1.00918167352553
1.11908723948453
1.0021258596486
1.23973756210093
1.20541674999232
1.15755482334694
1.27167124519179
1.39822817598701
1.12861868380139
1.37406254687867
1.08558684090903
1.22563701883711
1.2891511348886
1.22493091671231
1.12614920569227
1.214502439658
1.1219110067538
1.24116360476014
1.21551378853518
1.62950763431879
1.12172275599553
1.22864278276443
1.01996567574461
1.18718643667619
1.52331671285442
5
1.27522319763022
2.65325461998135
1.07271102306107
1.38692665754314
1.13465777458086
1.39564210815906
1.17439816617024
1.1892566845752
1.37032516813349
1.51107315526698
1.42769319901673
1.28084126684136
1.07964673356718
1.05302848900793
1.37596594101725
1.8903572588379
1.18307231094837
1.13866476876082
1.07034647634984
5
1.40754134319101
5
1.14535951367636
0.968216859055067
1.05445141977185
1.75768597807122
0.939320893349228
0.547884840550348
0.915761770265008
5
0.986406114741898
1.21400280691318
5
5
1.05563920664991
5
5
1.27508872094344
1.08619131591467
1.25574467673124
1.03110038704811
1.04393524368373
0.854671645539311
1.35102507146708
1.17620310805209
0.508979106700602
0.71364522172336
