3596
4000.36533379555
650.420452594757
1
2
2
0.0172780226023622
0.0144215255946413
0.0285345387098223
0.0174805502172885
0.0270172708458856
0.0117895833461688
0.0217038012184304
0.0135596232738735
0.0164216133100905
-0.000310461081054785
0.0127621006712602
0.0144518267405235
0.0260575439992486
0.01750479983326
0.0153402554519696
0.00357221632830062
0.0143655134641382
0.00780165151404941
0.0161390902788321
0.0127524817496368
0.0196341126748584
0.00838087116117372
0.0263647526500842
0.00684445592299427
0.0178535812345151
0.0159767091506847
0.0179609647484519
0.0102779971848177
0.0227870900285499
0.0140095876269727
0.0255782377926849
0.0141011796230921
0.0102160530299005
0.0176348070130039
0.0175761277904419
0.00513991667713447
0.0123240433256673
0.0119439046107699
0.0298884804655368
0.00957023719274971
0.0186109938348153
0.0211634355129343
0.0161307407932247
0.0107153450260481
0.020484245302359
0.0122192867602233
0.0132364786630477
0.00767977541113804
0.0233827913119335
0.0121981214983664
0.0144101593472109
0.013130786275513
0.0228848791809156
0.0195260944224137
0.00641384734120648
0.00711722509490269
0.00946950381176485
0.00652672613490484
0.0180986491008367
0.019037725862897
0.0197481956486053
0.0126712189541487
0.018377347087187
0.0129907847131106
0.0187863975626661
0.0103498066506009
0.0219316114160279
0.0146449817421877
0.0174026089354787
0.0221962457511931
0.0212986277916561
0.0092862514497475
0.0205727309147459
0.00717512794788306
0.0277296136826067
0.00860080515782961
0.0144007407831116
0.00832133006553751
0.0144790463517632
0.00396779910689899
0.0319906976791559
0.00653198558739466
0.0169230393724287
0.00756040126935867
0.00880165421415181
0.0027476100559836
0.0228032669522262
0.00743167718333385
0.0382372970915238
0.00791120579099483
0.0139876273815243
0.00595361770310852
0.0167075311549785
0.0128315128908986
0.017672793885575
0.00824217620962877
0.0195463019167402
0.00211060705928922
0.0255435970667508
-0.00245989277665046
0.0239820301730474
-0.00112998476419804
0.0255974241781144
0.0120759379055701
0.00360715210843358
0.0295219539940126
-0.00111263769244848
0.0201569075346538
0.0184888928053453
0.0121233251809081
0.0217585669092928
0.00607114026232174
0.00506943028216444
-0.00059029491492013
0.0290409688079578
0.00775281229310264
0.0215791393528745
0.006665673559813
0.0175161947903284
0.00567641560125139
0.0305499216502564
-0.00546911040235331
0.0304082672047859
0.00734724472665535
0.0240037931912874
0.00813049673082412
0.0186318309978409
0.00478763466144343
0.0203537508405383
0.00249994697994451
0.0226631054574171
0.0102463955139932
0.0175396189095632
0.00590350404413645
0.0320061676367902
0.0094491326660707
0.0169482910772028
0.0158134375136244
0.00700106871703671
0.00294451939694358
0.0192971995478956
0.00886038380851058
0.0171575521563993
0.00706928986354958
0.0267843375561061
0.00295731532636575
0.0133131302967954
0.0103981399994317
0.0139090341673665
-0.00298642334683823
0.0160085268304785
0.00914874802164231
0.011674811769763
0.00740148519738949
0.0288687387993122
-0.0292052746990776
0.0433882056361849
0.0100181139396246
0.0237051512287295
0.0136153644327313
0.011563091374084
0.00950512525444732
0.00766618387208264
0.0151665205839343
0.00788245557820919
0.0194906898731473
0.00797770569978771
0.0174829915406865
0.0228728077967161
0.015284455905637
0.0150989026665152
0.0125330751792514
0.0210834130228023
-0.005618367568566
0.0206146303893551
-0.00718459112926203
0.0328369564182987
0.00339991824133819
0.0139500447806228
0.00607980109147209
0.0140874268498852
0.0157496986597084
0.0112603351870867
0.00357348070602768
0.0214715692673493
0.00578762353029216
0.0189657216123804
0.00740078700741316
0.0200086173644485
0.00897882199087909
0.023274052362079
0.00466438094176726
0.0240714188479255
0.00461713287457172
0.0135427622723514
0.0104618975276735
-0.00102589051844645
0.0163179725189475
0.00723097320527636
0.0128219550553672
0.0136354880508263
0.00355548800423869
0.0147793746245002
0.00934212653999372
0.016092577909412
0.00259434054403827
0.00154567293658318
0.0173715711456627
0.0119491829195944
0.0129080676490674
0.019177064456083
0.0169748047675046
0.00645596360664353
0.0243084044420493
0.0191658878254345
0.011170854754739
0.00318937559681137
0.0083075131391222
0.0139645130223337
0.0114982090497962
0.016324959124969
0.0127496048299274
0.0230954056143932
0.00812215641836814
0.0117677820387239
0.00948691851460198
0.0090057300951394
0.012837274968916
0.0123148437059676
0.0115489501560598
0.01168787243412
0.0124041093655193
0.0146571977798818
0.00448193800763232
0.0187850202911563
0.012053685803345
0.0245847328796454
0.0143984190839192
0.0128702173367898
0.0105636695477729
0.0110862401421989
0.00492332235453043
0.00834671673775937
0.00968064545857772
0.0139031863551973
0.021902337187381
0.00483414688694044
0.0179341396889612
0.00171458060710673
0.0233676716884298
0.00509241105684068
0.0263609274575364
0.00505623224150675
0.0175738577712061
0.00768917109425761
0.0171707821856796
0.000591734302756526
0.0189227621770814
0.020597685789069
0.0204874668112285
0.00423165773353154
0.00818697889724537
0.0187062744155247
0.0156497221223329
0.0186057918535466
0.000463879241865472
0.0378435190460288
0.0070448990838797
0.00103053928044517
0.0170857865260249
0.00946323386349296
0.018763107656153
0.0138440855237305
-0.00808887012339001
0.024128189883431
0.0100148848841581
0.0198137168089985
0.0100057609661093
0.0215793560744776
0.00577448808041164
0.0263393387590062
0.0162977814973325
0.0294665686248105
0.0236781223721474
0.000272589016612423
0.04497569606172
-0.000694646031248023
0.0183379381374936
0.00762648485952361
0.0159601334492129
0.0146515217508714
0.0260207843379625
0.00200970138821066
0.0154704858007807
0.00595753526135656
0.0165454957550505
0.0178737758412029
0.0118170091133193
0.0160170454559806
0.0087741094872608
0.0221324301822019
0.0183397326742398
0.0196088187451194
0.01427283541601
0.018709441887313
0.00952335943662012
0.0230127419423135
0.0121248892938273
0.00973063455242731
0.021599805096439
0.0124185442317981
0.00909098122794139
0.0191784921055941
0.0177089692422029
0.0160951825204215
0.0161399360484271
0.0206095321631047
0.0129905175855837
0.0198291929636426
0.0100314878147562
0.021229105238472
0.0149278290669631
0.0228009294553395
0.0104766087633001
0.0184209154596841
0.0198725818101614
0.0194516024154735
0.0165766643265479
0.013418573123884
0.0195817578752347
0.0145833861606085
0.0127676975844148
0.033584213742522
0.00129206221688531
0.0264751105854634
0.0160590998235996
0.0196937649019476
0.0262609122310489
0.0157941783959234
0.0190163153020524
0.0186921234189224
0.0228479834267673
0.0243130958301999
0.0141146355268258
0.0226435486590309
0.0304236071223103
0.0288115175866355
0.033625931846705
0.0151669976566295
0.0315085892507103
0.0263858425663435
0.03747899497325
0.00280382095562774
0.028680005792288
0.0200259984663672
0.0203857037701308
0.0394880796477366
0.024963003404883
0.0307104523585935
0.0253334605658154
0.0347030806193796
0.0231346694928139
0.0340118580357899
0.0290139442708016
0.0374470798305937
0.0323410515889375
0.0351279952272802
0.0348672598241962
0.0374217733233353
0.035882374674114
0.0420982783328348
0.0342327943289427
0.0494512529145529
0.0395919868405511
0.0562566154059048
0.0403263022170322
0.0479559134009641
0.0626927494114913
0.0469568452258024
0.0491822339997321
0.0366624195885532
0.0516344619974298
0.0515783254293883
0.0502195923539021
0.050557425397092
0.0556935326620625
0.0502612635581291
0.0603215484542311
0.0487711752199686
0.0594030053325024
0.0534568048026199
0.0710905640193627
0.0599590425436913
0.0675920606001091
0.051249737235118
0.0646660690104821
0.0579030755032337
0.0899105849375548
0.0692026376629239
0.0582915145240829
0.0773130480263241
0.0705993609056414
0.0734719604610949
0.0675960562101112
0.0870024298037029
0.0782708073520453
0.0878208703553307
0.0865005638133433
0.0875799803711116
0.0908304571120826
0.0819746393122828
0.0960151262220298
0.0793589770717641
0.095133469773069
0.100880943048282
0.103700382455893
0.0888426131229231
0.101082193059621
0.0966134278095876
0.1038982139941
0.114200931939367
0.0953026254971007
0.112121855238693
0.104063003087051
0.111008536117422
0.107863107458937
0.109796207546127
0.110435027959116
0.106592825128726
0.122022975096652
0.124447097552586
0.123272545936961
0.121065367279561
0.12307556200836
0.126241494061872
0.129995404319963
0.125595630724996
0.149608289736657
0.131265878048957
0.1468203522262
0.145644681366555
0.146413081159547
0.157045562822343
0.131127846175532
0.150992351356437
0.134067970174183
0.151146797545734
0.160342510534179
0.156436907222131
0.156810054688342
0.174832321920576
0.171124921121166
0.166350340097024
0.164440370861183
0.178834699578608
0.173007553453634
0.170399587779762
0.17195010320729
0.172935922029331
0.182766002079899
0.185692089177276
0.20314738287625
0.204183759351019
0.203048373523695
0.200049949105604
0.184328685552819
0.207916581588015
0.205536212309511
0.190450166088115
0.204288454839167
0.224575121391249
0.214103638968803
0.228937536967355
0.243256527540837
0.219227455390881
0.225787079948975
0.225255660082248
0.238192941958453
0.237030736940864
0.244557280945692
0.237248082806662
0.258261428229221
0.248547305442223
0.257243122004521
0.264246864421189
0.257968879992096
0.244429014369815
0.272379142740279
0.272031437347099
0.256118475917891
0.259328931261324
0.287250673994445
0.268620882134437
0.289528419032101
0.275196027084349
0.302880678486393
0.287637701778241
0.302240287871768
0.304333553932637
0.313436437511223
0.310869384912179
0.322881937264602
0.294430539501904
0.343473242178573
0.332757390021262
0.325463902926541
0.321018027766977
0.333119831014195
0.339191843002413
0.328077849460131
0.343959365731505
0.347487043040087
0.343355427805193
0.347565563096488
0.347273508510641
0.368005746220582
0.356938750472055
0.37130671636984
0.362782358732345
0.380073002123309
0.358704398296564
0.376314288931566
0.373197351750097
0.406408898594276
0.384353071251508
0.399004617056787
0.394319843125373
0.406455058351925
0.40992740804881
0.421012630232195
0.405349735235755
0.415347124654997
0.411644884879495
0.419825648063752
0.422471927025579
0.418425358392888
0.405331093888803
0.429928564233569
0.437969351703261
0.482451150553257
0.451565363187692
0.469530613829507
0.435204136405899
0.469822195644212
0.452254858645844
0.466522507527877
0.445820320100952
0.475970919259219
0.460271903220589
0.478318059954979
0.472682147777627
0.493143615438227
0.474775891841163
0.503862901181519
0.483318682052885
0.513233840667396
0.499864003401154
0.513971139089041
0.518218815481078
0.51010637802041
0.500139760842579
0.529538081709546
0.518503807050295
0.526606186614722
0.5459009457573
0.536635151686803
0.523550584844204
0.568026714085015
0.53959774340069
0.552892272815292
0.544822239933802
0.550965806174267
0.560683954231557
0.586124842881562
0.530042197112516
0.588567873874656
0.574364882097211
0.59152448411515
0.540079629144397
0.605484539201926
0.56626581829449
0.599870849640736
0.588633436031357
0.611844541625878
0.567760007320239
0.608219352039775
0.581161386627646
0.645969384960066
0.612158791768089
0.60280127109006
0.602991890141507
0.629829702374132
0.619038239234883
0.687160503801135
0.632148861796931
0.624943164671534
0.607211745790842
0.643548127350621
0.646959557994902
0.661709024650066
0.660753597119995
0.639196767490746
0.603733778100773
0.661138456356343
0.607300212016306
0.6791222118833
0.642981868609586
0.694441726382384
0.643206770452853
0.730500993483662
0.666732485258695
0.727997528755273
0.678360722782703
0.695836211117927
0.694231165708486
0.712165259979941
0.663894227325716
0.710224905643917
0.682943801082112
0.727000146231406
0.700913128631261
0.745180255121505
0.703347508992264
0.72245826435265
0.720164742818024
0.731006389094724
0.683498875654557
0.719931752911128
0.690404628914218
0.713962668311351
0.709523482312117
0.73006613498585
0.742738932166884
0.72284795386253
0.715458649076945
0.757583807210941
0.733749192070794
0.801817750499483
0.774482339765089
0.760849356018776
0.735585198116706
0.763474934412774
0.731155822534888
0.788901309673087
0.764548068189567
0.783425428610749
0.768465427648506
0.798467865472732
0.746707976918702
0.754551771864001
0.736080505337588
0.777571917200362
0.773131332008585
0.817406280250971
0.790892502283827
0.843598240866215
0.754643383881572
0.829117341218502
0.807017310066349
0.827962041743499
0.763324782695605
0.834508496109296
0.795929306763891
0.781998136060412
0.7846112321735
0.879182920061427
0.775706014469593
0.822364674223608
0.763675578811333
0.835621760739433
0.793939814172537
0.804188012634185
0.766765540313814
0.810924445462814
0.766723274318009
0.841169210769718
0.768061781247687
0.849781134518707
0.78967908961693
0.791381520319032
0.821317237743034
0.887288813922702
0.840590275223877
0.829661947993482
0.833200345877839
0.843078059689752
0.795089612611173
0.880177451549488
0.806869003385428
0.887600654570573
0.805163623057095
0.836807776106657
0.822291519035087
0.862095995182626
0.828000256714411
0.861089592001712
0.813433187559097
0.868608647952171
0.822554384887497
0.890533414520562
0.808529374762303
0.840460251526184
0.813867136077579
0.834040580834539
0.813005519649072
0.850704404851357
0.816594396954518
0.880872188108163
0.818382948615096
0.850444523347375
0.826555885088663
0.86908198523472
0.792757553161953
0.871964904791831
0.859178367561768
0.926719057476297
0.812551927111706
0.851071987021159
0.795873739754109
0.855335906235137
0.835387070395396
0.869706740952267
0.803752721158367
0.865430089010912
0.864967917505397
0.856790347436205
0.806288399001359
0.867493527226002
0.821353899045526
0.814818874090854
0.816832730301908
0.847409042891463
0.82298232421186
0.826191738358225
0.830711153903994
0.865194166628927
0.818998528675534
0.850481973538892
0.825635209988039
0.872780825527721
0.837430511278358
0.868272553802836
0.78711829207072
0.820728125038129
0.847864120899386
0.868576455216115
0.814955540807406
0.854889195773059
0.825490282405607
0.866082718628951
0.810323405990605
0.841970014831806
0.800091788572139
0.826211545619999
0.810346176791706
0.81441913358032
0.796582743132258
0.846694990720724
0.81478888226051
0.824889462557881
0.828538321287979
0.835722472612243
0.786905294054419
0.855507190558173
0.827548296996127
0.835409281100659
0.803082157747912
0.827891532117991
0.805878473964854
0.82250198658691
0.782620573023308
0.852757288553808
0.842044923606571
0.822882066275923
0.81997539663156
0.812816347198103
0.842144659492867
0.834477002454812
0.836850278566623
0.836474246074749
0.784358864756285
0.833512245348162
0.79056623921684
0.830837720318913
0.780475160540682
0.815675528451691
0.792389831701359
0.780497397183609
0.78575678961012
0.812851983954632
0.783461577342885
0.775580772495549
0.784675682872455
0.772237471159758
0.760788350877732
0.833268790957133
0.75174699280584
0.783853477873514
0.76229282337238
0.78700232268224
0.76067293561614
0.78825211247502
0.772536929562204
0.760135675387169
0.759849205393885
0.782712541288751
0.757781456568335
0.756349278444094
0.749255708343343
0.760178461882592
0.750226753537936
0.766986734599666
0.744614205914693
0.773912669661582
0.72995312836731
0.738071014333219
0.720439928627673
0.72194604730368
0.733472150785806
0.7593455181437
0.71999671150593
0.738039027181459
0.718011735799832
0.727801980648338
0.724279612820042
0.752541685176771
0.741783066049747
0.729946577103911
0.719664482696695
0.721638591906303
0.706347934281516
0.720195700281543
0.6875060865521
0.719075418290605
0.689721999051507
0.699085910105101
0.690652860928943
0.707540750331993
0.686478205669037
0.675970663586719
0.698155755519163
0.692541732176091
0.683078711706779
0.679419845135312
0.684693305739335
0.688948900700451
0.659462661723484
0.6768410263293
0.654570343336405
0.684205673043707
0.663354819648887
0.657533423522009
0.644676977188351
0.67119476873803
0.642050861572506
0.653727498736459
0.651955522602219
0.659368614298361
0.633370593340122
0.651186256097092
0.624613531859474
0.653538859622618
0.633425563675408
0.637296176639269
0.620125845304612
0.616588132064425
0.602007272859256
0.625065202470035
0.616050297374015
0.624787711990585
0.600907792599549
0.602564628211474
0.589364863789788
0.598313416706118
0.59632890543201
0.601856806723841
0.587813601721249
0.596679692374384
0.588411660973783
0.590979713034834
0.578159817362043
0.57924707815952
0.576390151626094
0.588664810034058
0.579509435794458
0.572783549564302
0.562317774679147
0.57116360673418
0.562507408929083
0.570711827394875
0.544138321046455
0.550679967687874
0.543402140631827
0.562319132507843
0.528719412893952
0.55463178315088
0.535585622539858
0.532387874424975
0.530408815171418
0.528221545635031
0.521285313984725
0.536979247692136
0.512900797345882
0.522958841445749
0.503142487449479
0.520771970400437
0.509866087276182
0.508520439359674
0.495912619268177
0.499757064724024
0.488905849158924
0.50899689710876
0.496853154338824
0.507982168182685
0.495393900756064
0.490327131114177
0.481667575360856
0.487369453473483
0.478963956340198
0.484164344662691
0.468191865977708
0.48458130915039
0.465880752666858
0.466093614580867
0.455200640673804
0.468612282669741
0.459643776541607
0.463409323963434
0.451745430073446
0.454227821636008
0.442177846437475
0.445884452173844
0.432795419062122
0.44193843991685
0.44471148569158
0.442126216236736
0.428059710816985
0.436681296306783
0.419011284477702
0.428437879030526
0.413630712202062
0.430031601795227
0.417638849182854
0.425822986177193
0.40353981839342
0.413002559524168
0.406015507122186
0.414337495860294
0.405642738632353
0.406846920491947
0.393072961133457
0.406348501233232
0.393279870120354
0.403937456287075
0.389995448807361
0.393388954777686
0.392049455961519
0.391455282525493
0.385292393848077
0.386397246657016
0.384131711907834
0.384364067564798
0.372521988845644
0.372106216162756
0.363437945881606
0.376059764932045
0.368455910037764
0.370364463575928
0.365190589903218
0.369207297222639
0.357987369232387
0.361709910570548
0.365414259791331
0.355989118635745
0.350915453880176
0.353876815047428
0.347322946029993
0.355699259267567
0.345648300048337
0.347032653817271
0.34403051935987
0.342643133716621
0.331566132387775
0.339115857037799
0.336017619904343
0.337839065291057
0.33170522013942
0.332839920860132
0.325330876743505
0.327982789883676
0.324255034080474
0.329675897939375
0.321380264063139
0.326404153963822
0.319601597635645
0.327394758491793
0.310642713946872
0.313686713505684
0.307180265526256
0.314129927102006
0.30772444435709
0.309385077091507
0.301057085239182
0.303839304621175
0.298170492250889
0.307841919176106
0.295466565138914
0.291101968819984
0.292425614174164
0.296466010792347
0.290372027031973
0.292988583370496
0.286809579678223
0.286493697732959
0.288382553472426
0.284040525145999
0.278803527640175
0.283998230409532
0.27840826602285
0.281058086855806
0.280865430744644
0.278019632398836
0.268343049963549
0.277934218966811
0.266950169962915
0.269375050832774
0.263589813676124
0.269084015578169
0.265926091961771
0.266595998403076
0.26153548019311
0.264417120879528
0.259930264437823
0.255184184980374
0.254631664539093
0.252593056285303
0.252059873341232
0.251847065303952
0.241633587767813
0.252222702594125
0.247397778889898
0.245654147306658
0.237952684589017
0.251135134523078
0.244555182815789
0.237483300298674
0.23931402236254
0.244684884943253
0.23461766958942
0.234287374860245
0.231898455281322
0.234558171562282
0.238181169643037
0.235762068417226
0.229388722123843
0.232377902754474
0.219743209201949
0.223679577114404
0.229711154812496
0.230674946091597
0.228002217964138
0.229020900764561
0.219317374513475
0.230711365721716
0.224646095525653
0.219949016410225
0.220181118025968
0.225428444350237
0.217498757130264
0.219130071309246
0.216104114482222
0.217097041171665
0.214373554817209
0.217587403656038
0.209381463007854
0.216193160085713
0.211121889220879
0.219462609181689
0.212399988576226
0.216906680237869
0.213473939900724
0.219308990690618
0.21320578136378
0.217590563352248
0.219055540370393
0.218601428280414
0.221580164937854
0.223330283680856
0.21999916088511
0.226185571354316
0.215117367433964
0.222656034654146
0.222164623257203
0.224372311463472
0.225218988899237
0.229319340880569
0.227023256912393
0.228771256306784
0.235236331358072
0.236904691982652
0.232436637181664
0.235312793221167
0.230222754634118
0.23480403505417
0.239314820607397
0.242596132855439
0.239303530749599
0.248300539269651
0.242464079741124
0.245930999815476
0.247620220185024
0.247900305790098
0.248681167473062
0.261813012327647
0.258665015566125
0.257775847665474
0.257756156901575
0.262140834257207
0.261210434124648
0.269713979362777
0.263415370880157
0.266348176141981
0.26650596258187
0.273240809718704
0.273049456576917
0.273705803394799
0.27090687076049
0.276685640453617
0.277191769631894
0.278301409725996
0.283708075292317
0.289784684627672
0.28448129398515
0.291398326291436
0.289472719511907
0.296581418142939
0.295160812179605
0.299258334278552
0.305235309760527
0.305589199903613
0.303907081491925
0.311345128329808
0.305617957199519
0.315794167857569
0.312797661110697
0.313615980803301
0.312815832223712
0.321617195077429
0.316352384864351
0.321582710729328
0.321127962028085
0.32181228630649
0.319646837675986
0.322380696378922
0.319969168020726
0.329585236980985
0.323263663699102
0.323908289717691
0.31687251813045
0.316156091356508
0.314476004112154
0.313677918412044
0.314896773581178
0.324654552738479
0.319266660288816
0.316451214386871
0.315441198414349
0.317335156694857
0.31818153322342
0.322731988422522
0.316672894823045
0.318456619509764
0.31220687392477
0.31573409446582
0.30592923066689
0.306081777829073
0.314389548149243
0.315035278465784
0.310600140193664
0.318437794082085
0.307056057501667
0.304350578441559
0.31179028046044
0.31792771184152
0.317238999153831
0.319027604923897
0.309434811021666
0.316041854137657
0.315981177309268
0.317053521791957
0.314620437564917
0.313288509753519
0.310046924104796
0.316335321836158
0.309119053964711
0.305195821637242
0.311265737290292
0.310517550171105
0.309435983514878
0.311361764445951
0.307536148540371
0.30866380912718
0.305911183050547
0.303307739579652
0.302809529671554
0.313059803114737
0.308946911854037
0.30475891338999
0.298100358694163
0.297792924326022
0.296737298606114
0.295713994756159
0.288465475639748
0.290332573186971
0.285260369896647
0.285156608752994
0.283655004360086
0.284880568703109
0.279080260735029
0.281210597991947
0.272209721638597
0.270639809675424
0.267139496646267
0.271116264278404
0.260425007158266
0.263647992609876
0.263217511166193
0.267153071612079
0.25481463452084
0.249771800869822
0.24579774196964
0.25501166663414
0.251923555681745
0.247355893831215
0.241298278840749
0.242874041892811
0.236669180094972
0.238352866180047
0.236389457945407
0.229740205426627
0.231053177597216
0.227936868372647
0.227255803082172
0.227944158837251
0.220584561910077
0.221520601410727
0.219017012532323
0.220408483501411
0.215833621572883
0.218320064673459
0.21898172298144
0.218215417138595
0.216390391849753
0.211485896387262
0.204094079783978
0.20575118088141
0.201675739041985
0.207564311800114
0.206009490416705
0.201051741250355
0.199769286571096
0.205152902759923
0.19984680717036
0.202246566544129
0.194996882402415
0.198248082926844
0.196728489772812
0.19129018111223
0.194745630938764
0.189829799746427
0.184802653200408
0.188513397546587
0.189353110003947
0.193685121221927
0.186165424760868
0.185047506370093
0.184011084825761
0.18522272729761
0.181723354488834
0.185957098835384
0.182663835341442
0.180034378537898
0.182422324235137
0.184293193844219
0.174640590894853
0.180107806715925
0.178783354139525
0.176352697690024
0.175994610806506
0.177155063257546
0.172882196861586
0.175350577016787
0.174690072492726
0.172606047094823
0.171115774672967
0.171092252120077
0.170646894584236
0.172808183333965
0.169998840518776
0.172662379596308
0.168166516774822
0.166396626159209
0.165074562397425
0.167147664923544
0.163086345565328
0.163811968689389
0.161478014291082
0.164151165190935
0.161928681572913
0.16251987644185
0.162375127350549
0.163710461745025
0.160743125463194
0.1622243941163
0.159179250356331
0.157717012535271
0.156536825313357
0.159437994911017
0.15992451506965
0.158980356747356
0.154472902525493
0.151795156106594
0.154917236343146
0.15704359345988
0.15883177077111
0.158098824398947
0.154630278539778
0.153495619254475
0.152484788764201
0.151969221404809
0.151212247168487
0.155895636557968
0.153796921185345
0.149099310834932
0.148752047116817
0.150823508960541
0.149444004725662
0.15201005652218
0.147647263292067
0.150323585872838
0.146924690755363
0.145571997549838
0.147769240346489
0.147757961378223
0.149782130435569
0.146122048456928
0.141348164818535
0.144048132286064
0.14710308079248
0.146179930270264
0.14674912846872
0.145287674553057
0.143568134009502
0.143968731921086
0.144741209072079
0.142484101195161
0.140462667285759
0.142258612778592
0.142316059383536
0.142971172403741
0.139470763551731
0.143179797531681
0.143851552189529
0.142636518279967
0.138793990196454
0.140931857907249
0.141015984087955
0.139004829676689
0.144421642626268
0.143166562469881
0.138812865396836
0.139757500524437
0.140277354094355
0.139097853638947
0.136046091897046
0.136647608352521
0.140782084590641
0.137229575716646
0.130038098828325
0.134442720857018
0.133314333260107
0.138762006304942
0.134195886874264
0.131004183065238
0.133807002761634
0.138199291123629
0.13306302169291
0.131619587258199
0.137044771789388
0.137129748009373
0.131379320708862
0.132393074917989
0.131570938726931
0.130488643651841
0.132003361609578
0.127118158306117
0.130314293653027
0.129851561487738
0.126401633709911
0.128207802471959
0.129523932069894
0.129369918381088
0.12735574367655
0.126990648328847
0.127796041672989
0.127740645307102
0.126008501833491
0.124856892900119
0.123680608391316
0.123170998520685
0.126628471403753
0.12531324243015
0.126744714557437
0.125874450028187
0.12385317498702
0.126952760202943
0.121100770841048
0.121101772134185
0.123684684092367
0.124156189811641
0.119662999826118
0.119731456464067
0.120745364704125
0.120762931010767
0.118804304842655
0.118366103640156
0.11969250609848
0.117691376551534
0.117534418776515
0.118915435382677
0.115876804844139
0.116667502981301
0.117154427844289
0.115614530902567
0.116501529071597
0.112046749903995
0.109814259545546
0.111575067997009
0.110972420744786
0.111496422587019
0.110326895971595
0.115717669949132
0.112246494474483
0.111138791469849
0.111025513521535
0.109136084662545
0.109304306086156
0.109896721658771
0.106454473634794
0.110378563222984
0.108227419281188
0.105850797006255
0.107850811983763
0.106719748375285
0.103251461741797
0.107287414767081
0.103992465176235
0.105511064258145
0.101307901165679
0.100874548033166
0.10095105664652
0.097733040503721
0.100001558473256
0.0984149689145768
0.0973707688123635
0.0987525277607752
0.100476007060026
0.103143614928317
0.099495425396885
0.0944530190956993
0.0963508184181053
0.0967442299183188
0.0963783607849687
0.0951127052074567
0.0974566839895411
0.0953557625845542
0.0929901758242948
0.0951723041024451
0.0952858938477763
0.0953726803925384
0.0971608211822057
0.0938308701805155
0.093218409935786
0.0925619373884914
0.0911294000872831
0.0915695214416029
0.090288879602975
0.0861308520881788
0.0909953404034929
0.0910841635776623
0.0889228787252844
0.0904139202112488
0.0882398829731688
0.0876469948170251
0.0865359603513462
0.0900947133644558
0.0885019937170934
0.0843253099058575
0.087174970583883
0.0863704166670119
0.0843674944671548
0.0861221362957585
0.0872243111943338
0.0828233489334337
0.0858934873001168
0.0844315906359812
0.083562156958492
0.081120029450842
0.0835756284472652
0.0833331978636533
0.085358108352611
0.0835864901037959
0.079277708319621
0.0830778972812406
0.0827383205497632
0.0813072608522567
0.0829777121458968
0.0814716938769394
0.0814521041104621
0.0813686795955571
0.0775785125394409
0.0796257809140116
0.0799536666660476
0.0795321458271784
0.0800025839751708
0.0795693218335716
0.0779917339264455
0.075586948520324
0.0746449382905476
0.078134018885899
0.0773363701575552
0.0769874812532153
0.0776100508467745
0.0748434677448987
0.0768342833351489
0.076391215194958
0.0761905593146944
0.0776392737109607
0.080078176297415
0.0769854210395947
0.0793408595620491
0.0767505890584959
0.0719327331181737
0.0770884151934227
0.0784513951638427
0.0730748933045652
0.0724546452298095
0.0739857865807197
0.0749380662157988
0.0750015080332947
0.0751992101707562
0.0740029525027798
0.0742563739654866
0.0722708060473708
0.0745340988591917
0.0754161843577635
0.0740536174836633
0.0688031128220282
0.0726633890828356
0.0705990782108261
0.0748117952130349
0.0677691120182936
0.0715000874890283
0.0698938810700265
0.0727984196590246
0.069759857581709
0.0676104092576161
0.0697147914191563
0.0709993462861668
0.0715277659180576
0.0688872070840931
0.0679650768290335
0.0682207005815191
0.0703101824748812
0.0681459757261303
0.070240340057801
0.0700236814295847
0.0703170844199162
0.0702098333064562
0.0658744346003646
0.0655589307631482
0.0675626091927765
0.0684860935958983
0.0667453058647943
0.068642150511214
0.0667907689039366
0.0713980152591035
0.0656518894939076
0.0657342054604704
0.0655148161392025
0.0671734557319352
0.0672118212546898
0.0640420113840719
0.0650759703232583
0.0677264494768056
0.0670990685664079
0.065798706322322
0.0631047445407775
0.0666239651941392
0.0667789330827797
0.0682604608630949
0.0633346302529352
0.0645178309296253
0.0631252074130822
0.063259023361668
0.0646743530278719
0.0657628568587853
0.0638865057251276
0.0634551930812813
0.0648950831812211
0.0615462655069737
0.0591278390579924
0.0624023324669617
0.0606968050044166
0.0660867401013872
0.0634576282794173
0.0648984752320945
0.0633380599086402
0.064423393078234
0.0604212464290726
0.0639312236571176
0.0621436791078144
0.0609295610112148
0.0599890674689139
0.0602302597614481
0.0599687822068461
0.0599735608930109
0.0607707876527922
0.0625879738956085
0.0601205151683502
0.0605119327653796
0.0595816688617441
0.0587759010459022
0.058017398918997
0.0565720450332418
0.0601366495421196
0.060848163898903
0.0571600961892966
0.0601907850197897
0.0542522188714772
0.0595926047819218
0.0568310594054423
0.0570568112189575
0.0540342776883354
0.0559025474595138
0.0578344327631759
0.0554309229488
0.054504688976848
0.0518899391984825
0.053463058285759
0.053720622556477
0.0548462446244009
0.0549682107128807
0.0529591884310958
0.0550380143438404
0.0563597733418192
0.0506289468529346
0.0520592203723239
0.0528087028804535
0.0525944048787946
0.0524739057678455
0.0531199383417861
0.0541097219526166
0.0515511776419931
0.0519189457607865
0.0494571068426316
0.0532902739284974
0.0507946923479427
0.0516184448288003
0.0499645496955999
0.0496752776985456
0.0509658108274465
0.0507170137473315
0.0491370921245896
0.0490470379408314
0.0488872313764174
0.0475089536932852
0.0491489769860131
0.0490294268490705
0.0465008413940551
0.0471768234904531
0.0483213766119647
0.0491060715509629
0.0475733456470844
0.0505557716046145
0.0482227698820832
0.0461091218310279
0.046267747457613
0.0470951956469708
0.0463200653992142
0.0452190961277296
0.0440886683920509
0.0484876035291842
0.0439616191545776
0.0483326972810968
0.0437378838294485
0.0450585041066924
0.0445853823615478
0.0453421943082545
0.0432403117902196
0.0454343242760508
0.0451084416328357
0.0441379983252372
0.0428153840130776
0.0427877694766718
0.044183114054435
0.044487623010848
0.0423746152629506
0.0429065350372401
0.042001982970971
0.0421586746782692
0.0414512042883258
0.0448518806574234
0.0426830673746679
0.0423380402076041
0.042140051266956
0.0423297704796166
0.0417466437160119
0.0431651666299226
0.0413197453638002
0.0406583914955314
0.0393843871089408
0.0436790368335671
0.0426958238540133
0.0417186219231322
0.0400075873568895
0.0415066718277984
0.0389114148018599
0.0403421974667227
0.0362056206203553
0.0415302369685617
0.038523519289495
0.0407907580659579
0.0418887268438155
0.0402038595012792
0.039303511238618
0.038829081647459
0.0397628195479617
0.040806336301921
0.0384555002325669
0.0415958582069795
0.0361328645168583
0.0357832237712036
0.0374788575152012
0.0423959223390297
0.0362102184980541
0.0369382814563078
0.035420091808946
0.0382495125107963
0.0391909236441028
0.039167213358561
0.0355794054810926
0.0377684275662289
0.0318735320612582
0.0447234512131813
0.0366007693288934
0.0400705347726704
0.0332601731485546
0.039239299206644
0.0303144104251508
0.0349627071965838
0.0288845603601454
0.0371395302472207
0.0302419733758337
0.0357344260768414
0.0314673780859077
0.0338676243163808
0.0334851363444999
0.0424315034190747
0.0283915668556903
0.0372172361809656
0.0310018731411455
0.0372835516167924
0.0305594886818388
0.0375151091624389
0.0282550025883689
0.0363756199696397
0.0279160932294399
0.0374720829122283
0.0306830455599662
0.0351532380145398
0.0280973785519578
0.0384450944186934
0.0282382453698003
0.0379400653147093
0.0312521749738744
0.0402123122772092
0.0308079412320029
0.0343874776894105
0.0286425466478276
0.0331571045268035
0.031879679348071
0.0378324965386114
0.0365880906855547
0.0304026741157741
0.0340191386617389
0.0299362808771988
0.0446220278661016
0.0312829085464765
0.0454278434774684
0.0249579704158699
0.0475752289381789
0.0188028717989149
0.0508306139324411
0.013647211461551
0.0508682275251957
0.016696187807288
0.0468091337769207
0.0187425638481024
0.0466714952712994
0.0236922461313989
0.0394571831677795
0.0306769067192841
0.0338336494634053
0.0321406359177107
0.0342738864068612
0.0367817262704383
0.0335029228314865
0.0357993100670991
0.0322505017282452
0.0327643932826507
0.0376930062170838
0.0312799099666685
0.0354156244583506
0.0338403272847179
0.0342409238227815
0.026702119673199
0.0338508207554339
0.0311447188616339
0.0318982314447573
0.0329374349401299
0.0359609055987621
0.0311174681694282
0.0356005718968361
0.0331752488251248
0.034925571320217
0.0301332744553384
0.0340573665696629
0.0333721920326172
0.0335898135358557
0.0324307818789145
0.0317457914944186
0.0315961428223847
0.0324299908247083
0.0337840899059256
0.0350859680793074
0.0322145535604655
0.033442175349785
0.0334723838858011
0.0344400052905974
0.0316763765958671
0.0338443040475751
0.0311633746107425
0.035567970303259
0.0338150866567502
0.0344160328693794
0.032568500089767
0.0352064027056541
0.0321007840787768
0.0332638982780892
0.0330365078343072
0.032650731827492
0.0308427851632662
0.0345914133883589
0.0344270584502063
0.0310042704399962
0.031986877302404
0.0317532223450857
0.0317336522907605
0.0331967421603636
0.0320763935796148
0.0344039682422804
0.0336723106373262
0.0340682347959265
0.0304952739038033
0.0342837889799812
0.0297085338114234
0.0316185136844219
0.0347262907122621
0.0317629001408625
0.0309104775514316
0.0334026704382633
0.0345437225462687
0.0332336909619959
0.0320112985930521
0.0341646300100482
0.0335128087248972
0.0319903449220547
0.0331930073589495
0.0313994962525375
0.0337607077543637
0.0316698461146729
0.0317116848744514
0.0354459491874123
0.0338755390500146
0.0367781075785942
0.0334796201290838
0.0321697805743606
0.0332217477526114
0.0355679588304833
0.0333777973091381
0.0335837891667908
0.0297293157848762
0.0321302612656222
0.0310939223949396
0.0339669846014399
0.0333460990019303
0.0325878855383306
0.0341207192399953
0.0328106079363829
0.0335954588358424
0.0354783117805485
0.035289112003338
0.0348649448621727
0.0336095798644335
0.0328574449541786
0.0312421677251132
0.0329227751390668
0.0340938567876555
0.0339473366628534
0.0341378927775699
0.0341662649844665
0.0315516373226774
0.0328687744204102
0.0330541602835552
0.0370250520526094
0.0362276914755505
0.0356968686088713
0.0356227190541357
0.0336428558637736
0.0332682217434544
0.0359630131373554
0.0359907967703181
0.0354640523735193
0.0343765131564233
0.033946383272535
0.0353175402601309
0.0361511405434954
0.0352695110322511
0.0332261538187959
0.0360865652450856
0.0330103591013987
0.0365676314175166
0.0329353218377327
0.0356681966871844
0.0354199428945781
0.03730069208078
0.0355684865843452
0.0323177565325428
0.0360261986397929
0.0356639978192662
0.0367914943347958
0.0346758597530361
0.0351973262941191
0.0352694095675093
0.0349307461951223
0.0357040156056761
0.0358022982925456
0.0360511996277259
0.0340971597780648
0.0367545485605397
0.0366230628685414
0.0357469604624599
0.0344528652739921
0.0346597608883358
0.0364050076915419
0.0376982090958323
0.0363057102763175
0.0367750045798135
0.0352575679008483
0.0357865252957326
0.0375233582257173
0.0378954534083837
0.0380533303858858
0.0365225286941959
0.0374084371573768
0.0350095518485159
0.0346505161032401
0.0390222775808473
0.0376228564321178
0.03584062477922
0.0379621849501586
0.0373036386842426
0.0354699566314129
0.0359290961899254
0.0364707277571182
0.0395738540970752
0.0358431680762134
0.0347085739244961
0.037877499855915
0.0368956212380993
0.0369248813121995
0.0359268192003817
0.0364011989118322
0.0362985915709204
0.0359450768313978
0.0371963019294517
0.0353036556162769
0.036647783603942
0.0370294771977627
0.0360009378929624
0.0372039738730595
0.033463408926193
0.035294530058832
0.0362787539454959
0.0360562228690011
0.0370398855692083
0.0348650719374699
0.036832675857692
0.0359167088732604
0.0352178538634009
0.0365080793375416
0.0368438448907839
0.0372947248795517
0.0365716554448312
0.0337195983710292
0.0332004293788243
0.0362697642808293
0.0353715306375253
0.0358073648348806
0.0349939224921982
0.0366564112426138
0.0358205817855067
0.0363511937845273
0.0368647901019393
0.0336131132445232
0.0354125465681406
0.0366416012921375
0.0346995260595832
0.0343604108782362
0.0357092824601457
0.0349297641859203
0.0358817101222522
0.0340581397420253
0.036656800761159
0.0344546953518584
0.034387710198868
0.0342778965959718
0.0357635153159212
0.0337858636283763
0.0348867544494201
0.0334589785496169
0.0350497878547289
0.0339023122916115
0.0346390505731012
0.033030653799163
0.0343404179393228
0.0343544357089792
0.0348955100046641
0.034757605893121
0.0312971426168615
0.0341784810358442
0.0336957157094899
0.0324157117261526
0.0358201322018252
0.034233615167309
0.0353170162706684
0.0334629299627971
0.0331556373854305
0.03381731574755
0.0342928039456376
0.034726142631895
0.0333449576031629
0.0334884322720076
0.0346280016436481
0.0345516521774841
0.034866978447275
0.0339494911509977
0.0338031740254021
0.0326810612156688
0.0344960049732105
0.0318960230678959
0.034787759510523
0.0355505377466783
0.0344508373629486
0.0334739641622623
0.0359305807531001
0.0319353915496881
0.0343462627572888
0.0349884995245416
0.0320758271867068
0.0368701612313695
0.0341603423496098
0.0345566648391447
0.0342422955839948
0.033665239479627
0.0332887032005158
0.0338201277518293
0.0338846639022769
0.0332132847621848
0.0334478782421795
0.0337315858211405
0.0354585846789676
0.0331370422114399
0.0329948299098409
0.0312400543600009
0.0317134449935512
0.0308507986138238
0.0327460856007851
0.0325767466612605
0.0326586936944185
0.0357057876831592
0.0362957855701388
0.031819298994644
0.0350425078120262
0.0324187823458984
0.0329977924251068
0.0322257375523046
0.0326651493027503
0.0320017694379275
0.0325018033121477
0.0315985497600093
0.0333470845916737
0.0309724573918961
0.0327494332318705
0.0324653095285429
0.031269090274624
0.0312049653883727
0.0320125979060951
0.030554432753845
0.0310551556734811
0.0320782782855161
0.0319384666608468
0.0296123651654285
0.0325021744614434
0.0315952658811574
0.0304886070223358
0.0308347835488806
0.032524973316307
0.0296260962784375
0.0310047678381856
0.0287298199226992
0.03116642176018
0.0319332732268618
0.0307986014124704
0.0284735602120662
0.032053027088415
0.0294838998199006
0.0298558156275865
0.0283085088457025
0.0279853083036847
0.0290446801628449
0.0293057915066297
0.0281102121238545
0.030748453094612
0.0290797210984612
0.0288975279713133
0.0296755049396308
0.0295251643826702
0.0266873583762097
0.0300476106340543
0.0275090138084063
0.0306042115821395
0.0275379294156888
0.0273164324749346
0.029461788022369
0.0284645574325283
0.030091392532613
0.0280145041045042
0.0277857274361348
0.0261446936200389
0.0285559648375076
0.0290059531727243
0.0275531250863224
0.0277492118458493
0.0279507610524593
0.0284229426355639
0.0273509607089197
0.026406173109841
0.0265060373900836
0.0300971873122916
0.030069892331522
0.0282733838385392
0.027818808570457
0.0290595136495845
0.0269756957715829
0.0269515595672175
0.0278895093551603
0.0277958269302394
0.0285090778882467
0.0242849412554774
0.0284463364744428
0.0283577583754206
0.0266230221654264
0.0273864480532221
0.0267305365774041
0.0254623563804268
0.028561786035256
0.0281690776541899
0.027661032508263
0.0288378270269113
0.0273986224778584
0.029987253439891
0.0300934289433672
0.0301222907732916
0.0261140024482075
0.0261407769778445
0.0268584554230758
0.0267358052884186
0.0259307003315895
0.0255264458703025
0.0269793883282689
0.0267662086434492
0.0276547652247948
0.0271107491548422
0.0272801133607075
0.0283550997686488
0.0270414566717383
0.0334622879010755
0.025305158428313
0.0312742741313189
0.0258342327917462
0.0287538273589737
0.0272104831047932
0.0266152762899707
0.0258317715396183
0.0281432456360891
0.0240964972252406
0.0258397060631758
0.0250388873357831
0.027255365691019
0.0252752373932892
0.0286900598974863
0.0276142897753338
0.0286418054834047
0.0228573636236906
0.0280206694159636
0.025280317590141
0.0270166490243113
0.0284088666361401
0.0265202776354576
0.0238765064124706
0.0316329449176069
0.0231812659659197
0.0306519499271566
0.0240375262141588
0.0277700422883058
0.0270417466033443
0.0257706346973131
0.024757658775944
0.0266869966536143
0.0251986341912306
0.0272646894761144
0.0326645517048055
0.0246969934545382
0.029479461246644
0.025637073984048
0.0265520853440245
0.0252822643938826
0.0262560928897276
0.0270604964549373
0.0256956123974879
0.0267745020558292
0.0251519641865228
0.0272405691728425
0.028102540551999
0.0271290116150011
0.0276598542550508
0.0269902979315855
0.0274516232162616
0.025981717391443
0.0248332651659421
0.0244099605023702
0.026208002535824
0.0263739562243392
0.0307281558256802
0.0228788759213265
0.0287679838039737
0.02436479077651
0.029280462408479
0.0256711291509655
0.0265541364484355
0.0270592771598551
0.027440493711751
0.0269929318601667
0.0273810665688691
0.027173878118688
0.0268922847779823
0.0272045063909492
0.0260811508091907
0.0280174920964045
0.0253590900977608
0.0253522795845588
0.0245547266370229
0.0293295049661732
0.026918645876579
0.03260399705569
0.0302771654675165
0.0258060977207206
0.0272677131321767
0.0251135992857123
0.0295427865663218
0.026545644520825
0.0262447986063478
0.0229673405337492
0.0268477338999025
0.0249953369501758
0.0282763311695997
0.0258342039806688
0.0267732502870912
0.0244724219773873
0.0271551771805915
0.0245098253523574
0.0286477227752062
0.0250848915404439
0.0299907748640673
0.0245422098088747
0.0282631744510535
0.0250784539748043
0.0309056406121361
0.0243289195346478
0.0296564950751371
0.0257804383255343
0.0294285296112804
0.0342011808731253
0.023437877148575
0.0323978949645072
0.0252796458211806
0.0284065832061631
0.0266479551922249
0.028217055120463
0.0286436487696506
0.0283012640245786
0.0267933415746362
0.0294814928730363
0.0260064177648626
0.0271605502429303
0.0267010845292479
0.0298626126429936
0.0336958329755207
0.0289180935194607
0.0282177673128155
0.0284684089618985
0.022404615305121
0.0372261052783866
0.0270527242557522
0.0295422033917282
0.0273158998958634
0.0274009717409516
0.0295204835960975
0.0298377076189628
0.0283366952977921
0.0304869688478704
0.0297062912279219
0.0266783658916666
0.0302659532460537
0.0269355681915746
0.0280108952254704
0.0290551821598398
0.0292958907951452
0.0310902872605785
0.0289250805779241
0.031505737956839
0.0323039987491669
0.0298452019929444
0.0312867629459157
0.0297315506129202
0.0308674765832625
0.0285960338157725
0.0332328224152596
0.031928894280706
0.0331822432781489
0.0317266346609791
0.0295400318050641
0.031103533615329
0.0302754761468562
0.0314210144325848
0.033587815670283
0.0248484590144603
0.0435802114276953
0.0264086542401763
0.0401215670579282
0.0286716644893217
0.0340362653459215
0.0273054094027306
0.0362742272187205
0.0264841107221934
0.0339182457772171
0.0299643761509306
0.0308458472708917
0.0341608716748123
0.0304337347332414
0.0353567885524473
0.0311263236184878
0.0361087888274967
0.0332884034679702
0.0344862910080153
0.0305259760419621
0.0375939998829061
0.029714264315916
0.0443098195087211
0.03245476698497
0.0316649211661733
0.0388526814223824
0.0326114834786335
0.0427629882126621
0.0347938459410853
0.0350979147941332
0.0355510768239014
0.0335250781778745
0.0388820292823407
0.0316500802558506
0.0423554630497498
0.0380297974193172
0.0351156830964356
0.0407122417585895
0.0368334423556534
0.0432252097501717
0.0405751606320085
0.0378751669738498
0.0387393322067241
0.0394609759079835
0.0395389646407705
0.0387951208332128
0.0476560937618217
0.0326177014406842
0.0543162589804206
0.0387084546881238
0.0497284172694499
0.0380063849006589
0.0465600487864372
0.04354514011509
0.0524247785909403
0.0399512291497408
0.0498089900210164
0.0418296363564275
0.0544464948128604
0.0411859959015854
0.0504045427932707
0.0481840961223293
0.0502458963563911
0.0529649285924949
0.0616234085756745
0.0496028366701894
0.0574829723688594
0.0488147989293552
0.0576319711653858
0.0548403638847242
0.0553186970428107
0.0576992286068923
0.0565391838309839
0.058683338310059
0.0566592540862848
0.0567810640768335
0.0607128815465603
0.0559977528608349
0.06335354281376
0.0574897899152092
0.0724587655594955
0.0618900738482694
0.0749169477511945
0.0628334317755165
0.0676989467624419
0.0658896798564933
0.0647573506152326
0.067319798261374
0.0655058610548399
0.0676514074055098
0.0691314488616003
0.0703466755764784
0.0725546630211149
0.0727074923293724
0.0809020411227763
0.0684494152261178
0.0906258215122717
0.0735155277377495
0.0850839912317791
0.0734509773470005
0.11031424168538
0.095056557644214
0.0896606667507566
0.104481849158124
0.086383709011891
0.114762937375172
0.102345728524729
0.108437160314152
0.111309485812383
0.117097389395153
0.117868758548792
0.124949606357609
0.127943164222814
0.134276942918194
0.135716922801922
0.141058288500342
0.142427957541299
0.168792573127521
0.156515089454782
0.165000797481774
0.159274717834922
0.172423284160062
0.176699361688712
0.182098785352178
0.177481011915489
0.194531498054468
0.185327712594661
0.21992864843794
0.197051567490942
0.210252128438711
0.206313481777468
0.220940968794989
0.226820264275968
0.226325716694319
0.246135642316655
0.229026229907959
0.245344274744752
0.240789354033933
0.25764337628103
0.257240974023124
0.269861815733836
0.268139649764538
0.267036547597145
0.274825841119328
0.277466837904073
0.281834112919751
0.280426455057341
0.286101805448016
0.292350590205025
0.304897380900403
0.31355325546613
0.270744628068835
0.305082018405225
0.286598521856625
0.296307042385406
0.2869939975642
0.310605264474968
0.300099199007157
0.297310126879932
0.30670589524203
0.289211068143252
0.298054943699234
0.294537787037222
0.29680187320124
0.294414833608107
0.297082867755656
0.296994619218236
0.295208399632535
0.310121109761014
0.284934983937423
0.33575338366368
0.285596868255063
0.288854731903606
0.28693375887807
0.294223610491858
0.283370174699759
0.288592743142345
0.280090964129322
0.291090859671507
0.278205303399273
0.276631636127926
0.275398383891861
0.272266084549134
0.277174604463036
0.262140092615534
0.257099315509439
0.257097449104434
0.254199370222403
0.262074354440623
0.248443608301986
0.264666231733589
0.24904628171905
0.241479165225486
0.234670306701733
0.232177257526475
0.235037520686487
0.236939011507415
0.233394323184803
0.229544331044677
0.222887059701223
0.223863317001966
0.218202302972153
0.218530226333979
0.223222421363466
0.219371495416689
0.22008985892473
0.214364621309114
0.216978448583914
0.215314869772191
0.215885225795264
0.213560158156402
0.211024109494238
0.211985239681594
0.213748323645753
0.211031029938441
0.209757552761539
0.20527029649495
0.212091215209728
0.210574391273965
0.210925769751922
0.204668915983526
0.205296797085762
0.20795302347398
0.206604743296082
0.203822553943804
0.209060700786759
0.20377146695902
0.205088064274287
0.204548094443134
0.206011767841389
0.200509534269576
0.204327717760835
0.204493943367752
0.197654330228846
0.214002159225266
0.198263492303498
0.205522758152492
0.200242595342767
0.202577678357107
0.201201280216774
0.202464000603341
0.204796715201446
0.195981375434456
0.199883762483796
0.198386874632263
0.192106456999394
0.196533585957744
0.191825149239201
0.190687478313012
0.202260797782731
0.188038963175101
0.215698279558732
0.177562842471271
0.214239579596195
0.189464779009388
0.191794864673882
0.193051690870112
0.205377262034084
0.193488834779553
0.189837682434327
0.197617389392202
0.183926288578253
0.2017848176348
0.191323234277221
0.192481173020506
0.192484217355609
0.190016069814719
0.195155102869293
0.193910913300494
0.185777112292283
0.202273895054498
0.188073049540569
0.182677576302148
0.205225931495367
0.189759747277559
0.184349621457764
0.17959584104851
0.183373818898252
0.180277824495061
0.183251895605542
0.186308370890499
0.172562238699276
0.179376753458808
0.167934690022319
0.174898883563649
0.168732737678994
0.169726904465383
0.165473537637187
0.164982191095994
0.168504138094091
0.152658612921791
0.173673269293709
0.154645643796595
0.16622932515633
0.154835201835566
0.162044076910548
0.154993985746734
0.164795195888759
0.159961061812138
0.152294358914906
0.152862596938503
0.15023296913978
0.147866345509187
0.150248666319133
0.141410487399387
0.152798127394017
0.14809215987164
0.149151259770678
0.152447939491555
0.146324381676375
0.137345581484553
0.136999817329788
0.135791665943138
0.137140372195927
0.131202747251003
0.141532931867654
0.126144410097405
0.142316788886597
0.133217557943932
0.142737639944736
0.139026016581853
0.133011070101513
0.134952685688418
0.139271611109938
0.136338029853812
0.151911956081098
0.138439167292247
0.149553058689566
0.141336990057419
0.147819275747677
0.148926550788984
0.147122670258615
0.149424275402165
0.153105128378673
0.151753230578964
0.157512146113375
0.16314810306486
0.163161271641686
0.168374951929107
0.178124849757298
0.173491194094879
0.185004329005458
0.185781599085804
0.17973702235134
0.210136313081322
0.19279676387185
0.208861904968492
0.202148237747065
0.206877340560863
0.211827360937304
0.210575368764758
0.223221746487136
0.223584845396298
0.230053670939678
0.23286330773666
0.229060453757164
0.234256744927732
0.235174789769114
0.241202916851238
0.242127863272446
0.260209337526117
0.223848261233794
0.26104193154423
0.252981209435784
0.25326508272988
0.251778656894232
0.253500025604111
0.260710315966489
0.254074414790895
0.258331367611565
0.260214581128129
0.268969123560112
0.265918070268834
0.266420579952863
0.268655609058664
0.266777239664018
0.269952569688574
0.272632289054008
0.272412821026642
0.272469736285835
0.273780964304803
0.277716884000921
0.284884801742865
0.291751712953756
0.28966747167336
0.278902519760841
0.289045469706073
0.290161305773022
0.29219662679798
0.291516183950462
0.294982395195183
0.300616543331217
0.299205202450589
0.303696328490328
0.299543584608515
0.303170743444594
0.311578955399838
0.303113128196346
0.315701131804922
0.302043020414457
0.320337168599733
0.309599389574294
0.325442961186696
0.324089941439281
0.317925955935425
0.322983881845739
0.320898693168066
0.323058096890698
0.320934388628234
0.327788990836461
0.322377369899287
0.324814579296174
0.321157191573477
0.326477937503106
0.32753840792385
0.325683637693416
0.324469456492712
0.33011754249918
0.326659069800591
0.322450153249148
0.325182022762819
0.322002550910557
0.322541232820958
0.323004314161176
0.323807858447441
0.321766304362856
0.319939476075545
0.324444198319606
0.319831507389239
0.324146434803541
0.319221372535287
0.315233275231954
0.319954204979218
0.320205189995502
0.323215256223236
0.320733438623119
0.326723235481363
0.328211144190826
0.323647738191945
0.329155580346227
0.325040073028637
0.328408387006739
0.325893190244552
0.334538760426266
0.332738961163466
0.338986441972747
0.333760572255117
0.337960727820367
0.335636555409576
0.337878289152218
0.340214498663084
0.336671221024803
0.332115982569541
0.328467755237018
0.332224102878387
0.327962644475659
0.328170500862423
0.328393613582505
0.323271352713637
0.32388413868712
0.316547827436286
0.324320221503172
0.315742762239984
0.319442581929679
0.312949601396511
0.30969683486192
0.302570245446535
0.301799632178641
0.301592743795531
0.29769219208731
0.299817799573497
0.297879187418791
0.295775732593694
0.292680563570142
0.288870686258236
0.291883023568195
0.29042412239669
0.291199977155575
0.285729588279632
0.294394925119633
0.288348297407883
0.285190901483378
0.285618863254029
0.290786518457062
0.283637126296115
0.286009640295981
0.287462059126198
0.290791363278703
0.28512455337108
0.288177339481208
0.287187078016454
0.282915707354485
0.285630150726574
0.281964743249421
0.28232304780968
0.282998791254272
0.287435145202562
0.284000919176105
0.280118022584295
0.281933397256597
0.283677292993737
0.28063400966477
0.280919720132915
0.282343379024648
0.282027688824245
0.279019527354113
0.279990102537711
0.280211501561884
0.278215324351562
0.279059376565193
0.28019848544683
0.280494843068305
0.280041419105239
0.276560915519225
0.278230586596034
0.27989847210356
0.277578760295663
0.279296729465187
0.273795994342623
0.277239927493306
0.27561067753999
0.276512865128087
0.274152370355632
0.275843516498651
0.278086456080104
0.279291530309343
0.272152685034859
0.271952547115286
0.270030718095413
0.266755417471056
0.266200894127595
0.262034651399828
0.263886664500894
0.258152188349977
0.257812039956435
0.255924429246722
0.252560361892744
0.253415243793373
0.247545929683224
0.248659284169125
0.244378193578338
0.246726577780717
0.245303595919932
0.243471614548403
0.243154328905851
0.242642650252394
0.23987602277568
0.237691338062712
0.238725916373422
0.238512713152068
0.239770591366492
0.238126730125453
0.238565735346435
0.238307281838282
0.236078798228182
0.239922470707097
0.242653181973776
0.2384876028245
0.240859145782579
0.244111663515158
0.240453935067365
0.244294228557694
0.246966877562423
0.247124865421159
0.248930311854293
0.246693513921376
0.248117797537141
0.250852816210273
0.251409461984482
0.251766884699978
0.252725657642246
0.254441143166018
0.255251665525226
0.254288325418454
0.254002993558355
0.252808751148053
0.256104417542502
0.257002384023567
0.256504857028034
0.255163986979514
0.256150399361456
0.25394732185977
0.251925435710343
0.253202243072942
0.252035054962869
0.253021607149673
0.253001552960315
0.250496825183189
0.249155616006013
0.24970704948287
0.250300234883697
0.250092725310531
0.249666190677166
0.247564222519717
0.247352291816265
0.244391319361511
0.245168776970325
0.245964749668162
0.242857244426326
0.244886446405162
0.241672928599165
0.240152329701086
0.240387816692117
0.239437464486667
0.236883068249914
0.237288140305771
0.237641892134378
0.235394875188428
0.23480365972512
0.23773426418789
0.233578907106573
0.231113981751618
0.233566208566005
0.23087130674969
0.228760861028523
0.228099659742993
0.226736115414339
0.2251880987498
0.225175418151236
0.224928293917619
0.21953651573483
0.21984541497409
0.217703005547032
0.219122379232708
0.215727159953095
0.214100719908927
0.212107918628705
0.212834798079617
0.210372896444584
0.208867876602199
0.211373272399663
0.208134798401907
0.20763359043321
0.20826254119989
0.206839790977922
0.208275969285161
0.20764828954298
0.204011385440016
0.204891510381358
0.201686660087308
0.201641271324198
0.202068747388512
0.200267032536349
0.196792666825554
0.19465190189583
0.193108666798259
0.192239330909396
0.1891075568299
0.189024267038438
0.184836957192069
0.18374342043284
0.185394871756028
0.181149469928384
0.184853842140479
0.184927365915607
0.187984746382141
0.190416202873198
0.193450917966648
0.200303867242562
0.205166541163342
0.21366140740792
0.219878254904098
0.227788982423926
0.234826789845743
0.244968291547061
0.255711476329518
0.264546550050027
0.274347511782392
0.286073025306512
0.297270649540608
0.305482797127203
0.315236625171423
0.326327861103861
0.338089289688701
0.344684432425975
0.355150042428806
0.366680149212059
0.377193852262533
0.383973975252319
0.395237376100641
0.404808763484346
0.410530336901138
0.420679670557996
0.427547626955748
0.431804888226688
0.438095464187738
0.443869468384383
0.450393347030771
0.449818000148487
0.454339956886604
0.458213887022569
0.462414961796703
0.463552097055016
0.463493229841824
0.460132673121133
0.466889503103959
0.46553863373157
0.46686496469199
0.462718815356999
0.463906297745795
0.461723200019119
0.461205035537716
0.463863584061622
0.467017974609155
0.46744177355709
0.47137965474536
0.46673244665322
0.47386366441577
0.475353932716248
0.481754669214972
0.482071527510342
0.48639470109906
0.489848141184983
0.493208452170264
0.500126764174034
0.504220409375489
0.508742407770821
0.521261704697051
0.524572995334691
0.53059156729723
0.539381744342432
0.546670792229291
0.55380053301194
0.555182601046327
0.562738359408919
0.567283916093906
0.576020726322653
0.578856046233172
0.576428591074942
0.57800876270949
0.578714605144193
0.580692865824476
0.576120321410286
0.579570402915546
0.577183963968932
0.576107697183312
0.571166688608989
0.574188387834223
0.57886101887129
0.583999091551822
0.588381625152132
0.594595205074794
0.601697312005277
0.610542411662005
0.619787234571435
0.627483641060012
0.635296540251107
0.644548768415609
0.651355062328049
0.666814912445023
0.676368881003341
0.688508471595732
0.687481928531441
0.706679621404419
0.71785424715214
0.717776680752929
0.734855324430535
0.750432349426161
0.759843695441086
0.776858882712915
0.779118851588271
0.805288063224036
0.812176287106328
0.838832424902223
0.852793237720748
0.862586353801314
0.878506723128723
0.884751734508564
0.899736196663533
0.916819915902481
0.926114888542045
0.927969797224229
0.941581147682659
0.953941550022312
0.947331970902708
0.971477411671114
0.960495683969748
0.955504630310861
0.970704119751785
0.951880211448668
0.963028261104405
0.958527699030871
0.955202374227157
0.943091533574272
0.95277014993597
0.940701721782105
0.950366835458313
0.942442885602774
0.933850877745108
0.926671359552936
0.943064238977431
0.934423547964367
0.951374784286333
0.959397316456786
0.957762433060555
0.971364739306903
0.975407762945001
0.981468274759484
0.993448192767977
0.988086820978291
1.01492309395504
1.0319588636865
1.03133883868416
1.02756381323496
1.04734982477502
1.04617598960287
1.06238340736385
1.05438788390423
1.06719096704787
1.08190282456915
1.08633847450261
1.06862988668263
1.07578626358397
1.08332447167163
1.08868696648537
1.0776689247098
1.08821934090533
1.08179900382405
1.09340750285562
1.1027953135621
1.08972266547718
1.11182678288258
1.10142614413446
1.10252133839233
1.10642851877111
1.11341048967854
1.0966184523786
1.10579142330526
1.09765844498599
1.07382497615382
1.06858220189713
1.07041930149323
1.04256802011192
1.04016052119891
1.02322402801013
1.01219269279862
0.973442601791647
0.941143005677353
0.920899200940058
0.891106335965323
0.87231759811809
0.849469254969305
0.815357326415685
0.773534911154178
0.766190431752884
0.749584516895608
0.715551167377551
0.699485957587781
0.688775127128607
0.669030092051006
0.667097346978378
0.650248817349316
0.640479581855975
0.640970755531841
0.635738629150225
0.627626122062062
0.624550297483133
0.615213397580648
0.602586212285576
0.592831931031093
0.587127554527086
0.571216062590113
0.566333218620312
0.554294581590612
0.541261140401296
0.528970490872189
0.513427821006415
0.500278550316139
0.485107958010151
0.472290553552683
0.460351555368106
0.439213748244723
0.420507842066513
0.408662276160714
0.387950681582388
0.372771430176645
0.355371487081579
0.338778922505104
0.32253160506165
0.306167707945689
0.297707951227553
0.280509210456617
0.273471566202127
0.261106270746998
0.249911354879854
0.240827907637356
0.22893718744964
0.223124402432688
0.214343654245669
0.207115711566953
0.203671238754952
0.198349075332151
0.193762350565627
0.193768581790076
0.186879424870909
0.184862667372296
0.183188111281061
0.182664350039462
0.177501514747821
0.176634081795333
0.180749406052638
0.179774941944214
0.184050403878119
0.181412887927881
0.179877757515616
0.183296007735235
0.184690311705551
0.188760826238234
0.187863075874862
0.186898121786831
0.186244195095053
0.187946435142567
0.190655138297791
0.184472381144735
0.184235007191408
0.190496278459683
0.187982458997126
0.186027180630591
0.185980672964585
0.184677543631104
0.182907124170515
0.181179669095628
0.181874219874381
0.184171360559877
0.182896440431193
0.183050901463868
0.184883473322148
0.184173015156153
0.188771911488526
0.184963636168229
0.186104797787487
0.18987755939394
0.193693155640549
0.193051417180648
0.194592699122905
0.191220776307874
0.198628619114349
0.200067454345676
0.199655245158193
0.197661795974847
0.203739647392256
0.196848907746864
0.199208459392904
0.199046971979356
0.204533039883873
0.206109064623207
0.197338636828231
0.19879924509114
0.203579026662971
0.204229578444978
0.199300026981103
0.206462692539688
0.201484715142231
0.206762023363037
0.208960431848603
0.212102609785077
0.219434203292863
0.220411265443113
0.224422640545841
0.231895414185512
0.23832691278486
0.24738034253453
0.250389592533245
0.252022463472594
0.261745655770174
0.263500078316099
0.264440491634164
0.267036428859022
0.264782870908448
0.256916370088722
0.258501125528588
0.249891451323326
0.246226420129155
0.238514872146298
0.240726777061074
0.234825324952544
0.234307724039421
0.228403306262832
0.22902414040663
0.223797416860502
0.223325326688551
0.227068073947388
0.230083723242055
0.228018836210903
0.229642803086624
0.230358898171576
0.231547229834459
0.231369780677398
0.224512993533325
0.220598448420977
0.220297159181987
0.220011126515189
0.224788656235357
0.211837826910591
0.213155869950255
0.210361332613488
0.210166621219596
0.210583213339198
0.208855279140762
0.205156699432219
0.206401138650012
0.205808743600568
0.205461308133045
0.20594552880969
0.203387609721638
0.204610732600985
0.201748066622687
0.193306074645753
0.203187472419894
0.199399854927204
0.195848684386095
0.19978835385104
0.196006324153387
0.189098274090566
0.1890769409556
0.189828417795482
0.190837555500608
0.19445916024262
0.185640183415916
0.185442281642297
0.188734574250448
0.181733462299207
0.187378255529606
0.193234748438583
0.18441116998531
0.179878738624138
0.180442628709559
0.17383070699514
0.179772464665302
0.174219332442304
0.181958278521113
0.17374240330232
0.17205713036148
0.171663172696696
0.166988997818879
0.168920821324071
0.176250160331356
0.176933333754999
0.175543218789694
0.169363404792897
0.167216631542493
0.165112994988916
0.179516083387804
0.176806955136355
0.180456679029357
0.181434868702895
0.174135897718812
0.179517363034391
0.18209015787749
0.176595803264089
0.186034734251691
0.171442487351644
0.182635125875628
0.185467448130675
0.183710857444283
0.176129030703961
0.180745346434586
0.191126426215314
0.189526202093461
0.191372857376929
0.199927469014183
0.1990465451141
0.201280332541457
0.21042872320799
0.211179039070365
0.206470836455788
0.222935214433223
0.211564982290537
0.224272034639747
0.233029638128099
0.236865743574939
0.239157750281497
0.263507081718697
0.262886887617954
0.266217714895041
0.279786263080137
0.278708892777934
0.298286749298976
0.297553845223577
0.294572900148534
0.297542678717365
0.297454739240465
0.31940786331708
0.312726361029484
0.325893848235713
0.32045787354395
0.318221961587697
0.309725697520182
0.308144916201836
0.319970847956966
0.311846052112421
0.311067447380487
0.317500355127995
0.285819285801651
0.319477769616132
0.31045791664177
0.306506518317773
0.316881759131669
0.298587731273297
0.311342144282036
0.301527704009428
0.307363551942927
0.305784757819862
0.289379318914367
0.293506013412611
0.291122610977377
0.282409346719837
0.281340445546799
0.292055800189624
0.285236530945064
0.291241705856615
0.269949669467996
0.270058345860425
0.272251838029526
0.279335632436194
0.28329932453244
0.275912115878091
0.264829941438241
0.273754934259509
0.26230863532166
0.267010122192174
0.262417825298025
0.278132653864011
0.283954340769175
0.270877042239061
0.270582147029767
0.273872243516451
0.27169136592474
0.292423405417688
0.273665762251033
0.264961590513346
0.260258061372564
0.281617615589928
0.258736581535651
0.257596400051277
0.309375656643945
0.290426003539511
0.287115240701248
0.285845590062263
0.293126894907457
0.298215488927658
0.289147634451174
0.295137045808008
0.296210174741293
0.31534323920763
0.310807332829994
0.284532063960095
0.295890658728758
0.310621296369242
0.32419867265879
0.303796833407224
0.306357290600361
0.319309263016317
0.319603565726238
0.332324680235578
0.323838920400264
0.343656990745077
0.310907538612408
0.360959274931161
0.360340323287116
0.351067366283034
0.347509064946676
0.421503589693521
0.394641463606733
0.368511451534933
0.393533674784203
0.395951197054737
0.407997044194479
0.39000049342163
0.361204761628021
0.414443362938358
0.393657269429053
0.371368314331629
0.373010143329875
0.378890816160336
0.379263804985556
0.41022407311824
0.378379975873331
0.355662250561189
0.391900322816922
0.31607833961276
0.340388186010064
0.400683699916419
0.374181426586683
0.443331922133031
0.384823873183834
0.388580844974593
0.373871043012246
0.330251753835877
0.332249076740937
0.370851535838564
0.312181254952948
0.33325058245826
0.415424433082035
0.407757458090563
0.394871433084373
0.418144495165528
0.455104184122967
0.450665403153186
0.323997574386515
0.325219094745269
0.304491588834141
0.374048046275369
0.359138766167216
0.378592702300788
0.329295744918596
0.481112650644672
0.457909180509247
0.483785744931386
0.335294923750212
0.356491792678958
0.357304276182657
0.325800817031492
0.454162983379272
0.441446929625982
0.323617007862605
0.489371893184224
0.411608040847336
0.436184002524581
0.363272351135444
0.557688182429972
0.361984313331424
0.278823468335925
0.393385112606177
0.556856766453669
0.340056023089588
0.268180472727567
0.316823196344342
