3596
4000.36533379555
650.420452594757
1
2
2
0.0280991556678187
0.012708762266396
0.0258078680243428
0.00555531819318171
0.0330620288446836
0.0149538443106101
0.021634775786673
0.0149871176577265
0.0261289943768668
0.00406270254273384
0.0208763250757634
0.0160803530001422
0.0256112204487477
0.0127300241560039
0.0232668256249725
0.01146936922627
0.0255443771482205
0.0146162101395983
0.0293278213364892
0.0151023303301762
0.0275185116148941
0.0113332395017891
0.0312936979480943
0.0079399378966238
0.0221953854896567
0.0107271735953807
0.0278117723268704
0.0152717916200109
0.0299094559130014
0.0131173855644385
0.0267502453668915
0.0149142912116485
0.0184471514547848
0.0209126770192716
0.028147347921765
0.00670061693004652
0.0205441980377231
0.0196989305176363
0.0293825009416209
0.0114985996016424
0.025894066036986
0.0191325300810776
0.0205962376706752
0.0141993787704944
0.0315462254063849
0.0176912155440598
0.0204173650418523
0.0137958034745972
0.0251969680163234
0.0106074153746573
0.0241553838787902
0.0206403014842856
0.0300848222260227
0.0247166820501435
0.0188428144164351
0.016478536224754
0.0227857478189887
0.0119258698148797
0.0272153394312652
0.0164938441088531
0.0221924516369897
0.0152431702638469
0.0181043501155049
0.0154177892410833
0.0231822319184421
0.00904830406806862
0.0196915853075986
0.0205690866699343
0.0250174618023122
0.0284243365058363
0.0245997250479117
0.0151480067867206
0.0332155310462819
0.00742831384715931
0.0298996484502302
0.0140374949856642
0.0233023813904858
0.00817216026940886
0.0230273649964183
0.00616849157211246
0.0304101396930756
0.00573482746629574
0.0242634418646993
0.0158561687269479
0.0152334405999834
0.0142796156369336
0.0322162359048747
0.00306027391922551
0.0360807234761735
0.0154544252731494
0.0230518344289234
0.0106610057556193
0.0270514247518653
0.0138916141713089
0.0266858023920975
0.0103135965513075
0.0225578768626127
0.00387647643186203
0.0249946955179025
0.00103668408179567
0.0370581257306033
-0.00840050344962517
0.0379856712882163
0.00755078343521174
0.0189302931125325
0.0271008501491651
0.00186859909582742
0.0308836054446195
0.0222340833731381
0.020970336575305
0.0304624774698157
0.0127474349318232
0.00949316141165322
0.00731003513960964
0.0298267858633099
0.0119398974443775
0.0303625139263465
0.0063860906800583
0.0233471908908662
0.0110749007835713
0.0269910177252252
-0.0122730105277135
0.0494298464424264
0.00367429472818003
0.0215110676912933
0.0150158249448471
0.0305941915558414
0.00503762573616564
0.0366862256384574
0.0116169862562239
0.0290156203855638
0.00624856536919351
0.0291959508464574
-0.000125529505883123
0.052368103837777
0.0109797947834992
0.0222948712977031
0.0118742169651167
0.0158999805086577
0.011789123162945
0.0214778679236571
0.0120156933233392
0.0262927885546686
0.00580614995374521
0.0352703136988456
0.00645163431174608
0.0269756813069931
0.0153146980639276
0.0290015138446504
-0.00489309305605081
0.0206516095866386
0.00600361723039534
0.0212342188451399
0.014878975531763
0.0280115669409146
-0.0160975165395929
0.0711023671701419
-0.0170734384993815
0.049754387654891
0.0118135539350223
0.0255662621093072
0.0120994684880663
0.0147549649172677
0.0194757786145702
0.0164742453670365
0.0149591531130421
0.0144595184683053
0.0269587101015847
0.0218090412824416
0.0205600047969515
0.0325571051200303
0.0160546203608899
0.0212846286775927
0.00468745950253318
0.032331383613088
-0.00563203572441539
0.0371154827994526
0.00332484024862934
0.0246848564308121
-0.000365352169759157
0.030706363620999
0.0121953003480147
0.0210952077317403
0.0113843843689947
0.0267599049952658
-0.00192547806226724
0.0261176612198879
0.00319902105608011
0.0279516015649048
0.015777782755932
0.0352812149457085
-0.00370441671712979
0.0321153545292506
0.00166774687884989
0.0233679891300881
0.0146835927248778
0.0132647307820896
0.0191170634267991
0.0153427722862348
0.00964854056931393
0.0154857578986778
0.00915632279782699
0.0238812103817821
0.00714910117619054
0.0242390175073694
0.00179170510429156
0.0192482260890704
0.0197588054600561
0.016300759118388
0.00382528938597509
0.0220118601175823
0.0144461546528186
0.0123860656676985
0.0314992670548051
0.0156817929974068
0.0167503316576487
0.00941202843464812
0.01285998211213
0.0294607744682234
0.0136781896192472
0.0198098595425362
0.00940113870105506
0.0276369085404214
0.0124680993501574
0.014148765537642
0.011728586370073
0.0166835697148814
0.0121324909981375
0.0152575389484468
0.0104671453196988
0.017033496087845
0.0200589374681379
0.0255439348875206
0.00842295745046099
0.0284515694850798
0.00526219457099161
0.0301345256926694
0.0130113683021405
0.0238746782849391
0.0102824036609183
0.0149836002555003
0.00486951298060594
0.0212890984817798
0.00604965877480186
0.0138236689921911
0.0119836470940781
0.0251296133042327
0.0198782335962978
0.0111672577573699
0.0289684874075702
0.0067012014918545
0.0278313851995492
0.0038896143144378
0.0169504868315873
0.00664232724039493
0.0251866328866696
0.0061540370856811
0.0226250032975421
0.0279611592453674
0.023168694947449
0.00694474110044732
0.0200941619008033
0.0188714223133392
0.0192003121933202
0.0255478488480096
0.0120595321555566
0.0456097365029819
0.00191054351393343
0.0152220976494121
0.0262245714687035
0.0180561663072567
0.0299591611414617
0.0148133275811523
-0.00694555446310158
0.0344751540519577
0.0156028035588183
0.0167598313233421
0.00836694591197311
0.0231686854927121
0.00313057141138553
0.0343525093602174
0.0156702434088157
0.0561384448160328
0.0286919977082081
0.0186034940905262
0.0372862735191891
0.00628675732808823
0.028398254116087
0.0065914666223431
0.018279749907888
0.0147742477090757
0.0308111279858491
0.00855250485307413
0.0247781457527298
0.0126628641095758
0.0278624338260108
0.0183186935402038
0.0174120574408656
0.0180017271334728
0.0163814467837222
0.0279966960923554
0.0256830023693766
0.0198251959031842
0.0151606024594951
0.0222012161720232
0.017207518793614
0.0347264911904755
0.0173672618132531
0.0243519821476229
0.0251871500843593
0.0149323823906337
0.0124305445198367
0.0278439335497569
0.0156419018962831
0.0176079204424628
0.0197495397883839
0.0184093467420825
0.0115347229424148
0.0236270053572756
0.01330242004597
0.0256710130284309
0.0166658637714135
0.0314845585852242
0.0160428274753188
0.0205051955209673
0.0190473099251652
0.0289072478107535
0.0224174525699118
0.0167509445904592
0.0238753783964126
0.0229177694707224
0.019243658839454
0.0400236313029588
0.00165181020212332
0.0397686251375668
0.0209698115495378
0.0289728034495021
0.0253599310906136
0.0283094487734263
0.02535877428674
0.0288819384932257
0.027948790729576
0.0353717987850316
0.0277569015820594
0.030423967971321
0.0318411678014934
0.0409123190407941
0.0283696973704283
0.0305488058150108
0.039374721980231
0.028557331255038
0.0473726938514602
0.00844405810625994
0.043243448719701
0.0284310691494969
0.0322873811751119
0.0404819081797201
0.0320453668175443
0.0408114280082384
0.0337476953049613
0.0456715668678211
0.0277269684975701
0.0478323767095729
0.0371781967300565
0.0477928218756993
0.035646282748796
0.0523551856712743
0.0370583008557555
0.0437323163268299
0.0498828952112816
0.0530199067735396
0.0359092310706819
0.0562095131579434
0.0413614471974376
0.0860159872740119
0.0318053876990985
0.0761277627370895
0.0589697788448731
0.0566270221907338
0.0562145150195456
0.054059277143706
0.0613285284360878
0.0649077194847519
0.0577757439288387
0.059131964194702
0.0660349118495996
0.0661014924493853
0.0706230439298357
0.0648593635712845
0.0706250172398012
0.068674832190313
0.0879742632218212
0.0801547881676847
0.0817206793312229
0.0714809376549753
0.0869199772216822
0.0689539607528271
0.111664452560632
0.0834459625761265
0.0837288698634549
0.0880468790407752
0.0840501972233838
0.0842071845115464
0.0902966343744631
0.0938612516042402
0.0920717714601998
0.111550016755911
0.0966566344164873
0.116528077675816
0.111879212995314
0.105042114531263
0.114129469646573
0.106927473288907
0.113269720130985
0.120450956769521
0.124559815069262
0.101534886902541
0.124914122033395
0.107750349132565
0.128315319537573
0.130383321922176
0.114243558148395
0.139660998484241
0.121513103520763
0.136026806704522
0.133265708156664
0.13821089071949
0.132038426670281
0.137726689663123
0.141258947437144
0.145744788613661
0.139989820679666
0.151926437047301
0.156874584961362
0.1593480215302
0.152083029951458
0.153240279687497
0.166682150115569
0.146906857928255
0.173103511926317
0.166699973580426
0.180688815397516
0.202023690737299
0.164568340860307
0.157716087251007
0.16443716151402
0.182064630764834
0.16995436852979
0.186417528761272
0.186049513597538
0.197491060574991
0.193543017623619
0.201991957481088
0.188344287335308
0.200976663843715
0.211762213587501
0.19518868235639
0.199312942909822
0.208161080051161
0.215610462293822
0.204922696559763
0.23607931788762
0.241398118238667
0.246041135297246
0.237209162119838
0.220866107546186
0.236788060884174
0.223580509541811
0.221174243914813
0.223737458459909
0.253757975164467
0.239006312599055
0.254249663059439
0.254337305822737
0.264018405144009
0.249008224221327
0.262361880991145
0.273793129564798
0.261821598843712
0.279039999600775
0.286711892876428
0.278369059948209
0.264267276707885
0.289373955594227
0.296373741598536
0.290423218919261
0.286467107083784
0.311192605183691
0.316463806616394
0.298027996820379
0.303744341324421
0.328915362077729
0.32068761481335
0.315924912412421
0.305365506938708
0.334212796718886
0.315537249287937
0.34264162583496
0.339826164353639
0.332955564432671
0.348797436127567
0.365620336706182
0.339282868351015
0.366484780276948
0.360396391028462
0.355822156278919
0.370445078110099
0.368874022845715
0.375640310199926
0.36927211655818
0.370381352604885
0.388756159181591
0.39694082821717
0.39105752957833
0.399444091827893
0.405864905997416
0.396474260243924
0.415352736452239
0.394247789388913
0.411159875144763
0.40960455299291
0.423509381474373
0.404461628857
0.433599601327163
0.439237570414332
0.442366790371829
0.435519081390141
0.465693747915702
0.442453483518627
0.458441493362988
0.452915246344091
0.463277709720294
0.455713341001569
0.461141251486971
0.482837510238157
0.484742267665928
0.466810091679241
0.487244907763843
0.491804541271671
0.510988380980282
0.504486427025887
0.514487082462729
0.483493050265739
0.49914384971196
0.50282323031977
0.520397284737592
0.50032021161133
0.535065314674936
0.541689289930969
0.527184785142019
0.532245266457495
0.562340351857363
0.525927424867504
0.536435490592119
0.543408168108486
0.565821964935536
0.53467603256553
0.567577836078412
0.545761975234498
0.570234560918472
0.567152421309001
0.584872418784736
0.584193930895573
0.600529757219514
0.5851165114184
0.642967284003856
0.593384636400548
0.606027542696997
0.599086970182245
0.636710211862895
0.620192765113914
0.618614108853815
0.623869836041154
0.639083596068759
0.605927038650633
0.646430817314872
0.630529046495212
0.651150792230243
0.620441193838318
0.660143394592867
0.616772928397156
0.687536744891446
0.634828138890532
0.696104929105118
0.660323871544581
0.687434974991409
0.668578690157667
0.701183069157109
0.673102495561015
0.721517294257415
0.675439851288763
0.745384231078061
0.710860880561692
0.752179552300447
0.69529673763297
0.733284230728501
0.699375524953997
0.729411934890248
0.71438039173971
0.755681599238324
0.7015411604177
0.736587469004636
0.701952543822615
0.707377268437234
0.714571780754627
0.753020856393407
0.728036866128761
0.818562764706009
0.730676084221091
0.73161278073364
0.728657831183158
0.778948866153177
0.729824034985705
0.779619396401413
0.738795707247795
0.783194285939769
0.780814616915688
0.862001204669174
0.800666837941348
0.834215827167221
0.803057510664577
0.7882703648657
0.772357188360711
0.872963981106457
0.784621768178819
0.80149056330592
0.770700977561891
0.820498550340404
0.786262956415445
0.85956097457664
0.840115606420777
0.8374564638417
0.784716791438772
0.850859198064167
0.847320444308503
0.897879640981332
0.789046160090964
0.873592903085486
0.813830700181627
0.866029748520897
0.831344763775348
0.871894335252216
0.823987154347009
0.903135338962242
0.900169635710244
0.881918868040976
0.847404018643895
0.854534948896123
0.840674389670757
0.907817494782731
0.861595641226709
0.871136842823652
0.825719995666039
0.904327198681559
0.865788656195982
0.898986462488046
0.87389164319755
0.954736134523278
0.838318699884934
0.955057223555471
0.879074462489382
0.949277730971216
0.881006413676771
0.904104993760171
0.897718752070982
0.919929983951852
0.889950876231467
0.893130838943109
0.929233806932607
0.958128212328939
0.894812738408639
0.945540336094232
0.864795230614684
0.906717988198086
0.904348278975476
0.940727532842634
0.917767247824644
0.928281792757658
0.898864523214124
0.982649853408895
0.8899625884543
0.962098964008578
0.906631732340785
0.986763807411311
0.917740117188997
0.952255143512886
0.936312898175294
0.969257031598306
0.945665126650629
1.01407841436247
0.931744539995345
0.982205254479238
0.904991909754874
1.01437429471053
0.925866007853841
1.0306544649535
0.91612441754926
0.977800868329041
0.918285386988823
0.958191316254595
0.932067887700029
0.980807803581437
0.946166383873761
0.949709529713568
0.932279288026704
0.94737531719339
0.964220353422428
0.943330138212781
0.978730586370796
0.952425631564883
0.930709461936783
1.03811798871885
0.973062418208395
1.02597001456992
0.961672203179631
0.996192772546141
0.951687330431407
0.961042294981545
0.936566482982999
1.01304197304103
0.971410469388528
0.978484016680179
0.946984846269789
1.01235071245173
0.954553871539449
0.997219834394832
0.958789445973795
1.02094898482552
0.934978220822501
0.981682320597333
0.906892607764034
1.00569781360856
0.914342921842649
0.990190363970765
0.914171035847463
1.01697595744201
0.918200842221571
0.984175109997745
0.938303205046617
0.993004062023676
0.907326751278178
1.05088321399255
0.951097219385346
0.953549053052574
0.971319657804123
1.0177855640444
0.961626556430133
1.01163168208793
0.95112843384332
0.975416133933119
0.935289620749296
1.00159564116783
0.917245765880701
1.01252162998509
0.971872100335557
1.00437918137662
0.940018276248307
1.02564125361635
0.91113230189316
0.962786403891808
0.928453657115603
1.00395267558471
0.94068330342619
0.986653602172302
0.929635276579121
0.985406835088682
0.935554793288754
0.977705559271853
0.935644510541232
0.994513612501563
0.947904633204907
0.99749038197921
0.929172241138247
0.956644487613721
0.926619012523874
1.00821120720065
0.913295843756045
0.969429980047756
0.941353428116361
0.982250682862615
0.921625963230486
0.946693336384712
0.937868585910548
0.935808447204449
0.935523159447477
0.932341942047605
0.942586115236682
0.967765204563059
0.891635065548931
0.996484710700858
0.920847688597827
0.942233085102882
0.88895406610285
0.919352404888235
0.859322564896287
0.929361427876818
0.907527284160758
0.914996676617324
0.919174644327334
0.918120209386753
0.889410670945603
0.957602614451512
0.875253749324522
0.957723205395067
0.885911506724377
0.901329060241879
0.852740029299031
0.910315547317957
0.869190299038892
0.917293362036107
0.916326983177468
0.941949502082961
0.87680144157015
0.913673831854913
0.87714561568011
0.914662283143413
0.835410397434807
0.880408349843278
0.842213104017646
0.888426361346189
0.801152812661113
0.866152289898595
0.857161789068126
0.902427381222843
0.836427356962822
0.854033496478365
0.863722910753391
0.868443023579511
0.845703474641098
0.852305431202234
0.826795811551616
0.856764066599805
0.84047574944404
0.835516940861267
0.819347005058355
0.870926989610853
0.80146765527971
0.849378323502824
0.806427026056695
0.851884413140468
0.775665696837661
0.822215715589009
0.785329499670153
0.83930353868047
0.821984690383733
0.846275951611716
0.782638098511863
0.835282271569175
0.790160057860556
0.830998598242704
0.756633913524458
0.799518838142398
0.754503385683995
0.794658879649026
0.758668823555535
0.811859485900334
0.770310479288464
0.801255493429736
0.753471335608429
0.791180691964116
0.73833017996352
0.783443856657528
0.729881540046114
0.792908481162931
0.725180136493477
0.757025756338545
0.728004848693856
0.761836310561014
0.722432901274229
0.752418408807262
0.738285306373387
0.748061267459601
0.72499417822762
0.726440133947844
0.720824743352551
0.739810550278969
0.714890258424642
0.727854524393684
0.687834729973167
0.699476957702677
0.683694635737946
0.713948764729766
0.683062539688661
0.690560461411546
0.677360306342319
0.693247065106015
0.684336959162201
0.665101894294948
0.672079067209491
0.691800376164705
0.66212757366931
0.669813884059955
0.653847608302628
0.686245223812298
0.646302284798716
0.687885880015382
0.632470696419316
0.649953033638205
0.639634727607174
0.647402294008338
0.630198125518257
0.651608857148104
0.621943980610846
0.635252058113246
0.617731046548993
0.632527932451016
0.600178586724818
0.627425322498194
0.601626390439927
0.61527252702352
0.599543061047487
0.610005208986276
0.595071010667416
0.603917186983236
0.584918032196766
0.59885395442863
0.572975041416939
0.59085231188429
0.5738457888425
0.580507631489331
0.574765866404694
0.567356362490992
0.551053585675125
0.576629464496903
0.558106771087874
0.577887163234866
0.557212098165823
0.563067549034986
0.535388561202039
0.567288305051905
0.53686437781644
0.541829282261476
0.545340144429395
0.539675631972633
0.53149902622618
0.539633466990024
0.526770455655045
0.536373564634248
0.51836920544255
0.531126937064084
0.514419083657551
0.528513792914262
0.49753030110095
0.511138509348305
0.486316155098776
0.505164485897799
0.496941490437848
0.506469632922286
0.49184435827945
0.491658441357196
0.480738623554307
0.492462670051306
0.474184863523618
0.495771808774016
0.474031282470684
0.488346676046908
0.470020021832725
0.471562955806336
0.466281064215148
0.458593100978604
0.463004591713183
0.475664373911004
0.457032137518881
0.465723007364644
0.454186034410617
0.459842046874731
0.445488263827527
0.455597832209755
0.448054355898254
0.459918068011656
0.438371193570563
0.450613195551443
0.428323836961911
0.431233228750318
0.426878033589804
0.434452382094338
0.421033788871757
0.435934551778278
0.42048304465016
0.424961582105108
0.420329427730871
0.415142572030682
0.40336612190103
0.409662767645181
0.398966551879618
0.411277770960451
0.39597320534555
0.4117646134443
0.397720685298174
0.40233497568565
0.389304366824672
0.406995358201831
0.388048565324047
0.396411973559167
0.380904531689143
0.389846567464714
0.366111572677943
0.381436698122324
0.375575466925885
0.388331941052476
0.377287040071086
0.379030077808344
0.369030739545682
0.371271125022081
0.356660182931617
0.375472990479851
0.363031800803837
0.358709911661782
0.353634170475738
0.365056458469279
0.354869989805415
0.356873193981466
0.348799706009894
0.352351424630199
0.342078435299144
0.352566614529792
0.340011877484204
0.347300126196772
0.332003249906257
0.340567790255108
0.333211996887845
0.338209235279257
0.322223269821934
0.331850609480607
0.322716414283569
0.326511226381696
0.325388732188998
0.327994242923202
0.32034326768778
0.323300022298227
0.310784784034102
0.31806608201282
0.310630404792621
0.310326096381521
0.30578385678507
0.310417131773339
0.301199480443247
0.309490891457746
0.300612370560986
0.301156991548196
0.297196677104613
0.298459489535732
0.291595148704024
0.300143384710434
0.286791699001816
0.292937480744282
0.290689447089298
0.292013363911812
0.286388632520061
0.29425205914182
0.275114872140879
0.285011501227826
0.276789687707057
0.284829185471593
0.276919912029455
0.277426746738344
0.267058692098439
0.27631979109283
0.270005896752064
0.275191642580616
0.264154629968389
0.275408401207994
0.270194840451389
0.279044920944157
0.269479854090649
0.264121535412722
0.263766054076837
0.266804510874724
0.263047229256637
0.264691090385257
0.259243601971091
0.256305107639746
0.254426076842768
0.26019902621138
0.253551103089255
0.25710243798062
0.261507521266827
0.262475405324889
0.254852998761367
0.259420517931166
0.255750488646677
0.262490748126437
0.254398599557918
0.263755692084982
0.26015796764621
0.260873286978915
0.25779003224849
0.265339705148995
0.25547896863755
0.265165733568712
0.256934350634861
0.262755598987924
0.262024913486828
0.267799835795236
0.26439310570465
0.267722010645286
0.270103676306475
0.27554975521461
0.270476635487788
0.278796052647254
0.271304991990768
0.275476078194861
0.275257469434114
0.285698224483917
0.283395635509734
0.290435369611496
0.281929337621574
0.296187845342431
0.286121040946713
0.297966878396034
0.295836405433095
0.300445643038251
0.295670939710487
0.306497207107214
0.30163633313807
0.309508513095758
0.301587564891874
0.306713670313015
0.314073121417746
0.320544595079175
0.315359543317529
0.317427665688037
0.313246021062644
0.326888881834591
0.320401153062567
0.327978484465295
0.323629549434425
0.330920284980891
0.32640445665872
0.336540212721799
0.333757906604209
0.34033081053634
0.337546145764359
0.345679160936756
0.350435175736337
0.361127127314528
0.358142980405802
0.362154511866605
0.357542247745991
0.368370754362487
0.370064039637256
0.377068885440749
0.368824364150532
0.373311491997325
0.360596843596793
0.378140080299836
0.37306870748868
0.382225429264325
0.373378783428396
0.380886177026411
0.38749992842108
0.384485803668921
0.375101453865
0.392335610210478
0.382540037348883
0.380208379722673
0.375701956876136
0.388148831348104
0.379170264033134
0.380532058629544
0.379917948909835
0.386414618523446
0.37468306224251
0.391961701760976
0.378911108997783
0.385772540525571
0.376048603580883
0.385162173380707
0.374815215727825
0.376017231079373
0.373617748243394
0.380171239617098
0.371253584056966
0.38619150224906
0.373884775222732
0.380710402403544
0.380553776734169
0.38621690120304
0.377991746991368
0.383839242630873
0.380285843693771
0.377311429859163
0.370714028265895
0.389880144203395
0.374881754501892
0.376294168182248
0.379998275108478
0.386751425407943
0.376991863914299
0.382671312320088
0.376209067082646
0.383157793189699
0.376171206362802
0.382276258810438
0.372568486707173
0.379505772294343
0.375980405772701
0.378888147497114
0.375160032825206
0.381775957359591
0.374594289083461
0.377225678011066
0.372916471444207
0.367092034473601
0.37041250481297
0.3698360679112
0.359298808584971
0.373236468499523
0.364889643282822
0.363324999191209
0.359734203199959
0.356978924667903
0.352766367123526
0.359796663134855
0.349664547112219
0.353654307369991
0.343401846531004
0.344375951220092
0.338000553891799
0.339537716863989
0.332838476309865
0.336399829429756
0.320949327262711
0.329443329676033
0.315665829254657
0.325429558420394
0.315644831550994
0.31926335965349
0.307742978022945
0.311688863455286
0.307374271330484
0.313888664857014
0.30399295807449
0.302811248837548
0.296124212281757
0.300963628083281
0.290610970976941
0.285283231045068
0.283251083922552
0.284971975773878
0.282954488849032
0.278970205322925
0.272490517772826
0.275019966033772
0.26973341620198
0.269853127607207
0.270531410823554
0.274089333096795
0.259797752392846
0.263790422813248
0.263630655314301
0.259637503298667
0.253347564204144
0.254831877857105
0.251202028913238
0.254889411691724
0.249826395219465
0.252760057959266
0.245095025984967
0.245818507509906
0.244765944127103
0.24753587817457
0.23923269891352
0.244814550434049
0.233699312684973
0.230111993587112
0.237685887023665
0.234186815794502
0.230792625951777
0.232316107769734
0.224086741546304
0.232434264548389
0.227690398211122
0.233295220045652
0.225174829464397
0.224989871296471
0.222670812722584
0.221742946545669
0.221549394028863
0.224059798478894
0.215803236899498
0.221983351940088
0.217281208427765
0.217321174206235
0.217056845646059
0.220195166780248
0.217491550606248
0.212106455851238
0.206346591449581
0.2115152703786
0.203501735645616
0.21220293558119
0.206130202427486
0.208995850111641
0.207518043339102
0.207753398777917
0.204384040294232
0.205441399697565
0.201484856455445
0.202520289103478
0.19589203628918
0.200278890826829
0.196064224446739
0.197693097115884
0.196612051633492
0.198589711264651
0.195572910035188
0.193336707631133
0.19222845949643
0.198014866978717
0.192870487542744
0.196567437799202
0.191457340275849
0.192075022199445
0.190133166261318
0.190912594730468
0.186118864600657
0.187601053618111
0.188119911857366
0.187395341409343
0.182796384955941
0.183695618158143
0.184007695119771
0.186612543206824
0.180743829485789
0.184874641442196
0.181193910301897
0.181450632288142
0.181891962651691
0.182541587921346
0.17914128781892
0.183389540290313
0.179554324397189
0.182315740261846
0.178234121084035
0.179359306754303
0.177602068516707
0.180466837971402
0.174159624207723
0.176839837878341
0.177915484076202
0.177184939969087
0.174542726690116
0.175460181635186
0.174077530919413
0.175226194250196
0.171599283174164
0.173035107922067
0.168889320267004
0.171191303864402
0.173277278611479
0.174138521833573
0.172018817306999
0.171595243370957
0.174540531603788
0.172427115725582
0.165679663899879
0.170903660403965
0.171075180039023
0.171935198414002
0.16481109940219
0.16760091693685
0.165975465262516
0.171607584868155
0.166186887519972
0.166786718226909
0.168747263566392
0.16379153183846
0.167060953158635
0.171322027434381
0.165229735995307
0.164748810949611
0.165386050344601
0.162064477667409
0.160735267000865
0.167310171495681
0.162881552121948
0.165704033891543
0.16279239173072
0.159615227948667
0.157341584386642
0.162532836027741
0.156190088364405
0.154850971797173
0.157622048059353
0.16343131353112
0.157080554997179
0.16023277379343
0.159409545553637
0.155692336515659
0.157547188108161
0.160640295636563
0.154947928730059
0.156254539978903
0.153211301364658
0.151113188713479
0.150840326385406
0.156000786997308
0.156235213133293
0.154309807956427
0.151475900361562
0.155669341514359
0.149110989412727
0.148950028502363
0.152462981664058
0.152791267144946
0.151338817562501
0.149317533338128
0.145250906741633
0.147051881270864
0.14642775827546
0.144191210780718
0.145180817211501
0.148674051883883
0.147545914241413
0.145680823085617
0.141664391347343
0.146108591903101
0.143635532088842
0.145034985925372
0.143906311139753
0.144673474039429
0.143488182967387
0.143349526493152
0.141784402547842
0.142718949667898
0.1398676144409
0.140327067045007
0.137172739809645
0.140711262210755
0.135422544010295
0.137813644753155
0.13751147257941
0.134920214469848
0.134384609814141
0.13731545010268
0.132624850959339
0.13207253760886
0.132819359848615
0.132754108507401
0.131043596737744
0.132921009064506
0.128331538652626
0.127842202808891
0.129584567384178
0.129206524264368
0.125894950262309
0.12996659236974
0.126731379293067
0.129175944419746
0.128463823751532
0.123078038580756
0.124521820363626
0.127414908338758
0.122286198194032
0.123002956566826
0.121197880882795
0.123367900936813
0.119984224449445
0.121934117419547
0.119106988911161
0.120026453560553
0.119758398052987
0.117279908329938
0.11175867736688
0.115740695697433
0.11569519986087
0.117150877435976
0.115837039783704
0.11701018221295
0.111781033783289
0.113542220223134
0.114917045799936
0.114323445663958
0.114067175529415
0.111854211209433
0.108824999254694
0.111389939726061
0.109611743307708
0.109648956594423
0.112449202715095
0.109856091783877
0.109227561074878
0.10982960652801
0.106898251365048
0.105241260272721
0.106016112231349
0.103930655696974
0.105005207236463
0.108359483180614
0.104297924308374
0.106375626718295
0.100904403724516
0.104113901891618
0.102991977683652
0.104063714041663
0.104290171666568
0.101936334683203
0.101761204577195
0.103872223528456
0.0998604328572445
0.0998403191529741
0.0999741529862338
0.0994389964350396
0.100730069198141
0.0989252529044281
0.0963015082299849
0.0975301227721619
0.0964348568813205
0.0979012226034697
0.100509619740005
0.0976442169071918
0.0944582254040567
0.0961265842824117
0.0982392163702985
0.0972628951749325
0.0924540685948305
0.0938546972474468
0.0955549167456513
0.0952771813229619
0.0924369209579382
0.0938842421639998
0.0919642504574327
0.0932090510591664
0.0932619368547765
0.0921119918921913
0.0897423501579781
0.0898536131031494
0.0910989214622654
0.0932803164435607
0.0904752366071589
0.0899550940079347
0.0918311493156267
0.0911828820449901
0.0905864933231468
0.0900544576352734
0.0891507675845548
0.0894500029244319
0.0900757341397442
0.0905172958350252
0.0881038432886175
0.0891136002601355
0.0892351728621904
0.0881590826105534
0.0873735979839322
0.0866448794737381
0.0851321392840123
0.0845383154507429
0.0863178197013403
0.0893073524172646
0.0869168556186448
0.0846671955156665
0.084518366611911
0.0864172539294953
0.088260190605181
0.0883995772915825
0.0867742593170808
0.0858410449536722
0.0854844058939586
0.083349815375395
0.0865575998290542
0.0839706482515514
0.0815148927052626
0.0829769399711814
0.0843449119913228
0.0804339376909303
0.0835551334230847
0.0822713333247818
0.0814706882463035
0.0814405770817173
0.0791575627671892
0.0787943380759035
0.0794717439730515
0.0826589274938661
0.0805600417570326
0.0819299544300085
0.0815901762302827
0.0813656789220753
0.0807337796104894
0.0828721012591312
0.0810345990345317
0.0792165605128377
0.0778689784953364
0.0815149605009348
0.0816269696421208
0.0789116056771667
0.0806559095330088
0.0777222163228073
0.0768166083480396
0.07886931761282
0.0785104790558894
0.0780112832301314
0.0758776947920502
0.0783990912657779
0.0802079691370349
0.0778596431587767
0.0782065774233798
0.0773321873630578
0.0763701336406488
0.079414669612702
0.0777621403849361
0.076408338402177
0.0755813048904585
0.0748076058011126
0.0785328603941044
0.0769063580620122
0.074235199013473
0.0761074459277562
0.0749388118181531
0.0776039422306281
0.074836576988596
0.0722232645682939
0.0736273653286069
0.072096661094107
0.0765960414311671
0.07244864397872
0.0756572801621743
0.0754778315428351
0.0750598344090653
0.0701778430780179
0.0757090520558134
0.0743802304090928
0.0706902529554145
0.0711177990766189
0.0711252263446651
0.0699860433746695
0.0712786147284544
0.0722822881716147
0.0720914396922131
0.070288496710298
0.0694958689864453
0.0689774371037472
0.0693762814529425
0.0679181922617988
0.0678254502059804
0.0706680745345587
0.0718079193138289
0.0692136276517959
0.0682534030871062
0.0657051968794835
0.0681368195058736
0.0643574362938688
0.0644380573961739
0.0648226847040532
0.0645562328904746
0.0651172074463424
0.066237883783372
0.0631548969838136
0.0646706137345057
0.0626659819182259
0.0641261489723051
0.0651843085726202
0.0639659637698661
0.0601546560257591
0.0613967633599146
0.0629223967723584
0.0600461688292268
0.0603090977565292
0.0648486174446743
0.0635995597418137
0.0614025564641332
0.063225545816621
0.0615216068039636
0.0614592757028577
0.0625288002883822
0.0594824330577883
0.064834646718968
0.0586718710860183
0.0618403234817367
0.0576010705889007
0.0581827462265202
0.0581874827548777
0.0581688472723823
0.0576749019843575
0.0589555351913917
0.0570578197396373
0.0568471621137127
0.0559991835209246
0.0580370047190398
0.057899358184593
0.0543096652713244
0.0548774727870804
0.0557146164676968
0.0537364917235963
0.0578958383720145
0.05644073868703
0.0561875240165179
0.0538135659406116
0.0557038511909822
0.0543118080247485
0.0558267819874181
0.0530696727636329
0.0569383437492994
0.0540844763219621
0.0567800781198922
0.0508223062509657
0.0532884595765581
0.0511317428780264
0.0520535622011078
0.0490073841006428
0.0522341176747091
0.0533241013455451
0.0526266634232737
0.0486986996249663
0.0533802312921839
0.0498851176823044
0.0516932226536924
0.049796093062116
0.0496987336875788
0.0508334552832435
0.0492499270494451
0.0488294958723947
0.0531941513054767
0.0506529391558551
0.0511028372763835
0.0469325165194975
0.0502641419620136
0.0476994970421815
0.0500645888789797
0.047324592654953
0.0495962617003128
0.0461863137197535
0.0502407095828357
0.049012997253179
0.0491642979286795
0.0484143178476252
0.0499943776007935
0.0450019777475563
0.0509786535662488
0.0462319365250662
0.04846050282806
0.0493360883645975
0.0502109566914718
0.0477443898918305
0.0477574700067289
0.0453177115871767
0.0464763890258599
0.0414703956314483
0.0471658419417353
0.0447124552559974
0.0474264391538973
0.0411748028688949
0.0488454020941227
0.0430590455528603
0.0486226291263574
0.0368705268115857
0.0459979323387359
0.0402386423796638
0.0469800232601967
0.04686255692138
0.0473513656323594
0.0402426003119702
0.0416425069086153
0.036071109774277
0.0506791641703772
0.0417686407898961
0.0467548587367629
0.0410856822830602
0.0453793993906852
0.0329412905785886
0.0408210297067468
0.0351769295435139
0.0459921444813232
0.0360987776530514
0.0426364352694922
0.0377958582164997
0.0434913577672074
0.0386096836921272
0.0493337562968523
0.0322678925447935
0.0487920857300287
0.0388523764217353
0.0418905077563985
0.0326144247673781
0.0479205709429047
0.030803394698134
0.0477738831328443
0.0331605003839993
0.0471891701332921
0.0312970716990222
0.0424958302770131
0.033281167355844
0.046783603542885
0.031737878211172
0.0493690397834937
0.0358226438343512
0.0555081300464396
0.0346409372775023
0.0453400072569144
0.0287872730040847
0.0429914926005968
0.0304940728627215
0.0469226125077434
0.0382882028442229
0.0403427084023774
0.0358602967424298
0.0374611347090472
0.04417745137237
0.0385113942400077
0.0489656865395961
0.0288294646947466
0.0520352154059925
0.0269837468993178
0.060257099874076
0.0139464527163202
0.0661505045085428
0.0190728438847911
0.0594498881454245
0.0173645391798021
0.0593348664494202
0.0211246442322011
0.0544223809864186
0.0324972699643613
0.0470582782260546
0.0358180379086036
0.0413083904776039
0.0427434228339658
0.039284206412004
0.0358088132400447
0.0380687123496943
0.0367942314953884
0.0412775759151648
0.034125386654133
0.0427808901740434
0.037201150296826
0.0422400443836444
0.0334983510261597
0.0405896555304259
0.038030644387924
0.0418865863682432
0.0369311392549952
0.0410087317858486
0.0365449540444669
0.0392258512349394
0.0399811805462573
0.04188857286956
0.0360547341960257
0.0393557284344528
0.0368882852689263
0.0417797572836027
0.0357931142852685
0.0386879137931964
0.0375353298461861
0.0387939100975274
0.0387305267929404
0.0408017978842287
0.0382181166560676
0.0401323150990611
0.0369570887745596
0.0390237908806164
0.0361782653785453
0.0397418839357137
0.03670021736388
0.0413467834787437
0.0380126562162096
0.0399421171622523
0.0371972667293397
0.0423456910058604
0.0361734716224174
0.0415446129295088
0.0379037170353836
0.0381866159818333
0.0377984966824991
0.0389556400200505
0.0370153707907624
0.0379199954643155
0.0385368394922222
0.03971259552314
0.0356923174339168
0.039496906659754
0.0369197874749364
0.0402477541151227
0.0366378495646731
0.0385942546174614
0.0359512287701831
0.0421034988232164
0.0375193124718202
0.038679837665267
0.0373734701176119
0.0393464657094392
0.036571661446639
0.0376616620429374
0.0378111234381367
0.0384337376196697
0.039346703759452
0.0405587331433878
0.0364822840221719
0.0392244175661593
0.0398106834836261
0.037770556332058
0.0366917826181987
0.0398989251657483
0.0353076224147985
0.0390805509448944
0.0377363233346013
0.0419650838349639
0.0389007421136147
0.0370102522093724
0.0388365848552809
0.0395016785391276
0.0385184183109756
0.0389325476049985
0.036459750718542
0.0382922587953572
0.0361719970375243
0.04008677735817
0.0371020766955111
0.0389386635990095
0.0375534677691288
0.0401492685671665
0.0416127641115888
0.0386158157083955
0.0410710540303788
0.0410056168541338
0.0398950124360264
0.0398818760116421
0.0375994995926633
0.0401999307136452
0.0417951736638127
0.0403920180681523
0.0387254923627853
0.0391741601243514
0.0387718732407593
0.0381346470932805
0.038539280727301
0.0404692225125012
0.0388964664921167
0.041093305948689
0.0418469284746257
0.0380355696244763
0.0369389421408714
0.0415269942627524
0.0421316015035417
0.0399865007296887
0.0379682933143605
0.0406051380419204
0.0404144165412378
0.0405158182903113
0.0386758472901439
0.0398551061527025
0.0409815157756886
0.0406725507681863
0.042213189921249
0.039650952132894
0.0410261923996816
0.0401752000443889
0.0403061071725164
0.0386299683549552
0.040783757320259
0.0400399266416854
0.0432003641245174
0.0397504228987366
0.0415485782648245
0.0416875093376567
0.0417673676360278
0.0420633589048936
0.039519768701578
0.0415126296218018
0.0395275826625209
0.0387106188340075
0.0403252864499739
0.041810448622923
0.0408743837100341
0.0403076791606774
0.0408768625654096
0.0406653943623486
0.0429397134573736
0.0399300707694944
0.0416858432506711
0.0430158941286499
0.0421984726990395
0.0438230535094297
0.0425967826505861
0.042998616913566
0.0414785780410743
0.0425179123830629
0.0419218850549584
0.0413118718210946
0.0410097640213966
0.0424945805873484
0.0416490457872141
0.0436648328992938
0.0423100541084524
0.0414236737486383
0.040806592421751
0.0429792068646678
0.0432937455720862
0.042384693349576
0.0388890508514202
0.0421321280361184
0.0394688794284451
0.0434489892281341
0.0401007008638076
0.0422371879805274
0.0415819993833413
0.0422169213814563
0.042302104647117
0.0396612562071283
0.0422577670267716
0.0427012208199296
0.0420809684650637
0.0397798669968466
0.0391560150275322
0.0399703427120205
0.0411941248933862
0.0409295192966771
0.0408454401961986
0.0391071629861498
0.0426416043602732
0.0403307442172847
0.0417262661899375
0.0397809629297221
0.0408203982537334
0.0413715054920517
0.0405994920219167
0.037172739047093
0.0385030819375886
0.0393737974018115
0.039664183322797
0.0399829717931726
0.040439628412033
0.0389612990115489
0.0419272295964849
0.0408520767454493
0.0420089076020746
0.0410766263055726
0.0389368019981491
0.0400016231306175
0.0395686567379232
0.040305493741776
0.0387989632235785
0.0386573980448345
0.0396885513024915
0.0402411180663332
0.0408298394783573
0.0382601608049518
0.0381481775853171
0.0382037067580928
0.0388434268026189
0.0387554297437139
0.0378806661098309
0.0392377993557654
0.0394259548816615
0.0380605288353337
0.0389648754062332
0.0376001666044871
0.0387674800337958
0.0378853613148795
0.040155533568251
0.0391932706664647
0.0384133397161495
0.0374844122021763
0.0385232306502509
0.0371119014721813
0.0371923958545378
0.038730048588223
0.0409208341501591
0.0372965219884807
0.0365730290869966
0.0361244441360937
0.0372589915811792
0.0365554060519501
0.0389584588010254
0.0374904486576916
0.0367425049405671
0.0372641021965865
0.0385090571380891
0.037831068863238
0.0353840261404742
0.0369310939865135
0.0379890152938784
0.0372569950870112
0.036990982897266
0.037889715525235
0.037787124513686
0.0378851817335138
0.039646735323406
0.0359657616541456
0.0367743102426146
0.0384912343528147
0.0364016743809779
0.0396621672072464
0.0399120780959705
0.0360209943507465
0.0363209776763646
0.0369081162338766
0.0383356948067715
0.0377102245125778
0.0384645094005862
0.036898066882763
0.0357792523762366
0.0365915756503958
0.0394293286629317
0.0375344508487663
0.0361276947321795
0.0354135370766225
0.0352996046567618
0.0370196306086989
0.0373913990355736
0.0356397271989941
0.0362403850310805
0.0359483013570139
0.0389733819942583
0.0368659685685886
0.0364476215227363
0.0350536001969434
0.037672950474303
0.0351278017323804
0.0378860659248407
0.0357351036367322
0.0359309847506381
0.0354422586648695
0.0347727959710652
0.0347779185129527
0.0362960173461571
0.0335798989763042
0.0346777658961081
0.0332616921677796
0.0351873745399144
0.03324171735527
0.0368859038465806
0.0350167030795489
0.035162933093423
0.0321981494646656
0.0332776160537299
0.0341014026730999
0.0351920829082691
0.0333268859704207
0.0368263691777401
0.0331851684982676
0.0355701418290329
0.0320504240671243
0.0345335854448014
0.0325565733108143
0.0324750967987994
0.0326852539801941
0.0340263765117958
0.0313509405308137
0.0324791547618718
0.0295060547358334
0.0317474586892878
0.0297782365260916
0.0338196467043157
0.0298962283481567
0.0354906349634205
0.0327418007484459
0.0319800368382547
0.0304673787174767
0.0320253734742404
0.0295603629370336
0.0316505653804313
0.0306495230618672
0.0335419048276613
0.030815714948784
0.0314783194430312
0.0315414233533463
0.0301548159770457
0.0319414704647899
0.0310648802990077
0.0302971784732307
0.0277898562861085
0.0315518512295382
0.0314643394152391
0.0310778875403931
0.0287094202728623
0.0313282230922039
0.0304023041042537
0.0292259303940239
0.0274693678197585
0.0310710547127291
0.03134875508568
0.028484074226554
0.0306967227527384
0.0288966359575473
0.0299775607525866
0.0299533001766591
0.0279127824807345
0.030093158133863
0.0281005251689422
0.0294478844092579
0.0283852919176019
0.0315025009005741
0.0302464656018632
0.0322293722263281
0.028686225115905
0.0293219222277834
0.0276909932194784
0.029164104386074
0.0297665584479284
0.0301212218866407
0.029857389450481
0.0290491018852337
0.0321493116884461
0.0306556168637884
0.0287702443526456
0.0305161185215886
0.0288307927692239
0.0313623040536151
0.0276189289167124
0.0276639339750895
0.0270082347222891
0.0274646200023357
0.0272686228619697
0.0302810088346659
0.0280725265155049
0.0319697542766513
0.0294451935870053
0.0294940900510473
0.0360650070509253
0.024575350618814
0.0332891470814288
0.026593942678797
0.0289462915858396
0.028137811542175
0.0294766165038921
0.0269348842193706
0.0307974748158165
0.0268191414858211
0.0283845324664757
0.0259713855313576
0.0294539663195655
0.0272163902326515
0.0301667495721979
0.0269226527356288
0.0309031135507862
0.0260854534424184
0.0292939747729532
0.02618795980877
0.0279579992592271
0.0293833450752945
0.0284217062351998
0.0259640513822625
0.0324417037530474
0.0217603926932077
0.0357608404676897
0.0235557673456325
0.0311341595877557
0.0273585577606772
0.0260804401778956
0.0257514998024239
0.030628529729887
0.0274482392400228
0.0276755037338404
0.0311694257768233
0.0230672457892641
0.029378183260324
0.025228817749375
0.0272890256494284
0.0271334081998503
0.0262335499846788
0.0257652505807982
0.0265755562204877
0.0275226773883702
0.026864286972044
0.0266759484281562
0.0263039212972955
0.0291852749759303
0.0297794009385432
0.0294631928479794
0.0291410391427703
0.0260904333218449
0.0274463595192118
0.0273073305992708
0.028687847165868
0.0278050369904814
0.0335510461744128
0.0195274072910634
0.0318391785537039
0.0240066749791398
0.0310459468703543
0.026102502768413
0.0295565714698278
0.0271549406686837
0.0287255991225418
0.0283074992413786
0.0288991229450125
0.0271508877834958
0.0277500842137919
0.0258301766000392
0.0264566690682553
0.0294141263648723
0.0260003331829174
0.0272615565939142
0.0225078704068705
0.0314000623410673
0.0264559153044369
0.0339490295700552
0.0326840618883885
0.0279501281080048
0.0292610939059955
0.0251146181493946
0.0279531210759857
0.0256646639180691
0.0295042754026248
0.0230926875233621
0.0291460505657366
0.0238657818140103
0.0276429955478077
0.0250724384551366
0.0305199405549012
0.0257803864785039
0.0306497961002417
0.0253596036999057
0.0303764799980195
0.0250372791090892
0.0334478619864481
0.0257592825473744
0.0308780773424344
0.0234219586583074
0.0339235536795252
0.0239521555442004
0.0319395242674272
0.0223808912333395
0.0366502865703084
0.0322916782438479
0.0231741559224575
0.0357914321446895
0.025556237741433
0.0303621889210466
0.0262055579511335
0.0308273390302755
0.0292164728614004
0.029324821669941
0.0277429257429426
0.0291665496798468
0.0250131051386144
0.0289094403237942
0.0278398545491288
0.0282179540513769
0.0363353002081957
0.0277848170865123
0.029871003548226
0.0320069442947583
0.022549100892542
0.0417406524388491
0.0248975071811527
0.0330971419329293
0.0278628459899367
0.0291397935137911
0.0313615825126516
0.0307576497280907
0.0276590656194926
0.0331165068830458
0.0307872247834397
0.026003772490512
0.0316215422467066
0.0279593320642207
0.0303838421691244
0.0301358205990739
0.0318576274566525
0.0330275322621053
0.0280530237799538
0.0334509366099356
0.0319110356374556
0.0303735105760235
0.0292961358345736
0.0308663129229764
0.0327163041548594
0.0296716429895788
0.0369644312515197
0.0303176888997792
0.0324881883942864
0.0333992294446499
0.0298515557029838
0.0344762873263543
0.0316427083051637
0.0352812337324461
0.034428162389149
0.0241319230120603
0.0507697852841165
0.0253013933189527
0.0459054408259739
0.025458010790883
0.0378313405899468
0.02577200520924
0.0393541926665147
0.0255898338468752
0.0386775725793386
0.0291518580509363
0.0346000519365761
0.0360012156998749
0.0332368678740255
0.0369624089528891
0.0315218358925658
0.0357098047640588
0.0335661745547634
0.0355721415857691
0.0324553806666088
0.041615453071385
0.030504141820045
0.0527335432230309
0.0341725639632538
0.0339191807616537
0.0413062412511036
0.03075521599772
0.0498127307640397
0.0347173093987807
0.0387880731562895
0.0377414697709663
0.0342959693371916
0.040436160350843
0.0312078125583459
0.0458576166800186
0.0406928344022545
0.0356282290946587
0.0417794045645444
0.0344915338425434
0.0482246484960551
0.0405757024813199
0.0384956494272431
0.0384540567683856
0.0436752345565221
0.0371910185862061
0.0417015704425762
0.0508205183679718
0.0341407583321307
0.0620742712184103
0.038440552994668
0.0558294907330098
0.0380476144259575
0.0501102453318522
0.0433410970054779
0.0553479351294549
0.0426502222635209
0.0513404641445045
0.0379006654971715
0.0618144793201474
0.0391994951361621
0.0541611440485414
0.0485759559031516
0.0518869501233235
0.0555285923663257
0.0706925061476025
0.0540339734118155
0.0608505849180373
0.0485896970787191
0.0641927216916562
0.0548598781480977
0.0567830975688884
0.0585095579521456
0.0578684072405475
0.0611239716676779
0.0600800685252717
0.0614595168975237
0.063388253048149
0.0575063703280819
0.0683691362184064
0.0586169250284753
0.0813728718757275
0.0615842475377997
0.0853034425315861
0.0654688438671559
0.0769739615795507
0.0661693861693264
0.0700019508316627
0.0721477617588414
0.0684155739703605
0.0759995832933401
0.0743380270748834
0.0754071493761902
0.0755436575461827
0.0789825755575321
0.0880109186448356
0.0697549952400023
0.0988281594606606
0.0737396016988802
0.0974604833736225
0.0685336873178248
0.130364669116753
0.0954373204523216
0.0963501356412262
0.114213211596843
0.0920541882198552
0.133072623504671
0.111522473354913
0.11736964561762
0.122094512404995
0.127510994434614
0.128954692021245
0.138933154798807
0.138956659845952
0.150333874003131
0.151814837880708
0.15373919257481
0.15859119708556
0.190931293223068
0.172074210561034
0.181624237539133
0.175654583882232
0.193363345271027
0.195386737639653
0.196332595400384
0.195230418364956
0.21427449946524
0.196576092873735
0.250425543669302
0.215990674051632
0.237022953776247
0.230906119118404
0.253500822343147
0.248215367269992
0.256659222144926
0.278723560210692
0.25447531069593
0.276843723247002
0.267591108770604
0.288837895042225
0.281803918436305
0.305784096094017
0.29790004569413
0.301508603213424
0.306453595968526
0.307178830404252
0.316551698284266
0.314524287786529
0.32099972143627
0.323927545778925
0.333894075306955
0.342361723812458
0.343466759643668
0.343334989667482
0.3185255215768
0.337658906470736
0.31758268580755
0.353390224673874
0.339845423840048
0.336761209629029
0.339068286456502
0.318390406044939
0.335086236275509
0.334905890406944
0.337495865540692
0.332528125188273
0.3366123594403
0.336415608391069
0.334782689883044
0.350384287842476
0.326268821343699
0.395162670873287
0.324825100484519
0.336651006686604
0.323141368344848
0.332162917318541
0.324553390354498
0.3403136431244
0.324380584398728
0.342180358753455
0.311848986981565
0.315041407968427
0.319291112295784
0.321320885309489
0.330491452037425
0.308904280190671
0.305790178753866
0.300453459273958
0.289464129513329
0.297860525123677
0.284142344358294
0.318029044410912
0.27854312153241
0.280019881415757
0.27653448584259
0.272253028925123
0.27475062897508
0.271420469603321
0.267451746394333
0.272759753535758
0.261566129724975
0.264981780337765
0.256161607574278
0.257966635591367
0.264099720841614
0.258881859200351
0.258177428685581
0.252068359064088
0.253247501407846
0.251192691151212
0.251977463417503
0.251812259492541
0.249072864676666
0.250665312920558
0.250440669075476
0.249858702119557
0.248838249056342
0.247562008331972
0.251513512293199
0.245587013960535
0.24642558254399
0.244354576464931
0.248494076262186
0.246059045875096
0.24548071050984
0.243986705606938
0.246814127352013
0.242918613587788
0.240099910038353
0.237402292030473
0.244107934839918
0.240279720715716
0.238558188284823
0.242990152668068
0.236173726581736
0.252428424563453
0.227422708338617
0.240754599800251
0.230921896677476
0.237130521949924
0.232837881869648
0.236959556111765
0.238638864611418
0.223838311829005
0.226406939979761
0.229525877299622
0.222979352040131
0.231314442822869
0.219759620522454
0.221255631794253
0.229407398260627
0.21633069947239
0.273050430679299
0.215262311136575
0.254722264964319
0.218299568264084
0.226046961769566
0.220153501851734
0.245075525144235
0.218914230826814
0.216816409020317
0.227519295376435
0.209770872231068
0.229025312205587
0.212358259479405
0.217935057957232
0.216528174604345
0.217642048301957
0.223545733226694
0.216035655303026
0.212458980556949
0.229631938670529
0.222052441991297
0.213147481402358
0.22381798560533
0.21134956171761
0.205935809123408
0.200291904358705
0.204590032928948
0.204414321728047
0.203326326966753
0.204066256094471
0.19538080516914
0.202539219514043
0.185240760482667
0.204581798351733
0.194333924903175
0.197142128851
0.183017496004933
0.190319849610194
0.191161736393931
0.17584071208703
0.202042194664128
0.182009248547425
0.193764511351824
0.172295596195172
0.183756975289503
0.178302397013322
0.191522047955165
0.17683095030137
0.171552536884278
0.173440184514423
0.169483849906502
0.172839563608997
0.170822285371021
0.157381653935783
0.177892369147486
0.163851500839202
0.177419748927225
0.172928961467499
0.158361795076932
0.155957180687003
0.154483446018905
0.153486562815572
0.156691941164667
0.149914684615061
0.161194245702692
0.138104201105071
0.164941626282626
0.144476354258815
0.161399352936051
0.162233059466151
0.156741741287137
0.156539939827128
0.160910106773358
0.158324599029462
0.177474476917068
0.161727589642975
0.171312775218291
0.152994814909097
0.169194016779539
0.167253357831178
0.17129025796242
0.170046152718076
0.173027390194351
0.176125887236855
0.184064985869261
0.187525752145705
0.188871792893918
0.189687884085006
0.204599215402755
0.199739882606628
0.215298296770569
0.21228267225129
0.209859598091319
0.248534834914816
0.217073887051391
0.243781867223961
0.23183630233203
0.237397384070689
0.242986932099173
0.242931256230926
0.253339514155889
0.254441609016154
0.268319582375835
0.266157641339067
0.260290375948199
0.272383234677968
0.271634969351767
0.280675029791962
0.274323412657584
0.309081315945163
0.270615845759521
0.310221713071417
0.289056429986217
0.29436817657985
0.292367506048465
0.292633587221918
0.305072979263587
0.292329648242495
0.300194674474239
0.304526856473413
0.307843296555127
0.30908320047527
0.306331712056086
0.313728732614983
0.308054204974843
0.311872227019818
0.314090383177703
0.318157755833119
0.319272056295893
0.320762622545041
0.32423731922426
0.330365064015663
0.337802986575481
0.342634123895183
0.324910567777525
0.339889944212995
0.334511714151049
0.34199400295152
0.34299152310814
0.346643730350133
0.348700920938174
0.347956491992935
0.354777150435549
0.354265562812432
0.350811442707129
0.36122389511997
0.354446684383255
0.366616456530618
0.356701721726202
0.379986394605577
0.359585726076286
0.387667054832909
0.372524150472611
0.375758591864485
0.377344054938912
0.380405948119206
0.382106648780948
0.376388403224417
0.382984400530489
0.382378131903861
0.383751878065629
0.379467397053819
0.382799129210331
0.378428039542644
0.381927327873308
0.384757815692079
0.387285275396826
0.385469150956063
0.381200748074891
0.381093004543092
0.379713594511024
0.385873765633203
0.377425974272549
0.385209577289951
0.376632150061895
0.374124894258596
0.377911765498479
0.38353241642171
0.379287746924071
0.381603126918532
0.372625078895321
0.379830172446292
0.378196044650023
0.383999847610995
0.381586015257969
0.386703049011084
0.384937555498798
0.381492457433714
0.386379841514339
0.385954863667808
0.393627015459773
0.389162664241016
0.397733261588196
0.395521291900594
0.399060659422936
0.394524334681072
0.398317647253151
0.39847615739957
0.403730232420838
0.400079231288539
0.401742292419464
0.393075953126294
0.391435555876543
0.39272870714659
0.394013903331136
0.393217232028014
0.385452203683073
0.380161766431264
0.3835198430226
0.373992814104783
0.383239793110388
0.369349168103166
0.376918302391671
0.364106478524513
0.371820444599501
0.360284673853398
0.361576863404678
0.354192831370733
0.349102814494642
0.352972746898677
0.348066543761467
0.34830014610308
0.343856643647876
0.34269920773075
0.343430074571547
0.341843406508357
0.338924394490148
0.340350403239567
0.341081791825955
0.336372819353686
0.339575126733279
0.338838657607534
0.336619784582762
0.331826928687964
0.336244062613001
0.336745373097087
0.343583809031122
0.33399408650629
0.337240120957055
0.334953442811078
0.33355996238372
0.336604821530294
0.331730180553241
0.332223007157401
0.329649208149519
0.335368222438822
0.333106927465881
0.331030869432509
0.331691805467999
0.335308922867213
0.332439317257347
0.331265362921829
0.331647212364094
0.3322739123003
0.328085587948267
0.328405646784755
0.332430042822941
0.331612933861902
0.32927052129567
0.332225322390016
0.329210426991586
0.329868443193933
0.331069461103948
0.325411233979366
0.330831428907267
0.331130512541395
0.330129035311461
0.328198547916312
0.331387988027522
0.329261078464262
0.329295537792871
0.326782435809399
0.324268515593159
0.32581937631817
0.323950649456577
0.321676948955917
0.318608325686954
0.319695872521795
0.314937758254791
0.314370764412627
0.315189669176316
0.311204809799223
0.308796342840363
0.304642072697465
0.299553413533774
0.296695705827397
0.297008751657976
0.293140077523618
0.291481976406939
0.286380705778491
0.28818733299581
0.287735094979517
0.284762071097592
0.284024937806241
0.284073508807596
0.282926653936977
0.283671636076457
0.281195080671388
0.280168432151654
0.278110157976536
0.279997780663341
0.281068107079269
0.277012668415725
0.277186832562947
0.28301947575216
0.283730401522202
0.2809305202059
0.283578561875042
0.287432871022652
0.286998369575424
0.287075031273178
0.287001585758838
0.289085598137439
0.288595480820546
0.290197681112133
0.291852133656009
0.295440529496516
0.29746473815676
0.292364736334909
0.298462388017538
0.297353727117088
0.300313151400437
0.299058973637145
0.299961162622994
0.298304534087284
0.300855626633332
0.298948425851113
0.30001727535427
0.298582627529801
0.299678708763556
0.299711788475
0.300260507543607
0.294558867690703
0.296678504408676
0.296770302979254
0.296320244502873
0.294362322104149
0.293180288235967
0.295114706480467
0.290440303909315
0.291535189077095
0.292084724900685
0.289471260999685
0.290519130444808
0.28711412825251
0.287434325246323
0.285462688187509
0.284048468289273
0.283457510442909
0.283427473521464
0.28241665764477
0.283815174342706
0.279564001200521
0.280033482344654
0.279433490354253
0.278897442787775
0.277653415010307
0.275649038041418
0.278353652297924
0.275026573681814
0.27345285253485
0.273960474579475
0.270846983268477
0.271289582465855
0.268435384554523
0.268389674346667
0.265778204514187
0.262985363440106
0.263249129345608
0.256280100844267
0.260558252182356
0.255438718749216
0.256129828743456
0.25248372146701
0.251019944325553
0.248754362360742
0.247673599138565
0.245897622498889
0.245703586670681
0.243932597834955
0.243309295504733
0.241800460219332
0.241700821502582
0.240543577183771
0.242395192568479
0.241892250776778
0.240408054541269
0.238768846117513
0.236051164858959
0.237942021390579
0.234836630276594
0.233852849849877
0.231025632701827
0.227476702152676
0.226866119175002
0.225137856685979
0.219164233863408
0.217084042949439
0.215705800186434
0.213916820897696
0.212479183154503
0.21030675624964
0.212433417826539
0.214062944934234
0.218212437371786
0.22173576214248
0.226669938858561
0.233989338789267
0.240242992787895
0.245574978219351
0.256921315503084
0.26466010458971
0.275257365595613
0.287000221317359
0.30087767541131
0.31055537953119
0.321667126951549
0.333849848454883
0.345913329137151
0.357630572151967
0.369262731742799
0.382040427768323
0.395769549563999
0.405457960148562
0.418365591939338
0.42478608498106
0.438757257296845
0.445281627920486
0.458370432239697
0.466179815388538
0.474766103017769
0.488144763637207
0.491755572545244
0.496130927053983
0.507520438618973
0.509819835889346
0.520858918457124
0.519647402617291
0.52672969098676
0.526628400806138
0.534025392730246
0.535198530369822
0.533671885329326
0.534280871682669
0.534096059159389
0.533671353556068
0.534204641949282
0.534185720103878
0.535870560255583
0.530939075360456
0.537655475183771
0.537448770812809
0.537016300627633
0.541207381883138
0.542157430378533
0.541682955244859
0.550578569957708
0.5493000224523
0.557259244887536
0.557499745346642
0.564766935289024
0.570656720563194
0.577224953162568
0.582476341939516
0.58540354629967
0.593191689115159
0.605701030517581
0.61262956711848
0.622384134136601
0.631056417074279
0.638141521488208
0.641072192519911
0.65635928511427
0.654653552927967
0.666418087741033
0.671700176536781
0.674244708987454
0.677144252665433
0.685151514772291
0.678454064007805
0.675204444920083
0.678677103022368
0.677087537088135
0.673503823392849
0.6706607124659
0.672623258723334
0.670022651206317
0.66981655689095
0.678303192106755
0.685657323203521
0.691717593897821
0.703044093559978
0.699276794178755
0.712467240796277
0.724974624317547
0.737206886003174
0.753354760746608
0.757796960101138
0.769974624351685
0.785941445735186
0.798745749599417
0.804404852819804
0.811345096088957
0.834501243195813
0.838355978909798
0.853566468081864
0.864129555966817
0.877615676032753
0.889342680184412
0.910403726610745
0.933435432575684
0.945441739207314
0.969494577427792
0.991913382265003
0.991471258692494
1.00728519276495
1.04536769638881
1.05092742490258
1.07081529690878
1.08439827083487
1.0974955007106
1.10342313484734
1.1025681490275
1.1049195722773
1.12539049510411
1.12353959552525
1.14191827632518
1.13397222213115
1.15445267683191
1.16689738007843
1.13597728825888
1.15466360852915
1.12769657911074
1.13355656859056
1.15682632650026
1.11892769173496
1.14580046690087
1.13918359274176
1.120673333317
1.12902387032033
1.11888509276405
1.13680773511738
1.13662203643556
1.14286862256988
1.17313453733801
1.17682198868775
1.19702113772594
1.21331094400324
1.2016354959303
1.22580595299858
1.24786846558337
1.22254215691591
1.25459478760141
1.25443178033059
1.29560594475537
1.27660059543884
1.30258073208429
1.361226688014
1.29403129413907
1.31980532523162
1.3199824043563
1.34825038506111
1.35573296830795
1.37247593196669
1.33559054144979
1.31413451230687
1.32376301890373
1.36810914383879
1.35157796449379
1.38288379141642
1.36699201522937
1.38344551932998
1.35890592206372
1.37551236153615
1.3708447284716
1.3648842322781
1.37250735848454
1.3860018001921
1.40018779238982
1.38574124171663
1.35730846339212
1.3738567634539
1.341516064286
1.3163370379908
1.29088957625992
1.27796991152467
1.2179990144367
1.19374509680482
1.17158285380678
1.13651738653226
1.08328327352651
1.04700567620163
1.0071818258588
0.966246886594487
0.928331782884527
0.890805301057309
0.865431512212396
0.840068201535964
0.81770916249606
0.811053002925408
0.793534279718247
0.775892792030213
0.77985290871627
0.768483986908237
0.75733910747043
0.752927899004307
0.745243958349655
0.731771159936321
0.721324494237223
0.713249684114518
0.708844150382686
0.687181053745924
0.670514400577358
0.664455489266594
0.63923828857286
0.6273058210817
0.60771708956646
0.589658291640058
0.578798019050185
0.554259756121518
0.539839129391835
0.511561605261442
0.498212960730865
0.474125272004757
0.446466428112021
0.434233525474831
0.408032081825043
0.388698133128907
0.369983157646467
0.350822643375538
0.336568580191772
0.31788067582775
0.303849384988891
0.294090333397797
0.283077451194335
0.266257513375404
0.26261580241846
0.248084725152262
0.245354437148845
0.238497991322729
0.229214788978599
0.220981775146534
0.2199332400546
0.21665916912735
0.212855126158261
0.205890475225358
0.209429596419985
0.206314272871695
0.204929945330349
0.205506694518745
0.206675791651507
0.208134107568776
0.212136318944441
0.20605690632686
0.212532197216207
0.212282208494352
0.214585343987817
0.212296720750492
0.215887521505299
0.215420490855934
0.215789580273481
0.214119780665325
0.209722696995585
0.214576103718288
0.208454762909095
0.211784544370514
0.210063866239912
0.204497554572911
0.205059949516852
0.202112835769641
0.202865095030266
0.201085656649499
0.20525445340574
0.200306770415445
0.204385964834116
0.205012289503089
0.204894759816985
0.205057731640482
0.207021774659941
0.210911225876373
0.215727852330574
0.21736692567123
0.211637352158693
0.216009788751712
0.22209938687606
0.21969065679493
0.225412236168067
0.228808751425897
0.2265312749874
0.228313630384948
0.2247985679546
0.229242317752428
0.227598324833469
0.230912101800933
0.229156328005708
0.229029528710055
0.22730422296446
0.234201474639365
0.233553128448447
0.234599822700121
0.238397044121745
0.234841094185532
0.240329567420401
0.242787247817042
0.251517696984231
0.255757998687597
0.258864365943989
0.25986762974466
0.272576747707119
0.286791503491033
0.296649900327913
0.294596519164339
0.301406590882954
0.310359492302253
0.319115140888685
0.314397104946463
0.316809385793004
0.317296619965666
0.309127873688258
0.307195609886854
0.299629290608227
0.290827833212561
0.289656013942785
0.289357412637485
0.274430827130655
0.273436017261711
0.272491536972973
0.273258688351681
0.269264364992536
0.26950459914091
0.267465948293425
0.26806469557256
0.269638835619821
0.267785197121362
0.264619401868653
0.276157988709736
0.272289288006535
0.269685579018346
0.260201671314167
0.264585127871008
0.262385230953489
0.250455295444036
0.251256529907115
0.254518593184274
0.24721044465325
0.23737131778573
0.243624625749553
0.24638190047974
0.23682947637418
0.234921085198178
0.232324857150484
0.237787524773953
0.237390006924325
0.24156288892067
0.236338224747025
0.228302313459156
0.230190773491096
0.227125115914131
0.224840149225194
0.224824295700523
0.221476050208647
0.221913019656603
0.215160724731623
0.21847518803025
0.214718550372431
0.221528395450919
0.220420529329126
0.207692397733524
0.208354550110601
0.210659482427453
0.205695848947948
0.209857336601915
0.206069974640879
0.199626620321364
0.199390340645132
0.204888560373872
0.203368776908288
0.19320897522513
0.193541505698249
0.20975465223724
0.198141178635113
0.204964021942702
0.193577543572059
0.188265800466901
0.192878339258433
0.190438312969705
0.196546967376793
0.201093443739116
0.202785716297682
0.196121549160121
0.195991979906897
0.201112113464483
0.199815596829402
0.194985640522372
0.201496517959871
0.203811866649311
0.206266285332711
0.207966986874557
0.201612956490397
0.207344650215967
0.209747150573985
0.2175478171723
0.21708804118614
0.216360754247803
0.210726614969564
0.210521278083763
0.216381309168361
0.22639717479996
0.211937891871019
0.229092798363092
0.229609972133272
0.230542082856156
0.233869522294705
0.239343050218166
0.246139415293458
0.262227184190834
0.255194331535774
0.259206105347151
0.256177793815833
0.279947335695761
0.287997434517911
0.293328064849544
0.298591599961846
0.31415178115801
0.320306235166314
0.324146380055075
0.338376644909049
0.34105862864353
0.35314038139569
0.367921313815689
0.372524650806472
0.3936137926301
0.37419693921173
0.389129905456804
0.39296125458954
0.383229476116624
0.389861940425018
0.391950748393789
0.356813589805752
0.363563247053262
0.369543558226092
0.373724643074765
0.356922066077232
0.373417493579427
0.348934354817101
0.348648840497229
0.366100953522006
0.355441060203106
0.349435737205901
0.36313794823531
0.351783999404263
0.349591365070698
0.34921594104593
0.354115600698325
0.321552995604056
0.347456893750777
0.345329437079142
0.348137464478545
0.327699465682852
0.326771476322024
0.330389068904511
0.322643845117806
0.32286960103812
0.315599949601681
0.321301838566004
0.320160635630669
0.320145538440717
0.313553018441658
0.296951222824727
0.314558147800786
0.312311697123833
0.317800686597834
0.319969450940657
0.327238876809557
0.309144064001388
0.322950252267795
0.341763770207933
0.322453898909025
0.313945062150595
0.335090755795801
0.320431042163594
0.320177670507319
0.331267441894784
0.317699946446589
0.321417759843374
0.335297758984912
0.323626429269975
0.327967154971213
0.338342182080016
0.320146848138751
0.343496157074636
0.338870184698885
0.357428539039126
0.368448238078022
0.356938139374755
0.342036024271549
0.352000354906504
0.367314344960903
0.362609271500803
0.362780848070933
0.358649196696007
0.358555575139126
0.374523632727884
0.403756972076744
0.404497034687339
0.421776684728414
0.389421775674507
0.427815715890173
0.421871956429001
0.415128092991465
0.421822921276281
0.438597014908306
0.459177518599089
0.453011545704239
0.473534952133468
0.479297554707711
0.482644606747539
0.481807788226952
0.432637007885784
0.433774614932868
0.464700427799363
0.447396709640468
0.478587891533852
0.477702659593558
0.477460996053044
0.555398448367626
0.449923505386211
0.414390147372992
0.404302495592732
0.457857220665369
0.431007038426984
0.466002050991474
0.430265425481451
0.432023636476396
0.440214485554537
0.464768985683266
0.454774459073802
0.425830755304278
0.393509994353667
0.437442252377775
0.442809275502185
0.402193466379947
0.405574339541275
0.412672173004684
0.414063851316827
0.481891794678913
0.387754450508752
0.505129349174202
0.498726933605049
0.422085378462729
0.326782111815763
0.525830388895143
0.479142263436318
0.491783869265882
0.465622322130432
0.348673086833317
0.514717093893632
0.950240122050989
0.455392119961177
0.470104027488822
0.360447984594232
0.379445888787982
0.465792537941083
0.489564006952099
0.328826849489151
0.322400892362402
0.375251703038472
0.628867868703446
0.487626015447475
0.378097762124764
0.440985776492343
0.250979328614715
0.280836309428019
0.554172261079139
0.482066840148611
0.396062231119675
0.346225196539316
