3596
4000.36533379555
650.420452594757
1
2
2
0.0554494445988835
0.0369511765886658
0.0536706616979389
0.0376766483411338
0.0483615023790512
0.0320795735959968
0.042489568156151
0.0418891454972744
0.0488677984955493
0.0323196766781303
0.0393390596797609
0.036603674700067
0.0522650867708325
0.0335829720326883
0.0435179220723674
0.0257109114586518
0.0441446828142789
0.036302731571045
0.0490996845560628
0.0387323999997261
0.0471435760980928
0.0356726420275793
0.0618596306340739
0.0379263020815137
0.0463269745687844
0.0390303326843732
0.0425280985364452
0.0411274459787486
0.0525948319472468
0.0356963633190269
0.0470510623918461
0.0383454215207441
0.0412082974010619
0.0440952378342243
0.0513732298370492
0.0298835099290063
0.0413615009784477
0.03519436620563
0.0555519057834379
0.0315217031510947
0.0469486890213941
0.0376126236231246
0.0466437524718841
0.0334486073700453
0.0424741074203493
0.0365860472235439
0.0435092006946469
0.0313423460436373
0.0488931182926781
0.0359014099106342
0.0485173971502562
0.0406596250339653
0.0561506226303214
0.0392320946524229
0.0324921777257409
0.0317777699150872
0.0408503922534899
0.0332925623380322
0.0446313144768538
0.0382500014125766
0.0413388430284137
0.0380208745365462
0.0416238057756577
0.0312126802011847
0.0429192139374713
0.0327400670208194
0.0383341835575321
0.0417249025525803
0.0447727988741928
0.0448674569069034
0.0384433169582199
0.0296248138853308
0.0490829994423898
0.0223048498708106
0.0461076680605033
0.034875955319611
0.0413272396595226
0.0277041414315144
0.0435375435003025
0.0188315108307141
0.0526159767675354
0.0206183442674846
0.0404636900386468
0.0318606111200817
0.0388342458590651
0.0307404765953458
0.0501464460244568
0.0219709463186697
0.0556350616810528
0.0260889858983307
0.0393579611662259
0.0279467760395833
0.0455297676575315
0.0286398681659062
0.0373078334388618
0.0291619821273198
0.038722780854792
0.01832243675459
0.0424899633571268
0.0131277746610106
0.0536234556828671
0.0141164604193868
0.0638723525607454
0.0245373060564503
0.0274287499298639
0.0423592939441527
0.0229529063939004
0.0408866959690246
0.0377411272522214
0.026561534634873
0.0352635141336316
0.0252602429143147
0.0290376638366444
0.0242010196918401
0.0413413192723186
0.029896466039214
0.0519519167278508
0.0200960604289727
0.0353496312907313
0.0208304575782035
0.0484436701208178
0.0072063361937056
0.0621234219360535
0.0163144905364644
0.0453495848333569
0.0274018040927602
0.0437357691321032
0.0254890602796616
0.0502518984776535
0.0180328597308477
0.0381891406111414
0.0181204387727372
0.0419812611323363
0.00883117298636559
0.0579997140757105
0.0241051554745709
0.0346215536895128
0.0209625533988685
0.0300897217987832
0.027970896421634
0.0306513096606353
0.0227496657981295
0.0416848013139592
0.0238992262228657
0.0537306577795986
0.0148491804609834
0.0377601809905744
0.0298780187342024
0.0430231577179966
0.0143740042903071
0.0336930603025447
0.0220436921006871
0.0321471431351258
0.0201976892854959
0.0471127490224983
-0.00978401426948105
0.0803868225770313
0.00788872715497195
0.0600266813714403
0.012486009412712
0.0288097179871483
0.0254418273196089
0.0316940119330049
0.0278955488231034
0.0233566513853922
0.0252138731881436
0.0325454351315248
0.0378289401909335
0.0341913517134998
0.0332369830983358
0.041435067759286
0.0292056286173705
0.0320756465779744
0.0272944767745085
0.0444008994468292
0.00369683684892009
0.0516055290481245
0.0130666232269555
0.0380845155079534
0.0130830101271255
0.0433053293285339
0.025416355619448
0.0320147683101018
0.015257118155222
0.0392106467574994
0.0157253464433362
0.0366770141112685
0.0134019165959812
0.0401989619015017
0.0228098700905388
0.0522694966238641
0.0179488362138655
0.0447756367720867
0.0139522377474285
0.033457393084028
0.019958873026642
0.0211268994104101
0.0346266650144482
0.0247394124649074
0.0225036818594993
0.0287777108519667
0.0198232781416158
0.0390628548640008
0.021962004936311
0.036616435613028
0.0152570073958876
0.033131043759811
0.0292653659114991
0.0317405976342953
0.0205470976564406
0.0320612404423272
0.0280425705675478
0.0279691106790113
0.0372146974655683
0.0288910458436001
0.0287365319677111
0.0248918294013676
0.0316055580436723
0.032387548194193
0.0213974431006575
0.035627745700265
0.0246317665223311
0.0391923128816722
0.0247698714185233
0.0269217321073214
0.0253280457754844
0.0332717978031095
0.0263400312277301
0.0313050692594808
0.0264273885024419
0.0331405626590704
0.029204886712581
0.0352329274956868
0.0180652069556234
0.0414506956807715
0.027426725972114
0.0446175131630476
0.02450877946983
0.0323779069440039
0.0175058835713375
0.0299400546333544
0.0261754317050815
0.0354684178788952
0.0204978915825488
0.0353222543792233
0.0256671760327185
0.0296657847953315
0.0333722077614462
0.0265954876738045
0.0427991365087009
0.0160360377394859
0.0480320674727357
0.0207371173117841
0.0304630406732717
0.0217002552122959
0.0405104418456811
0.0237039787860698
0.0306734362578732
0.0428361231087009
0.0399455195677875
0.0265594475988464
0.0361600372673114
0.0299546574378912
0.0365570636371237
0.0445453321091538
0.024933145601924
0.0613058732673498
0.0213782669720367
0.0299960966794246
0.036392670359272
0.0256326493522222
0.0381558137658409
0.0346489593646932
0.0118653209833168
0.037375423263844
0.0360017810857242
0.0406375659815624
0.0234754939058849
0.0392974196576285
0.019474321245368
0.0524699579769303
0.0244949390946485
0.0634874162837393
0.0449234129860484
0.0255339681217899
0.0536479998243684
0.0236177904166804
0.0420860277466429
0.0222576443640777
0.0352458217624181
0.0338770700871865
0.0458826837464888
0.0237588057781425
0.0449841239241509
0.0259504627819981
0.0433429446712537
0.0363039171120381
0.0339574399087464
0.0395869555886831
0.032790113562742
0.0393678250548696
0.042178640064475
0.038534756571436
0.0349858140768071
0.0414112325712705
0.0256643260021752
0.0522888228234154
0.0373651181326634
0.038270068688668
0.0465726436373121
0.0385301167455925
0.0366462028916808
0.0412478439834979
0.0394177506115366
0.0411306959219343
0.0385089425509181
0.0434443539214231
0.0349454154437311
0.0437242474782549
0.0329477333090173
0.0490566761898658
0.0371075746815418
0.0496612170370235
0.0382640776894952
0.0502368179009169
0.0504360264531619
0.0480047068773874
0.0395339209734946
0.0423993639653063
0.0554946219550401
0.0414651795798442
0.036112168589747
0.0650707020105456
0.0259586803211067
0.0600729878482516
0.0424312375920705
0.0564834434688272
0.0524767063978244
0.0500017318499451
0.0475039441781624
0.0474658407139494
0.051398492163751
0.0622778649440864
0.0592464969160181
0.062090780780865
0.0575229970213754
0.0716350470426017
0.0650903616478757
0.0571843385911243
0.0669087369124084
0.0583492359134196
0.084616908721875
0.0395832329512297
0.0789020046419413
0.0644739154837424
0.0569530498569645
0.081777903520254
0.0696949918328081
0.0738091401969033
0.0683293546325032
0.0823220732568945
0.0653305098997541
0.0851068851734437
0.0710874035932276
0.087129513400823
0.0758611842912591
0.0935727936407046
0.0829939889215752
0.0920942603817719
0.0958396316625276
0.101026524905014
0.0822537831061704
0.109587239238099
0.0908710024185759
0.135654277281249
0.086529145737589
0.11430773456916
0.109480763024962
0.106239387748655
0.103540930251056
0.0955966373954702
0.113591774347761
0.118830687009217
0.125131607377959
0.119833665913653
0.120220072000264
0.120942824515402
0.12978954363315
0.124983823107592
0.126339435332951
0.128860022443396
0.149048703387577
0.133422138191299
0.146053484389143
0.129106009459465
0.15801954044724
0.145625332265936
0.194926028739814
0.149186731344312
0.146723080341763
0.160016794339773
0.160320960736385
0.157009438488775
0.162428402378527
0.166330361299418
0.171334155332906
0.191127011366184
0.167790976905825
0.179332203197654
0.183639006319614
0.177680556665992
0.196540669044718
0.189891236538226
0.1900455202119
0.198170082984401
0.206895323449609
0.186108216509872
0.215234294679065
0.203903832002437
0.217692225041589
0.215178590501571
0.204067851652795
0.221494877257584
0.204994825821596
0.231932641627996
0.227175563145402
0.233543378271935
0.218999688894556
0.230280406695825
0.231269573571813
0.232442448897803
0.246215244494669
0.254942395791733
0.233290137772442
0.255810870074906
0.258058841445304
0.257599730902325
0.272829135169293
0.259154806558032
0.285925323913741
0.278847892032849
0.299976872660743
0.30401520136704
0.279082514219679
0.278709756413085
0.276191109163608
0.288971515245959
0.292111861526377
0.297842674072095
0.303957942365191
0.318227081736979
0.300702875747423
0.335181762010823
0.332433458834644
0.330462865378487
0.331356837972823
0.324633782553353
0.34013488989287
0.343861286472953
0.352175127433118
0.347155727886271
0.370470962355458
0.359984867308615
0.38503688231611
0.371862016619301
0.34608793648392
0.365223663311301
0.364537767935428
0.371265118337382
0.371203930448128
0.39698000766227
0.405973035888813
0.420452416675127
0.416896771470209
0.403617179207649
0.420819723539761
0.420133389430295
0.424783050700545
0.41765741779906
0.438426689309528
0.451075659563585
0.443711901213273
0.439889149287817
0.469370152381487
0.465525072826225
0.473551538805283
0.433196978007397
0.481199090736144
0.477546805651784
0.460033707357298
0.473293100332398
0.486622653948482
0.483214757892902
0.49421875842629
0.479574306170801
0.516095357208728
0.497667133077297
0.537979429072601
0.517965872632148
0.544827023917411
0.531229667176359
0.535209024666892
0.550218189518863
0.560462872144191
0.532622594082352
0.56125975106277
0.551583809697067
0.568653270628156
0.564485680118093
0.588095637615893
0.576412793927703
0.615726446594107
0.591051211901204
0.614537798241094
0.589965356686461
0.636456058594
0.596225298299177
0.619184694233272
0.627967156575251
0.65322593117496
0.606291631634439
0.661787010732509
0.651441014612137
0.666961496901415
0.640566723882351
0.683026064681956
0.651034647979571
0.674569152683219
0.649392200932869
0.68479520430054
0.652701089904006
0.692422969546412
0.678471254288702
0.719180226973597
0.712888677289227
0.683890434743744
0.675047186104659
0.731764494624855
0.73527125474076
0.735972905689462
0.72648209947281
0.770950907302896
0.731867459766703
0.782277635302069
0.747411581108394
0.784324119353532
0.783157694330172
0.819118137444108
0.772617019741753
0.762137339628551
0.765474475881381
0.821464438809536
0.782270580165227
0.80456103721038
0.767151603416508
0.834522501170471
0.785275482703416
0.826544116530395
0.843680244437697
0.88347986584301
0.805046723086427
0.885050913189443
0.853940371252653
0.851659705145827
0.84980313710899
0.934240284254771
0.882663870874135
0.87477386056425
0.854261547348696
0.912334101323327
0.869424413201222
0.899972833601848
0.911943329595581
0.953443624817561
0.927724906107303
0.961205360034666
0.901509321904969
1.0076521203209
0.927980164795046
0.94668874540534
0.908142540162049
0.9994049838194
0.913571370566526
1.00822484169885
0.957539171193293
1.06913084676139
0.998208328383543
1.05416390819394
0.915353295764374
1.00439801749901
0.926869270528551
0.968439055805876
0.954172662817522
1.11028638481516
0.975846325469861
1.04669610470115
1.00155384771073
1.01194192885259
1.01793261620498
1.08082325311364
1.08863482646838
1.0355468453626
0.953230524083765
1.08925186523814
1.03579249366185
1.07711413491386
1.03087567630378
1.12036121062381
0.997236310061698
1.11606093677036
1.03312662056944
1.15751335936106
1.00637427994216
1.13535324485887
1.07936582243151
1.20630037408892
1.08850291990165
1.08680652290318
1.08207142782865
1.09114443816053
1.06709093324349
1.21206662481892
1.16668396310616
1.2104397852953
1.08406871606986
1.17499589021978
1.13948812046221
1.19608170376167
1.03507441411525
1.23931869936707
1.23863714357076
1.31127365735157
1.17494285310849
1.15193108938069
1.13976657754689
1.28313843977608
1.20442292226864
1.23645104049953
1.11104503682956
1.24198799431163
1.15718991546568
1.24762495766916
1.13045504548737
1.22871474988493
1.17900618528649
1.41279980681171
1.15435096039267
1.25269335796284
1.25597696970475
1.24127130462286
1.2096225126114
1.39045286635465
1.19522121426852
1.33232933551791
1.28000906980866
1.36399068448862
1.16702003987359
1.38033105932586
1.25090150948584
1.28428847115333
1.2377933347802
1.40487580595337
1.27048529290447
1.29924010181032
1.30367679804627
1.49187647825735
1.24121273868919
1.38516665765396
1.33407719065488
1.34163710677274
1.24630714708711
1.57384064680696
1.24240816605145
1.34695089663176
1.16581076938996
1.27133929472781
1.14054663183306
1.36799915142913
1.25219798414752
1.51565805459866
1.29194977445326
1.45929862279915
1.34779017213378
1.45089364577888
1.27216099354898
1.43814811910048
1.27960777338199
1.37820652967742
1.29031150390284
1.47733068702194
1.27969523901887
1.38442030810526
1.28272491009582
1.43853536491133
1.3974414287397
1.46053361121685
1.29404653407777
1.54109333587205
1.25425403279713
1.45323850952753
1.30910854485845
1.35517024103869
1.30463903318038
1.55239788472852
1.34331246706676
1.41821412180841
1.28281534763889
1.40994146906046
1.28850730714922
1.50456690005888
1.26887820773876
1.50368086054598
1.2971086719966
1.51539740695176
1.41690646502357
1.483246352713
1.39638344768229
1.58135203727564
1.30578848659632
1.54529361969311
1.37910993323626
1.33926620564624
1.41527589943046
1.45974173823836
1.46293893267507
1.43903988075707
1.46923149612733
1.35460122524953
1.41036962958166
1.50229895721654
1.33538419279627
1.56661448380619
1.462384982548
1.46732937201011
1.55309941986038
1.34946802481925
1.38163571185269
1.55004807725214
1.31808501682708
1.45173462694225
1.47990626465894
1.46687215745494
1.43435760287148
1.42116985679965
1.36649126928383
1.42688749815046
1.28432772041466
1.56934310221435
1.40027620638616
1.48004399421201
1.36624476435255
1.44090762415344
1.48745584498871
1.44467769544293
1.41076567312057
1.41824435856364
1.3330156669982
1.40999348276217
1.44832793387431
1.5121925368027
1.4575486283137
1.41660214651054
1.31895063734767
1.47966650182928
1.34645704401514
1.44776390398442
1.30373915834543
1.40964410248553
1.46000409921316
1.44172913967672
1.39109245197496
1.52664627325375
1.34347273983929
1.48684149835313
1.36351803809757
1.35997435258467
1.42026968731594
1.53443864920839
1.41316578980449
1.44403728099509
1.34751045721092
1.43249920387417
1.33649826833329
1.44478074772891
1.3791772658337
1.47156736729851
1.35484374486815
1.41244229389071
1.30817629499606
1.38865951536542
1.29706266627703
1.50548396723835
1.28865810018128
1.40729120752603
1.31824741296319
1.40895455450879
1.33051639282318
1.44888291467871
1.35522859807994
1.32390945281494
1.33137859452905
1.39730196935258
1.26947421247738
1.36615321412229
1.34372503393239
1.42756795236657
1.35318466146462
1.42137301892282
1.3784340759609
1.50451537845238
1.33134967375593
1.38379292167402
1.24601510851829
1.32624710693598
1.23452738406304
1.32671520951837
1.27228122818479
1.32872166969375
1.33181792290766
1.35147704982474
1.27957261954688
1.32073088748031
1.26249772261012
1.37281480451165
1.25928359704329
1.3784092803776
1.28138746153978
1.22970509056816
1.2679174832107
1.26839757199888
1.24811786558686
1.3377959068425
1.27620090119893
1.33601516039509
1.41331697330843
1.33238083220601
1.2875827238718
1.3124898283074
1.20066609650097
1.32713191930767
1.24663544185136
1.29222904914962
1.2212065448581
1.31791763458774
1.19805518264322
1.31819741880782
1.21845367488566
1.20761787916904
1.19674640232004
1.29228182476873
1.17807566550029
1.27985453466171
1.20232414709915
1.30114028412192
1.17122660017044
1.23134437603452
1.17111367148996
1.26001390867765
1.12294518784011
1.20441272985729
1.14397679801112
1.21920743539051
1.12789050792921
1.19123389585303
1.1215867352396
1.18696871298712
1.13165486388432
1.18243295331544
1.1469319810374
1.20303407916406
1.14175176777114
1.15238122995687
1.07383180855701
1.17323820367886
1.0626954512472
1.14216899422976
1.06418260680366
1.14261139090716
1.10986168216798
1.11031884574533
1.0617843755913
1.15092032244332
1.07815141232922
1.09544725881824
1.03637015300172
1.09709422566718
1.00399279685357
1.10594129053433
1.01680661833594
1.09030539161238
1.02258077443395
1.04812082040307
1.05600200661963
1.08604405500466
1.03359669497094
1.04696918556708
0.987203394530283
1.0465765491992
0.974636618188673
0.994482503994956
0.974567524401628
1.00949286302174
0.996503702388971
0.972121617288878
0.968897819670934
1.01812544167919
0.971898778376219
0.973391988074029
0.948004596295389
0.992785054753145
0.931822622892498
0.969554417850396
0.938273749011666
0.972977190189343
0.915778585789179
0.929910123554295
0.916101271251002
0.946458677117209
0.884375969458183
0.93903312768142
0.888638743818731
0.889755906501559
0.871921830503296
0.93195838602238
0.870457805399569
0.909056018989971
0.870472442059868
0.88393048038155
0.838587057336489
0.916811482758324
0.867292211749316
0.86881932997797
0.846843639919437
0.880976456353543
0.83406799731934
0.8659699281495
0.840435446316732
0.820529179452571
0.809267531401445
0.841694232466118
0.800183883412469
0.837476165575035
0.780899263931695
0.83336083887517
0.777724968069175
0.817822867357658
0.799712977322412
0.80061795739235
0.779727148455169
0.791218717676022
0.783413891916295
0.795171643598685
0.772134077265558
0.780382414363637
0.7549439877311
0.766774540076843
0.745272520790966
0.771926217417433
0.748315294674131
0.757337914734215
0.737418608030958
0.7610478604735
0.729719283828378
0.736498067659538
0.716166951797027
0.729116978262732
0.711141519535104
0.732745066273639
0.708307893757363
0.733648942247457
0.687494232910184
0.701186001485566
0.707110500330943
0.720532867184093
0.688421781238509
0.685363069850824
0.680670643479499
0.685070815630474
0.674816759301552
0.688107631156599
0.669943269011077
0.676941700326018
0.654235279695301
0.683833041899611
0.666541100036224
0.665453547261615
0.641894238285129
0.664118577477045
0.634425210013965
0.651720577982566
0.629050647792791
0.642372016103289
0.631371299553688
0.64455940139662
0.628703216922228
0.637670535940826
0.626333211307342
0.619695230872907
0.602406695557749
0.623189577788468
0.59451424796285
0.617015714261155
0.583996153322082
0.597954617893121
0.600196665953773
0.599382569944983
0.581529178025804
0.598006537751011
0.577846003052666
0.580455275385087
0.573013886277055
0.572713879314192
0.565022910237726
0.575555782717039
0.558517604378131
0.579296735256345
0.554714883977782
0.570239281810152
0.551098195844454
0.567076873031701
0.553728595160699
0.553234331649375
0.554575207062087
0.554343147905922
0.533434382067209
0.550602506051699
0.530971223592195
0.524270187522475
0.518616292486214
0.529957615871022
0.526452959900954
0.527322146631553
0.506423666813378
0.527273967326439
0.502031182059898
0.504762850921353
0.492181278803929
0.509278908689089
0.490775020069992
0.504861050316327
0.498667206941582
0.496879332086529
0.484694945255928
0.502109605767895
0.484189839729016
0.498050659476745
0.476890319505939
0.496412929140183
0.467014897489942
0.478418158996801
0.464504685560285
0.4779215607968
0.466009539861742
0.487051447193751
0.454005507324025
0.470562029318246
0.454167204840896
0.457746478611334
0.458144414326791
0.464801329571043
0.450603054336085
0.465951189823822
0.446077912992695
0.458494136657048
0.45088142817984
0.459670909195541
0.439069485372224
0.454356484599521
0.445762214224604
0.442260796933369
0.442306875945338
0.442354449271649
0.435031726482768
0.443985508041653
0.431228981401352
0.4431077941277
0.438780204831547
0.441795280472696
0.427954733407548
0.436386299132799
0.44044043503089
0.439363339673027
0.434319366694158
0.445937926545418
0.429198348431532
0.435863753060615
0.438162950550287
0.434637751644354
0.429755486486578
0.44388959549162
0.436170102134049
0.440582737916748
0.439758544812911
0.446728655857078
0.435576902630981
0.451798222706256
0.446643792169709
0.4456834342297
0.442613457613532
0.46374981816939
0.449470609576744
0.465859229986123
0.455042222574153
0.464766717820267
0.461762144067195
0.472119936789961
0.461744441406538
0.483363367962977
0.466235556722824
0.478090043247638
0.466189735260036
0.482172840738506
0.472003699597165
0.489215720905927
0.492140636286652
0.490903537316791
0.481365136628008
0.489776602596417
0.490479421918848
0.500944863659217
0.489709047285463
0.514813572744715
0.497315218722131
0.514915511183906
0.507965652969901
0.520021622458482
0.52109563023991
0.520329501505058
0.510752724834738
0.526104771582921
0.533583415094075
0.542907357438256
0.52521390369343
0.542088047318864
0.535933420693528
0.549027382491916
0.551982430769812
0.557004830672147
0.560352099546011
0.562484906382863
0.564572132546552
0.581526886334444
0.571177637165097
0.593082786256359
0.565449998735879
0.581342098964802
0.577088717383294
0.601834942267042
0.59229169399257
0.591759246779863
0.583339077630839
0.595481163533269
0.590709605894378
0.605918912647328
0.582119156698474
0.604789138099173
0.575787329320835
0.590857995860963
0.58265597545244
0.58587288301191
0.582866272640606
0.590464673156445
0.57725930994806
0.584861816401445
0.581000193654636
0.594478963101858
0.572864364406035
0.587284798168083
0.572093519036029
0.591915937894924
0.587909627612846
0.580325079269963
0.568673363899446
0.593602613379383
0.577485891003007
0.591859879926902
0.586597270744559
0.583651994214245
0.572450557489273
0.57264050300809
0.583149741732013
0.600550081752711
0.577703345387835
0.587906768550436
0.583448319398721
0.581924942038268
0.584612263243842
0.596525654978696
0.586822154781634
0.588178318756088
0.588051451769101
0.595577486843899
0.585940618888271
0.590901901046097
0.585075961660366
0.59501933915894
0.592006512130565
0.583254601013882
0.577905175346895
0.590335890033622
0.581409238307854
0.588233235687243
0.580698343029
0.581267131012711
0.575458867378617
0.577567812507914
0.571906394466719
0.579547682945138
0.555977176112215
0.558817036371484
0.564224113749895
0.568130249274443
0.55141127269055
0.555193097709041
0.550508517828691
0.553986700005772
0.54571744499804
0.541803110237669
0.52987932948242
0.542872067463728
0.532539829393128
0.529616451773249
0.518354897003111
0.519524223688997
0.510759489396112
0.515335053697451
0.512325411522068
0.517741232868491
0.491943953788302
0.504672793737197
0.492226689582535
0.496851766569133
0.499097194269703
0.496853604658082
0.483681717292603
0.481771678153683
0.471768067539292
0.466707745487057
0.470576715153395
0.473576664397213
0.455088061432619
0.452276272059547
0.454196965988189
0.449459593342407
0.446496951283563
0.456466937298753
0.441152559192673
0.447170930839353
0.438121878617547
0.44171879946264
0.429753445933317
0.435396935562835
0.433959355593324
0.425265839429275
0.420109407861938
0.424051238444765
0.414339158825199
0.420746019606297
0.414820508063977
0.413575075525561
0.414145789562746
0.415109484317515
0.40584401712382
0.40890560720351
0.398635449653687
0.406189126300925
0.402374230230174
0.403913854186527
0.400351831807728
0.394479727267735
0.391011975814289
0.398896621337001
0.388188959076447
0.393144042204426
0.387814736260921
0.389241102506624
0.381602221877863
0.384411675416578
0.377463736768
0.382528955257943
0.378736970665657
0.381873580045062
0.376543275866417
0.378396511701946
0.376371584151521
0.377746482033541
0.373667123662579
0.37468343541718
0.366392623437857
0.367731768115118
0.368187005818286
0.373411107329188
0.365584850764085
0.364596409502831
0.362640470942251
0.361417267225578
0.357491999404078
0.364378767371556
0.355545377905714
0.35991180281681
0.352918373515393
0.356625876370103
0.349470809136785
0.35465552261303
0.346405454713316
0.349507354307945
0.350828699112471
0.351332006077581
0.346446609425575
0.347622822316522
0.343748029793605
0.347418075202734
0.346436458467782
0.354997108295397
0.34210173212871
0.33892042197134
0.337605586691446
0.342174301169484
0.34270567177528
0.33511097186272
0.333192272919872
0.33384901545254
0.333112443270365
0.335348886843482
0.33878382943694
0.336226113458011
0.328477244361902
0.332470816408928
0.330241338383056
0.332202999184778
0.325351768613058
0.324259158062456
0.325812655669125
0.330819623952655
0.327095451902293
0.33040004109347
0.327900296149608
0.329946281424412
0.323674360398362
0.327934215518645
0.322282384527288
0.32592244157109
0.3209349461542
0.321424436543119
0.319894429839488
0.320135450817986
0.317712020538639
0.317039909577323
0.31895088313381
0.321292358238143
0.320647241773621
0.322406902410616
0.314882330344706
0.316247020365101
0.318357596821338
0.319348508545539
0.315617067186521
0.316996680705798
0.313385616541473
0.317742211470251
0.314153102345941
0.314277559264951
0.314805553681901
0.315942765925096
0.309382221216358
0.316532877156019
0.310691445783873
0.306312394275673
0.311111909101136
0.314787313491162
0.308511325902719
0.309070801859485
0.313441316561797
0.31338541437448
0.306525083839089
0.310077392119182
0.303452900784276
0.300705997738939
0.300079029885402
0.306259907293748
0.302056098111713
0.300265906523004
0.303405576011404
0.306191285081042
0.301723050299111
0.302609602431234
0.29815080549493
0.299474893954797
0.299789787011706
0.30300050498709
0.299077743164432
0.304280347804891
0.299731443899135
0.300605273600735
0.296314373876891
0.292707652736111
0.29549715391068
0.294875971500607
0.293179813308439
0.297907176942668
0.291966952514336
0.293480777145206
0.292767627947198
0.290335912182959
0.288788679192934
0.291161175272161
0.290030446936905
0.286263633766682
0.283286840119973
0.287487284533238
0.289618902581069
0.287527857126827
0.283412993689392
0.287537210587878
0.288029602426121
0.28501671165633
0.280527185112501
0.281420956826914
0.283586542030291
0.287699059868456
0.280297308074329
0.275066457471309
0.277813061961011
0.279203660644157
0.27331163540031
0.278929577487634
0.276608335502848
0.272948873545698
0.272364381952058
0.274980517816191
0.272920993073298
0.273792587517716
0.273269002963518
0.272046101452442
0.269264978078671
0.2723028462454
0.26604841550269
0.264984709565452
0.263160305270033
0.260197136702882
0.261068233703278
0.269083218266213
0.264402729666534
0.262827577598661
0.262144071413186
0.260356808158539
0.259520069536815
0.259016542705718
0.255764925918879
0.261459622336393
0.257738312956381
0.255488962540076
0.254534114376729
0.255044876301547
0.251458376753902
0.253782075640583
0.249339180045931
0.251741450363362
0.250027989521729
0.24895497025513
0.247033522849921
0.245775185387975
0.247787797011572
0.245280386306946
0.241794306702675
0.245808214088549
0.243231806341305
0.246717500004494
0.243573892935861
0.239199957911622
0.239067593923708
0.238672203843597
0.236595454765206
0.239342093527376
0.239255463428194
0.239346057381568
0.237052662957161
0.236249198632247
0.23421655180849
0.233112139756783
0.232372766203399
0.233296591152884
0.234786697423504
0.231456016495749
0.228573863785568
0.231319278248555
0.229380777487147
0.230289345979189
0.228380549719332
0.227113837476712
0.226901423229713
0.226727646386731
0.222463621861256
0.226026896618556
0.223733480141544
0.226904033797933
0.226197625578327
0.223850859043201
0.220697758387243
0.220769505941571
0.22212048746999
0.221300673265476
0.217169395806291
0.216120176571061
0.216118233164993
0.218676979097905
0.213612377565135
0.216217352627378
0.216932929785922
0.217404527647207
0.215025904533707
0.215338185000576
0.217168313976384
0.213652014776635
0.214441939637477
0.214490300044789
0.210661315312496
0.21009686456967
0.210904177779708
0.212271858371657
0.206683257393767
0.212754455993738
0.209705395624257
0.206520597918423
0.20780706905908
0.209327736696297
0.207185659351872
0.206351787269155
0.206233043463068
0.207288015145657
0.20309257907447
0.203296295455691
0.206716270217665
0.206991863155654
0.204713853265217
0.200989414221058
0.206068197607578
0.204335846939613
0.202755198378543
0.201525603424088
0.204534153468402
0.20239968986897
0.200580034296054
0.206914714934991
0.20415548023202
0.199511610411726
0.199896483077728
0.195885024824136
0.203299047466782
0.202677846086652
0.202332700941308
0.199806357038477
0.197832564837856
0.19819168758195
0.199237270620055
0.200733880161805
0.20163916119024
0.19575601041586
0.195727235163116
0.19553076104615
0.196260702592621
0.196811943279668
0.200079313047322
0.191836135341526
0.189115852793634
0.191630956100616
0.194688904958727
0.194260745601664
0.193606520566624
0.191823869407825
0.191278766943754
0.191443599064963
0.18832832299477
0.192446709872175
0.189943244393718
0.191910815801709
0.190240244142575
0.187304716197663
0.190102493215849
0.191052081162556
0.185863864317817
0.188107898076296
0.188406138843229
0.18865978121441
0.18836339722019
0.186572856715165
0.189497259495879
0.184441748643073
0.183463815252818
0.18626104592176
0.189157030811184
0.185441302058924
0.1850084288608
0.186772114976438
0.186395934537772
0.184348581348464
0.184124152669875
0.181536962015354
0.184085505961337
0.183744528413986
0.185413883074021
0.182066026390595
0.181638439050914
0.181425316336564
0.18153798376087
0.183348808955698
0.178455330712655
0.180760191961713
0.180384172630329
0.177669935373434
0.181256284449645
0.176260131728437
0.174541871893935
0.176245694410715
0.181590494000579
0.176594106276211
0.179903635319417
0.176203278489662
0.179120128142906
0.175220174094511
0.179201468505622
0.173975407985443
0.17254881150417
0.174045859971822
0.174376779862151
0.173215845605367
0.173867385238997
0.173175849617748
0.172650910542091
0.170222165498754
0.172632404342748
0.169187717481461
0.170611511930057
0.172018297460482
0.166975158310771
0.169087003786771
0.170507530141382
0.164790825483006
0.168442788160782
0.163815388658982
0.165109002025666
0.163424678290165
0.164621393457034
0.161007505145233
0.164043208701501
0.16467042552658
0.166134938393889
0.163847511655971
0.16081827746689
0.159504812697286
0.16251117517205
0.159282516288541
0.160259351479125
0.155106446461871
0.158090478593078
0.160101113430539
0.154447016939176
0.153821525304432
0.159431183726125
0.158329996401707
0.156099560234249
0.15504642439458
0.155934696950752
0.154490550304299
0.153104844653167
0.150130836801724
0.154859909564435
0.152202256486799
0.1539976486792
0.148917462291872
0.150641833638778
0.149749548190454
0.152643230568737
0.150174096507636
0.150754338083256
0.146427186274478
0.149851730792941
0.149451872470253
0.146372803079001
0.14676912136296
0.147060221578629
0.142358766452882
0.143896272833277
0.14553971310884
0.147200546293207
0.143896347688745
0.143849266047288
0.142522895800391
0.142783083270077
0.140954385298965
0.138791816050946
0.139251051350708
0.143870276621264
0.13844589151685
0.144123492255188
0.140009651124541
0.140329906672889
0.136303225247494
0.136268323503457
0.134379509640477
0.137758303729858
0.13863490177668
0.135605137499002
0.134165138580321
0.136135388045205
0.133423026337873
0.136544141483038
0.131796032525136
0.130781401804257
0.132893455008583
0.134853868627553
0.131356827543133
0.13512037980417
0.133490943853174
0.132771708589588
0.130992717424544
0.131957656059041
0.128451021905402
0.13197776542384
0.129148794063913
0.131719310158088
0.130018366329117
0.133151369217508
0.13075153485351
0.128047165590644
0.127424818751992
0.124481719324198
0.123212528106173
0.129286168339784
0.124552146404285
0.12814157518725
0.127431999539545
0.128881119533473
0.124085180033183
0.127201302272138
0.124291761555094
0.125929974503326
0.122490689567192
0.127070204447448
0.122859612994099
0.128168430475907
0.119904716530575
0.124609284885416
0.120262536035157
0.128065285336483
0.116741558795254
0.123401804402844
0.114446423935147
0.12420182015521
0.119923579609853
0.123309408431424
0.116789496036927
0.120474967892016
0.112115298442335
0.125586174438172
0.117515961824333
0.124496413659532
0.117637601363306
0.120380207790173
0.107872226104552
0.123335830800405
0.10690056948681
0.122026340207076
0.108209034048391
0.118593814572375
0.111339709801153
0.11846877021249
0.110819987509686
0.122183068118564
0.10586959344113
0.120691342043128
0.112873634063918
0.120137444021407
0.107096011335702
0.122845310726735
0.105573924881406
0.123079169717713
0.104516497565333
0.118776170451717
0.101958428033999
0.115972832783374
0.104611362466922
0.120869689746404
0.103048924832448
0.122136908048309
0.105021086690957
0.126979087610133
0.105733239273674
0.118532606522339
0.0977693227811161
0.116216817379681
0.102800529537437
0.123973441751227
0.109125046042942
0.115635284628298
0.103862469497028
0.109926283767199
0.11401730816578
0.109806300989359
0.11893671494052
0.10218489151154
0.124773573337675
0.0940180428062963
0.129516875166093
0.0872103296329285
0.133901450171268
0.0901464239101861
0.131918532015319
0.0863465619216499
0.132806348955008
0.0925688476557806
0.123963655780804
0.099039594493909
0.115932614572354
0.103647180635785
0.111203543384011
0.109879077021974
0.110441807191531
0.110546371505961
0.108413149393097
0.104959551609766
0.111303371727348
0.103825060639202
0.111646117662669
0.105932893328842
0.111647511897857
0.101239854296785
0.110728215523757
0.104881999939881
0.108266581305501
0.107304722050757
0.109759197417945
0.104325136836792
0.107854538310115
0.107450088274383
0.108326883887777
0.104465891273437
0.1066371808343
0.104877855854823
0.107064290638575
0.102910142109782
0.105623581506691
0.103686607095211
0.105564247832697
0.107326777819217
0.109093769277815
0.106396951840029
0.107514707667711
0.104178887279338
0.107900185114102
0.104973847304466
0.108984208661066
0.102968668780331
0.112373565505399
0.105152845026762
0.106014290290304
0.105289635139889
0.10889290461609
0.103263458476801
0.10896676999904
0.105322450146495
0.108262570236865
0.102846941354998
0.107455162347725
0.104186011074269
0.104026280577893
0.103073017768902
0.104448530136642
0.103477039869903
0.107696580803744
0.104875177293236
0.109883229463347
0.103776540830429
0.107563262119308
0.100967842736956
0.107303141288217
0.104156138079592
0.106157971184937
0.105629202024771
0.105921300399294
0.103479632167988
0.104409992457584
0.106495473047152
0.104181412698793
0.103753749367551
0.106601338239183
0.10409208814373
0.108211334036156
0.107345660798803
0.104296368064584
0.105868364844126
0.105174299786287
0.101375494309825
0.105130334684476
0.104319023895764
0.108802604620344
0.106138006220077
0.105108994016836
0.105780754088917
0.106597927116021
0.103181589633945
0.103519869537035
0.104032726897617
0.104231470425057
0.105704496651347
0.107406844372435
0.105572017395092
0.106562674204398
0.107611886374602
0.106045410325464
0.108590991516739
0.104551962953208
0.105599982614434
0.106915542537027
0.106608604140025
0.107826439054453
0.106963480321845
0.106855261596711
0.107038154786374
0.107770209349812
0.107707759774812
0.106799734477323
0.106198721543942
0.106527636893174
0.106296982662352
0.108534059140344
0.110042133045449
0.107697057967635
0.110275295318719
0.109120640432221
0.106300300780789
0.108805227758995
0.108422475961077
0.108468154105189
0.107884080466168
0.106917664840785
0.108768160301811
0.108595783532223
0.107479118620787
0.106484286304351
0.109030425058094
0.109113126887508
0.109382068528122
0.107271171235983
0.108881755361211
0.107818814044748
0.108381946787598
0.107990355338422
0.108628405841837
0.110123050852967
0.108534436614366
0.108766227735162
0.109161014062962
0.108251463802894
0.108423637847121
0.10951275685944
0.108743465406691
0.107230113117302
0.110134021255244
0.109668411947241
0.110189481774049
0.111834192808763
0.110591580080983
0.108169146565586
0.108494213253952
0.109352309583539
0.111733856032086
0.108318041169099
0.113126498299689
0.112643767745374
0.112797022755349
0.112087174718736
0.112773577797033
0.11195221319972
0.111166911999402
0.111430418888601
0.112743892138441
0.109501338531185
0.113912562432335
0.112038038406751
0.110429502829016
0.114055035678232
0.11401325479361
0.1097695614108
0.110008835749994
0.112756257185211
0.112641839753582
0.11020055881082
0.110080500228764
0.110815135675782
0.111214863356433
0.111134373202455
0.110843674485056
0.109434823928583
0.111147381772729
0.109412556923513
0.112641655996769
0.107356116673041
0.109637382462806
0.108959375942927
0.109975296719894
0.10839690073763
0.107741416312967
0.107676099612192
0.108243504649143
0.107675199247583
0.10964589238177
0.106862974050011
0.107275258518294
0.106769196047132
0.108990913494444
0.106818871561591
0.106675108874798
0.10860418274816
0.106067578743538
0.103904854507668
0.104854221488517
0.106657573169067
0.105739233471221
0.105200117456353
0.104796093414482
0.107442958245901
0.106602916455512
0.105773721592998
0.107800209413257
0.105202138627912
0.106283254834818
0.105440706169106
0.106105615010694
0.104728576503931
0.106343274286853
0.105120393216851
0.106414543055105
0.104141354062021
0.107822302939986
0.101672181256082
0.103014570144837
0.103886529329523
0.104959357549169
0.101227651237131
0.103014861898968
0.105422490034705
0.102532544286726
0.102734595754647
0.105316563717381
0.101771827054202
0.102579626848629
0.10217662631432
0.102404624900115
0.102360112123618
0.101447681601082
0.101627787043336
0.101609154021652
0.0991923049193139
0.10274383729989
0.10217949657384
0.102300267169197
0.0977178355521164
0.0991643599965094
0.100712717737135
0.100185555502633
0.100374775036021
0.0998022297139991
0.0977110633621417
0.100670286067002
0.0997791902993765
0.101605625004716
0.0982027391997172
0.0993008707658953
0.0981588748639059
0.0994701535830933
0.0985842833837507
0.0975945278885216
0.0993306319394351
0.0994891460584366
0.0970205964474863
0.101424514866438
0.0978844092299186
0.0994745258360377
0.0999001077386705
0.0973148574524634
0.0992075930950796
0.0994021360043578
0.0986308806795367
0.0991032549743606
0.0974571316444087
0.0986069518129043
0.0965579268132569
0.0971002772849524
0.0967200732657576
0.0969322889185804
0.0973517351514836
0.0988828448351777
0.0975214039934573
0.0956981709111772
0.0961932192743142
0.0942046393662359
0.0966671575882715
0.0943815235277411
0.0949781770539127
0.0938777496281758
0.0962232722235834
0.0977038574198243
0.0940283920844714
0.0965322775183667
0.0949156397325902
0.0931999465836207
0.095172250803008
0.0945357156519279
0.0930311876085561
0.0951861555479206
0.0920874796710427
0.0922640007369367
0.0901249481677257
0.0911967074909465
0.0912887367232694
0.0893537065193734
0.0925071145558785
0.0897871105703748
0.0892116252121034
0.0910476489613597
0.0905644152436522
0.0895287917003108
0.0879809005054649
0.0891628422029023
0.0875461082730292
0.0897648932295785
0.0846079087633946
0.0927060570553873
0.085959510980201
0.0869225316353101
0.0881431254319509
0.0869355093292567
0.0858941890594126
0.0852075427138804
0.0860975693540678
0.0889805516788351
0.0833011704503896
0.0846796809266484
0.0807151483075847
0.0834146946380891
0.0823029815213773
0.083633508319251
0.079712058899492
0.084428528525646
0.0827875800016233
0.0838638452232382
0.0815634478092379
0.0814274337291713
0.0789217952242313
0.0845767791463308
0.0789494833557052
0.0844244071066693
0.0794153186803381
0.0808315679141138
0.0831034078640042
0.0793627982308822
0.0811953454273035
0.0813707804621041
0.0804440488633773
0.0776336865078162
0.0788738631258876
0.0803401413836647
0.0792046212494493
0.076633396636909
0.0789353816059487
0.0781770325353525
0.0794035456823799
0.0768190082376177
0.0768782038619746
0.0797621312305252
0.0782632650963125
0.0789714855677426
0.0761987100112966
0.0769809153919583
0.076559848219054
0.0768473245956598
0.0770269100551891
0.0761649445651419
0.076976355155693
0.0771527225403614
0.0786140827774393
0.0764011403582752
0.07958079251674
0.0740290236128747
0.075272774912487
0.0749088880405562
0.0770937198212198
0.0752301844413381
0.0773558630305672
0.0773136337839156
0.073779261663635
0.0765449197726416
0.0742252070973328
0.0771348041148437
0.0739561952389848
0.0728889803211869
0.073274000331964
0.0727595673559941
0.0726947601905082
0.0715871609148757
0.0728457759725308
0.0729750047102518
0.0740148092582045
0.0729608631634564
0.075794738932468
0.0726821451867825
0.0726757550491795
0.0822754197810247
0.0676536581590453
0.0788354661104504
0.06950307661802
0.0725551922835947
0.0713733615320642
0.0740252179121523
0.0703400639366717
0.0715310911821961
0.0692734095431612
0.0729062199948771
0.0706220170008546
0.0726688821355437
0.0700273190138992
0.0723054550633328
0.0712755593771302
0.0721216820479881
0.0680937529177981
0.0706607248571574
0.069046264031279
0.0722266352364643
0.0723917484266723
0.0728274892639469
0.0671045627762184
0.0776547068317121
0.0658332182857532
0.0810530396425664
0.0648312120617436
0.0745161275303779
0.0677550392916022
0.0685111425254184
0.0682859923602774
0.0726624223272116
0.0682865225206338
0.0729775069273453
0.0754768787092271
0.0679799928839386
0.0727381299020165
0.0685962138813458
0.0700138117426209
0.0680840197024538
0.0698351716226527
0.0688197145172357
0.0686926238153279
0.0711734400769
0.0675219286283446
0.069595759498347
0.0681537700080273
0.0708919785333431
0.0699765872220807
0.0701548457681678
0.0709452505938857
0.0695438804969022
0.0692052588156482
0.0686066333774977
0.0686797307758544
0.0699821824499938
0.0776186910450677
0.0638861648076479
0.0728724484976703
0.0651489835693123
0.0727827772477555
0.0692476052912971
0.0716094027703669
0.0689051053030472
0.0702960032565545
0.068664682602589
0.0703440749395251
0.0675235976877351
0.0693041522565734
0.0706260782124146
0.0690674027321265
0.0691391569653675
0.0670762133645739
0.069679924698975
0.0642763740994485
0.0711900487594507
0.0682674437171954
0.0751444447667191
0.0734088378351734
0.0682246206186578
0.0726527652413327
0.0647278836290855
0.0706809242932418
0.0676319717294049
0.0705909484682839
0.0669715753913106
0.0721388309766251
0.065199661103204
0.0721491688012834
0.0689187532747305
0.0711842351046624
0.06664854627047
0.0711563503954923
0.06680182644886
0.070847167655146
0.0672962631187818
0.072665763181785
0.0658691806119557
0.0721407113220165
0.0662368043202558
0.078160302291208
0.0643528531585257
0.0724343596977953
0.0623993332069568
0.0776343809478994
0.0751811951175326
0.0649498208614415
0.0770005132355076
0.0668725276777456
0.0741706024986852
0.0675268524107712
0.0728295368546128
0.073083582867384
0.0713601534894737
0.0696874331506474
0.0740740370034951
0.0677023966325254
0.0702187401491242
0.0690754129497083
0.0711783593157041
0.0787949232581501
0.0697406238301104
0.0730923323407428
0.0751393226706772
0.0680337973731811
0.0841093347171704
0.0668885047741759
0.076342624140798
0.0711739454526147
0.0720026297055917
0.0727852132402636
0.0752857243587786
0.0732256519643678
0.0758073869658036
0.0735390915241402
0.0704189105634071
0.0760848699039777
0.0728230361021125
0.0739584454577717
0.0729787718435708
0.0735483462611481
0.0789436233872908
0.0723145979200479
0.0769518022622435
0.0755919754182192
0.0739337672814734
0.0761331873687314
0.075877508974318
0.0763266944464608
0.0760347425203553
0.0814940512902204
0.0766166596840241
0.0796076068135356
0.0800121933354724
0.0765085404606455
0.0780217982468767
0.0767882861460741
0.0790279739395066
0.0799646856060249
0.0732535941254551
0.0944951541866857
0.0715672640981222
0.093612286220921
0.0723741184275594
0.0844734530998563
0.07311380090076
0.0875349504125724
0.0733628875343132
0.0873315493930737
0.0775356576822866
0.0844605116667352
0.0828663036962435
0.0792618972450127
0.0826166518284891
0.0794386422314791
0.0857668905650398
0.0837925961726163
0.0837689812439016
0.0820041707476399
0.0903202920091877
0.0774560917694663
0.101409817450085
0.0831999439087472
0.0860134897587164
0.0920217231976977
0.0822267955044958
0.0997350042536753
0.0839541864208707
0.0902413210605431
0.0898262637204395
0.087441351716174
0.0911155972314297
0.0848989148229473
0.10120605898597
0.0915207292861902
0.0867946410290204
0.0963791546469511
0.089056869522992
0.0998533927260582
0.0958471593445061
0.093769210041369
0.0918352480702942
0.0984277895497472
0.0938777736110914
0.100682146937313
0.108146795435609
0.0899956813433477
0.11814871493956
0.0947558172439743
0.112126941813522
0.0956890455850021
0.109837847048017
0.0996126452518002
0.113496454030717
0.101774690412505
0.112326278482912
0.102198896148296
0.126385857752073
0.103420684721449
0.121649289549451
0.115034305903892
0.117455961337544
0.126744053395066
0.137261490472661
0.117342803555083
0.128351058388617
0.120856361242358
0.135790704778353
0.125203598639324
0.129101094730709
0.13136446634216
0.129811064722979
0.134502543097759
0.134456453208197
0.137171868422214
0.141107527268319
0.133690925410018
0.147159447884434
0.139738651185612
0.16039760276685
0.142748226245433
0.164622641062884
0.145654879519472
0.157458744255542
0.151825450914358
0.151094919363446
0.153649663932047
0.155625531913992
0.15889510586832
0.161149717010782
0.163291857655056
0.164538540646891
0.166975356662677
0.180315383265627
0.161886979958875
0.187909154899229
0.167776305982105
0.192850370262517
0.169372205552648
0.249657213846203
0.195875491440673
0.194833864788483
0.216051677819017
0.199160846416316
0.238481501292291
0.217534744878148
0.226960053784086
0.232845113876971
0.23863047984381
0.244967718900338
0.260625041393174
0.260200331251885
0.270844446666892
0.277242236190841
0.280729376463996
0.286711080751182
0.330799243034026
0.313523510959937
0.3194773224682
0.31777569298875
0.338774520785064
0.342565862312357
0.347039868384889
0.349865671722265
0.371700300054861
0.357435817571093
0.411338326111476
0.385142641919936
0.408769500257609
0.397528731218211
0.420619942978081
0.421812514989156
0.428196225727795
0.460712797301152
0.441940629702656
0.462085333380677
0.45903908726409
0.485217453029587
0.476835753273582
0.505307746643086
0.501371719139147
0.509481746127632
0.519322794422567
0.520574747491155
0.524211566725961
0.529090967841502
0.541282789516463
0.540349233006635
0.556067036714395
0.575504944340876
0.571910406387235
0.575642706512663
0.554527814292435
0.568645241248778
0.538293942243789
0.588549328885657
0.580303870557314
0.587349928315596
0.584969599313852
0.557428508319606
0.578317373100537
0.570173675925156
0.574880109604533
0.572012693970373
0.574596102735993
0.585046592136635
0.584445375036394
0.592443510126102
0.55321279174902
0.636921995971077
0.568926670974667
0.58743732297326
0.569882792739968
0.574395165417167
0.573579169786507
0.589365481251943
0.566114096413539
0.584732442676066
0.565203975410248
0.566898033770731
0.549525618780887
0.555725801787122
0.572619926795904
0.548823237836164
0.546623722120303
0.537358411674466
0.514958972036702
0.518622371500441
0.516894462912489
0.556813382273629
0.50415747525542
0.50399436957054
0.50591711494708
0.495301094616757
0.492562142108505
0.489732688528948
0.483510418616097
0.487488218507936
0.474664525521454
0.480592773312543
0.477627373841718
0.474672709230193
0.469213538282168
0.469773407860451
0.472253451690441
0.458976038226928
0.45825959315923
0.458784111590731
0.46176365220436
0.460363323970047
0.4514561301005
0.44879000860678
0.450924232459092
0.45134459683236
0.452450812024845
0.44702609824692
0.451246040754873
0.444938371710108
0.447402476395793
0.441477769553775
0.439784096210348
0.440063608625298
0.447000385031053
0.442204583682527
0.445654020121521
0.439013384999
0.440263007283625
0.437009928524178
0.434261268286492
0.43179424545472
0.438263203101472
0.43784907446737
0.45055843446769
0.45615685746696
0.416752702141387
0.432377875186234
0.422972602566137
0.427283864760794
0.42411038733745
0.431484510831562
0.423714746067401
0.411239683262324
0.412327250249099
0.412487986684753
0.408175712384803
0.413647677384325
0.401869631618217
0.402036384056239
0.408728054943946
0.383552417279855
0.440182934813407
0.410045129121288
0.450027270983245
0.39505675140906
0.401371443399412
0.389019179320909
0.405461785738753
0.392767166009787
0.388811407054017
0.394874235063181
0.386556250830537
0.40214218712425
0.381176511727869
0.388480506519634
0.38587141614686
0.38500815121021
0.393820383148608
0.385861892754504
0.377658130575581
0.39482410713809
0.377520051550531
0.36001238930994
0.394507026789145
0.377483250169932
0.364058354944987
0.361709189781931
0.36395000944579
0.356868984246235
0.363806487299518
0.363392082291921
0.349939192285985
0.353590353452492
0.335568651551245
0.353571209195671
0.344276601347501
0.350651227025252
0.331930638405403
0.338366464270715
0.334407026231493
0.315680878815586
0.342266050730718
0.322766110329358
0.345988282614057
0.320247235213741
0.32680171957494
0.321016545900136
0.330012111381263
0.318292325569063
0.31597557642465
0.314343482675195
0.30730250141086
0.30941985963542
0.308687314565175
0.295844652943479
0.314931083744946
0.298897207687854
0.305538799936983
0.308136394582732
0.302606099129724
0.295678605513281
0.290961733470748
0.287638497623659
0.290647982452614
0.282856502576723
0.29856627566166
0.278728907354094
0.3017590660081
0.281603538338735
0.302503787352641
0.296418952633458
0.290992307745243
0.290549209058191
0.298503790734827
0.295460735151913
0.31593202818685
0.297690129992637
0.313790169789255
0.294935519447307
0.31576277703459
0.315556894173037
0.319082041668115
0.319638096446554
0.322704274238888
0.325327057406392
0.334146138683341
0.34155504650708
0.346618686684938
0.348550788503226
0.36821276216599
0.361937859675606
0.386306047852257
0.378384902032196
0.374160941277939
0.416311513278331
0.405640157625128
0.429539170838502
0.414954627313736
0.42474628271965
0.425253145751728
0.431774003623305
0.445358218707126
0.448041152944545
0.463002202288839
0.464408468105222
0.46636407281964
0.471756844947058
0.47311626694558
0.485874698739389
0.492738939661451
0.521565470872869
0.468001526534533
0.513676006060473
0.496644410874942
0.507233089922666
0.50302265464405
0.500452453088742
0.512678260842065
0.510768731412067
0.52082247495511
0.517752842790031
0.53281840143179
0.529563013533847
0.524131302053335
0.529755746469653
0.53490727853728
0.533610748333361
0.540044810091017
0.543180332124127
0.539821318342538
0.540458907644862
0.550612120441477
0.551052442120512
0.576071517894865
0.57423984637908
0.557789545325542
0.579751760811565
0.571307434995891
0.580873060540274
0.57421723928146
0.585656328055024
0.60008252815275
0.593526721139584
0.599905195133837
0.602788956710446
0.601721147501698
0.603797374581862
0.611484886654226
0.622893948583423
0.60998649118537
0.631073839600034
0.599522061590376
0.671255681671234
0.637912612307416
0.638151264072538
0.641748606767658
0.637998079674752
0.644677844745698
0.641533026147783
0.650135359039664
0.645624228986685
0.649389304201285
0.641010190388294
0.652215719971434
0.646923394068127
0.645891140800822
0.654108284392474
0.645803353660953
0.64952167324865
0.648702307554372
0.649119096088125
0.65330100840633
0.64879215363282
0.638703271328462
0.655143936232328
0.64933131564908
0.649017129356391
0.642674440124216
0.656127979909024
0.659209727725754
0.643161517274071
0.645085132955929
0.649316363981748
0.642385206020138
0.653400699044272
0.642842506668627
0.665005607572189
0.669373305238944
0.658463611774205
0.663680398197521
0.658752713031084
0.669850058895375
0.668183368382236
0.675655149804805
0.673317174254592
0.683849855471269
0.681546111523888
0.684026951268907
0.681814352041706
0.68674454070454
0.685612888978516
0.692263189087921
0.687604818401458
0.690852658866263
0.690871015554399
0.68347299244104
0.682813748676647
0.682497578601726
0.669865595669506
0.668967040263322
0.65931855638055
0.661532039211066
0.66339062928244
0.657778921796463
0.642951319381179
0.653224050057164
0.635047857047132
0.639874380743317
0.634189639805826
0.628350172734595
0.626304245912844
0.616143491329579
0.615674559903456
0.613164704570089
0.609320864105097
0.622188235379613
0.611928148182192
0.608759215775652
0.604370003762804
0.607650846873907
0.606372223045118
0.603528183173069
0.599944833357814
0.603828026934321
0.59949380939257
0.600921194495405
0.597926132276671
0.611059149588594
0.59649020247665
0.609765795246489
0.603169022338619
0.604768260143244
0.600623457248522
0.599679857548588
0.60283622579948
0.602251748071378
0.596083689968173
0.597052831263632
0.601020665021365
0.595374884992972
0.596260605545186
0.59844846567824
0.599590529212001
0.593762116997239
0.597401066628257
0.598043616333987
0.591731189784158
0.595468047737142
0.593282815028365
0.581860728425582
0.596410351288226
0.596821089637015
0.590980157345607
0.59186443881539
0.589366567205521
0.588451657700384
0.594402807485218
0.593076378588152
0.589991914118749
0.590131237580523
0.593171452853514
0.592598881600556
0.592836693736343
0.58760019012466
0.587318900482606
0.587028320891359
0.586059661496693
0.5858637453631
0.581395733114489
0.573968817914025
0.571684326370794
0.567927553410888
0.562037679837868
0.560525319655895
0.556839869762613
0.554021143286777
0.54993928133923
0.546354980880734
0.537883140977594
0.538504439369968
0.533321520953322
0.529119398650604
0.529866475793438
0.52743609882309
0.524818131695576
0.520024707525098
0.518139717017641
0.517576034353388
0.518755295733149
0.516913117938581
0.512279024320276
0.514882745464482
0.514515215874196
0.515898061595835
0.513122865349091
0.518777194392481
0.520517537523698
0.521000175087439
0.519846277677929
0.523517408853769
0.527664287301802
0.525774371100188
0.52424440185979
0.528653232869741
0.533724015808063
0.532822675688731
0.534123589857935
0.541499708504053
0.540255015561473
0.541481305508424
0.542009622277972
0.546797306735661
0.544010229692248
0.543594748462684
0.548213930254924
0.546132411132355
0.551615128972864
0.54602731989163
0.546596247902811
0.551251004022723
0.545746279246631
0.548239775183562
0.5479216265115
0.545688951529886
0.547323256627523
0.541118391575026
0.538771533269543
0.54036808098482
0.536331170737291
0.53723788068158
0.531029405400659
0.535088257123954
0.53142637641599
0.533441391835171
0.526129290900546
0.529769847251584
0.52388863371438
0.527750569337964
0.522199139011143
0.521073204722436
0.517463004912631
0.515840044537389
0.513314265978175
0.510291449367085
0.513890055931051
0.515284659063274
0.511132935084582
0.510340748354941
0.509203075707106
0.506564824594464
0.503468828413165
0.500208214147237
0.500694175727299
0.50097297759516
0.498465926982248
0.495233031424843
0.491399926668178
0.487630378401618
0.48664965474751
0.487612003098997
0.479117000855951
0.483773288486055
0.476742071079724
0.472604933620516
0.469123494873652
0.46325298466499
0.461097416673347
0.457473469359362
0.453982369214282
0.450909762472929
0.453500902244118
0.450625892778909
0.450288400738568
0.447211588823796
0.44498931094835
0.445303879189604
0.445453984945196
0.44168667957837
0.440303794612506
0.436650751840333
0.435767284711208
0.432453240064103
0.427429699488817
0.425653614310474
0.416082301491668
0.41437891115565
0.409101646996073
0.404531479801958
0.396965868774513
0.395085213385868
0.389904949898694
0.38709247740613
0.389039421175345
0.387804328080088
0.389860607602285
0.391950106892083
0.397051560675438
0.406157651830508
0.411168489944952
0.423260329990392
0.433788409370189
0.447665423696947
0.462365293050727
0.47642964624879
0.48942461770448
0.509149199038453
0.52582801217548
0.542976437354384
0.561908617934876
0.578028610689241
0.597749834191954
0.615371188750045
0.634409731914436
0.650814310539833
0.664322807589229
0.684448485927642
0.698164252328509
0.71584929032419
0.731601479120954
0.74687289824808
0.763256326422898
0.779615691366988
0.783704299340716
0.805992323765041
0.810275329763953
0.816335123585902
0.835106597777039
0.840716197786639
0.849989514137831
0.856704781783418
0.856960700800583
0.860432351133825
0.863845245031995
0.872737913540898
0.864017184507323
0.861622579427184
0.874803737216278
0.867281047233848
0.866915027005214
0.872111604879952
0.868684742527452
0.869490058936853
0.87117601751283
0.868955121481435
0.874119697556563
0.878045122411897
0.881869244181995
0.892299970360713
0.891992111325361
0.903401384142393
0.903997066253691
0.917656183043838
0.916249770468317
0.921927814947311
0.936026028240711
0.943683169306299
0.955795340550625
0.963663332874235
0.990382496274299
0.994276265987245
1.00571766090034
1.01796909248262
1.03520435095041
1.04917726723409
1.05674031900456
1.05684405183433
1.07571295291982
1.09501339901131
1.08101881345622
1.08253106094078
1.0825848784643
1.07980851786454
1.08454029825769
1.0856848068048
1.08186572004413
1.07851496418494
1.05894570186903
1.05988070479158
1.07606400138699
1.06576380029174
1.07804677076909
1.08159049583254
1.09697792026801
1.10035285024774
1.13747484915114
1.12370841198711
1.14538533410748
1.15698152794461
1.17789737310174
1.21493198118389
1.21415390415695
1.22240185537163
1.24306693233858
1.26714689804524
1.27676840688746
1.27919450675686
1.28968636732644
1.33094859021813
1.36074774419156
1.3671782720524
1.36046706264764
1.38470654212012
1.43423520399738
1.48086002892801
1.51862670723456
1.53771852439759
1.57268938051011
1.57875434301472
1.63915405104334
1.56309632801874
1.64714454253834
1.61732098840831
1.65102663640377
1.6375759667995
1.6480283010876
1.72096551168866
1.82196465640282
1.78544222590315
1.75172452881991
1.69150513713078
1.80488339539007
1.75026173795962
1.78790494323628
1.7708466600022
1.65886503834871
1.67518781358345
1.74808692063277
1.65529151918084
1.78547780800965
1.67426283445808
1.79858308546867
1.73704945870083
1.75988039067504
1.80321287393428
1.76616778244631
1.75626131784747
1.73267009974715
1.83139477268464
1.9279639801411
1.85020908146089
1.8592403508359
1.93069790287679
1.84587036580153
1.88660163996663
1.94228762346608
1.84831738682679
2.04629295728049
1.87195557361515
2.07010289583471
1.93552346325611
2.13567276275958
2.06027808520375
2.06635390497868
2.2750335971484
2.07036059280989
1.98586198937932
2.10037958980674
2.17647764230379
2.92065833740062
2.20005431797322
2.07542900857077
2.11605373824631
2.13646271066295
2.03761969836996
2.4570884851254
2.27492902394796
2.4546557926884
2.1317979627552
2.20559497692716
2.22337174924636
2.3891886994008
2.18855417966148
2.39952894701808
2.12805753034291
2.26921728786811
2.16757118904476
2.15322658737468
2.01900929957144
2.24775995528308
2.0558394187834
2.02094080120485
2.05110552186746
1.91885355494551
1.88567633761828
1.94654642268716
1.83552372201753
1.88250562640558
1.86327931247033
1.89942730100406
1.6829091206821
1.70386175483854
1.68381417504501
1.75115549628321
1.53474574139122
1.6754744187679
1.59354732307024
1.69178077582394
1.55571830820854
1.62863239622334
1.55353870661839
1.64643262413199
1.53264877189505
1.5655352430483
1.49810761542705
1.56837750390512
1.46570077161964
1.50830234962467
1.46553013350285
1.44495202389827
1.37440290849177
1.4000182373231
1.37736431297717
1.35022935688164
1.28337803473686
1.2945345043075
1.2403015407986
1.17607608434941
1.14517608327937
1.12945962211152
1.05884470594232
1.00901522492242
0.958447856111272
0.923064407969622
0.886250507120328
0.858820140855362
0.835059882531359
0.806872516784679
0.76637432912158
0.747664872320048
0.726364482441147
0.698090675126874
0.6780501430081
0.657405932687349
0.65129846137758
0.639238406008211
0.629745004897397
0.627751429113586
0.619191201676092
0.60611862511653
0.605771207556799
0.608684117065717
0.598615882589158
0.601939235923568
0.589133033707046
0.606026010575427
0.607241438110595
0.603665717185912
0.606167675740332
0.600312488101488
0.604039513820046
0.603428563211106
0.60322680997288
0.605689192612854
0.587934465999374
0.592202880765639
0.592817099143528
0.586064880360438
0.577798512543985
0.572849407525393
0.57321199273354
0.576636917767021
0.560271463379606
0.568584919763522
0.554891155316371
0.557845769224042
0.550388502999687
0.557405288511896
0.562054877655135
0.561758015498036
0.561638834551788
0.568800647229168
0.569563144231396
0.578672202787579
0.573794417580282
0.573238240938241
0.579054432799284
0.581015144871645
0.585847175761949
0.596121805710893
0.590612989812516
0.589067460929301
0.591418399870349
0.59479149400995
0.595767240022599
0.598444721728484
0.58055843004447
0.584409561055443
0.585329634920835
0.597771354930036
0.601687955609577
0.604465508098348
0.604324089892357
0.609790860261622
0.612825713354945
0.612808068015439
0.625517180018214
0.638431160882265
0.641466657857964
0.659452445739372
0.653712296510019
0.680550289857821
0.695781596774928
0.710753535665253
0.726936009667187
0.736988270344187
0.755281565446626
0.760334667992367
0.754684976604295
0.756790959337928
0.746710546610738
0.750370740892505
0.741556371314934
0.733654377954709
0.722247559830193
0.727391712225912
0.696651299758379
0.709446471767465
0.695754317307397
0.698078879692275
0.672162568670436
0.688731576985288
0.689140057582793
0.700086109405198
0.692388297412037
0.674813429170438
0.68938878482063
0.706293906951433
0.69402090214587
0.686260745034633
0.690809577732139
0.674345559931977
0.679858080877217
0.668307260774614
0.650357008683919
0.647002867958168
0.651007150750298
0.64532469133252
0.63046546102416
0.636850061342746
0.643078677958113
0.627589945195887
0.624048933208456
0.625118724105634
0.600675548768868
0.616985139435547
0.611182042229413
0.610496265499889
0.608118439320975
0.603509924289852
0.603661820870427
0.590060612823964
0.594155795255937
0.59827293785411
0.58142344218974
0.588160728430332
0.582868271092065
0.580835261654377
0.581185323018935
0.595240762271326
0.578159310867704
0.577078635449768
0.558479467316954
0.575280132000122
0.566385682099098
0.547647699216279
0.569349758949674
0.568943175280347
0.551037789564208
0.555143335440958
0.550099607130772
0.556569647986789
0.554340141623516
0.555124319144154
0.545308441095783
0.552710697380541
0.536520232235332
0.541535908904516
0.534543724114356
0.551145249413005
0.549246511962051
0.544931161261962
0.549137345036455
0.550427760168902
0.538270958758823
0.563441504738891
0.555157128046714
0.553970092245704
0.559364247213914
0.549589042484746
0.546966533278748
0.560582394135646
0.548908758987322
0.553773140271406
0.57149299360535
0.568301646787015
0.56495579110488
0.581068151371177
0.581329853323197
0.595655094093576
0.577599006227558
0.606232417309036
0.590082747969513
0.63511758196105
0.627927652584409
0.625619697747743
0.618272359004138
0.644927409931553
0.631087469334011
0.653900990925139
0.650416479008633
0.668785033343931
0.675281835586011
0.710105594805146
0.726623542774586
0.74163948531557
0.752884614662042
0.789628844803512
0.799856452844068
0.813130248724689
0.874906204211208
0.832365376964625
0.85089707758499
0.932481850215176
0.835126393977714
0.914624947069632
0.898378542039225
0.873214193320504
0.867163571863106
0.91082113041429
0.904567504257729
0.951968794189678
0.864202902602807
0.910054575239597
0.909956840715939
0.924734303768367
0.854902388212276
0.87371972999948
0.878019295417846
0.867020605886497
0.825745863921406
0.888038014417821
0.888528357845543
0.913513656296705
0.865978946487343
0.913774258685785
0.852657904651859
0.86413280681464
0.813162927614432
0.831068555231358
0.817774643716739
0.87835159647141
0.817926884640688
0.820512281481144
0.781598176280884
0.823579162524974
0.832011844066694
0.836917507369059
0.798643560653428
0.80189975539417
0.793961811447345
0.790853329996214
0.765039248529201
0.764511393768726
0.777783280889789
0.86015283718808
0.777203168394009
0.794889906143493
0.80303590522656
0.869003247499195
0.811009479281561
0.875386419554583
0.837075539823775
0.829720332893506
0.824593770698508
0.832491329865494
0.774466531665101
0.868284299766715
0.857152915492095
0.917087155504165
0.885774171484365
0.870240097297261
0.794115656264704
0.804867312129237
0.775316421988928
0.939374794384408
0.850439894563463
0.831185871006285
0.822268855432251
0.931275976799673
0.821516285108922
0.886644002934243
0.929206818650148
0.896831856106717
0.883345002632499
0.951474090696749
0.871816846323216
1.06009614495497
0.965278227194048
1.0561615626401
0.947428822148571
1.02557183369661
1.07723112635122
1.06635704176769
0.969410345933199
1.19734996235498
1.09525874803915
1.07600312978876
1.1163247622509
1.20786074506929
1.30843968433682
1.03437212603551
0.896109809915274
1.07643816621597
1.08676792613573
1.2308682666201
1.05496169566224
1.03522989545205
1.03644602354797
1.32634722783871
1.09105710291817
1.23516594377022
0.993530684840545
0.969303156073535
1.00145495917774
1.23930361179175
1.05159145370993
0.977839684519018
0.956521059609759
1.06730560022264
0.968025643791641
1.15693350643386
1.09548823448962
0.851749251108799
0.887943302137209
1.56015874254527
0.997773917197945
1.12737120914405
1.16468265310112
2.26137823023116
1.15729421947965
0.81085810497795
0.994372393394833
1.37310159716061
1.07929847239663
1.71921739255378
1.22070880487694
0.998810775563996
0.773402204548586
1.46637598758421
1.02224521398461
1.2162297460854
1.49474415457802
1.26971025215385
0.787227431460673
1.00845673366377
1.85608623885469
1.3485549948425
0.853826915773835
2.3834621407245
1.05758095582805
0.662866574432435
1.26852308726282
5
1.18412941996792
1.22903513404477
0.854877829942504
0.69543227467249
1.03668127445581
