3596
4000.36533379555
650.420452594757
1
2
2
0.0473913157738014
0.0298498678584198
0.0431459116812487
0.0221911100009509
0.056288698902988
0.0316318855391131
0.0372915814877103
0.0327077526584106
0.0412399071573372
0.0239614374838434
0.0403311988380077
0.0377037768197776
0.0402182966147224
0.0283274049678541
0.0394405314672782
0.0223656733298963
0.0362138669772486
0.034065086803005
0.044634210807517
0.028150209078563
0.0435922156299653
0.0305320333752275
0.0506819724896115
0.029512429890377
0.0396119470205686
0.0288774452442837
0.0436023239365354
0.0296056164471841
0.0420763031368569
0.0345647153657825
0.0531132066108311
0.0327475535501702
0.0377504808655332
0.0362634479346872
0.0447940876536669
0.030158774206432
0.0412688842653627
0.0270796842932842
0.0485899551803165
0.0273848595763247
0.0417674809071985
0.0337465056908416
0.040960531083947
0.0299332650043588
0.0398782005929993
0.0258881265519658
0.0362616097530394
0.0278573371916539
0.0376806543662892
0.0347330938700705
0.0457000943527775
0.0339368676962511
0.0472578846287488
0.0401882814573074
0.034665754741354
0.0197968626201192
0.0341878402677711
0.0227345894315744
0.0392262679361983
0.032435690521411
0.0321370611607719
0.0338018088546721
0.0384150837671748
0.0334331570307142
0.0351360162171159
0.0283811958150293
0.0387239472002149
0.0319168850639995
0.0313608402365162
0.0336467562268786
0.0420903462687496
0.0238756782947125
0.0385848722855841
0.0159356014569757
0.045141642054207
0.0362148445094098
0.0392142268041915
0.0318468823436841
0.0460096627467976
0.0210475552294024
0.0458112463167452
0.0196331861019611
0.0412552988561298
0.0317037273969005
0.0283383680658473
0.030343412548941
0.0461340021396463
0.0127696253032773
0.0490035180205246
0.0239257109822805
0.0339824013232972
0.0275413790709465
0.0382197511650007
0.0266241886087146
0.0404238571829993
0.0215288311852883
0.0365599151622884
0.019489977075325
0.0441576534753816
0.0159347513513804
0.0495520063407783
0.0122162700447185
0.0592327307321313
0.0287696110681083
0.0241366234810877
0.0377767820319191
0.0247473366037536
0.0454404876030129
0.0408242114108682
0.0317288746433585
0.0342742528551218
0.0250259526961685
0.0268755809542894
0.020831118833611
0.0419220840403022
0.0276495063147995
0.0498926704839524
0.0216464830666067
0.0354988265994699
0.0254649891754333
0.0466028095163638
0.00617155116320148
0.0635650636682747
0.0153720832642145
0.0464382743443557
0.0298948195044704
0.0376912949953218
0.0215878977124227
0.0507327799004337
0.023455211068103
0.0445358450730909
0.0162884490422776
0.0396237479407513
0.0111624598143091
0.0575876345192836
0.0222614511557173
0.0387983115881113
0.0289687883481249
0.0267130543170566
0.0194074106017843
0.0354162578593502
0.0253624969596749
0.0408295788811474
0.0275707510157613
0.05802577763385
0.0215567672935009
0.0394068727347557
0.0258178240160256
0.0395870892977376
0.0112335477794636
0.0347514250865472
0.0248278272744601
0.0292973957852298
0.0223984092273962
0.0558878780850567
-0.0122135410409159
0.0791172138413693
0.00662734491504651
0.0520241799591434
0.0202794044268464
0.0363567846533626
0.0224603900457254
0.0304867751635818
0.0306222109056265
0.0245496356977815
0.0280430899991321
0.0324596869048984
0.038900065610437
0.0381428987382867
0.0367800086611803
0.0442334737682354
0.0279743698607503
0.0334380241364384
0.0109116423953685
0.0412712995078121
0.00683164199906103
0.0536905317058544
0.0197585550761364
0.0433701713943447
0.0131438879171538
0.0357617645200694
0.0230560144325631
0.0357886331196971
0.0236984018619034
0.0387382067444516
0.0135148622301538
0.0423327043011114
0.0199008728539376
0.0407220968050439
0.0244049004861147
0.0525636248622631
0.0129662021434583
0.0468529737021388
0.0114791612200281
0.0361901034009225
0.03128357130652
0.0192654727329452
0.0241288894234484
0.0279135133325566
0.0243262075592986
0.0320907250322254
0.0213863342437148
0.0392606387912917
0.0224366192031931
0.0395567659745461
0.017302143852354
0.0252108500614725
0.0269864595754582
0.0338145176364775
0.0301790563618205
0.0409986936307358
0.0318212791084826
0.0277486040836434
0.0375560645363276
0.0291411016490891
0.0340884005950762
0.0346287764098876
0.0352103294036587
0.0411759186751975
0.0259685612639002
0.0336869820107577
0.0286741008473241
0.0417082825247599
0.0299685953399518
0.0323167925096416
0.0255692634468368
0.0327267115039181
0.028965175433809
0.0345091415607115
0.0260287909192815
0.0327777115330335
0.0312035896850334
0.0384979077854775
0.0251856596946113
0.0471283614462875
0.0334424154188429
0.0469220648602192
0.0223840424337141
0.0338685507389544
0.0227300318308876
0.0327487126372369
0.0216711213362067
0.0352933382399731
0.0257481402075016
0.0369257086082106
0.0283630996679917
0.0301505170967587
0.0325386868575564
0.0288035228915504
0.0518673906290623
0.0240030364850802
0.046930633108316
0.0255476049182743
0.0307619987711511
0.0238629380886674
0.0484301987930047
0.0271211138187448
0.0315304207298163
0.0432569183354161
0.0422047214680848
0.0243523208438557
0.0329799716520296
0.0319425580406253
0.0377391412966823
0.0489562573520635
0.0128127529911218
0.0573046939410444
0.0335907916359138
0.0285671995237286
0.0359932453684828
0.0303779024698065
0.0471362708854873
0.0458234002627587
0.0098766340544672
0.0349149204842394
0.0363775691955614
0.0402468433876514
0.0289017551840635
0.0458216243487821
0.0226991447643632
0.0574900035687563
0.0326682324478245
0.0661223605383711
0.0414375664478913
0.0295095647074665
0.0549584990496086
0.0271581274403265
0.0397121984134136
0.0199843036985105
0.0366328970052191
0.0338764519055865
0.046908599073397
0.0249609389997174
0.0435309183733525
0.0238924730093429
0.0465504661349041
0.0388086586011077
0.0353287465606011
0.0406034797981038
0.0349303859854663
0.0428812574694948
0.0428844668898826
0.0379621350517378
0.0362255322374726
0.0455302934610269
0.0313309234632658
0.0512491584548024
0.0381266240700104
0.0386831291587581
0.0508717730231216
0.0452862809494009
0.0376260089731778
0.0377259795664447
0.0361198724247459
0.043460460612878
0.0412713520843914
0.0470566942872861
0.0379521982471369
0.0501351876967767
0.0358470567135938
0.0495201558966057
0.0397845985603671
0.0507665327091439
0.0405883368975436
0.0491514406427734
0.0458042894353663
0.0493138382480261
0.0453762201153154
0.0443907625421561
0.0562445279601647
0.0500844550162471
0.0353995579842037
0.0652630597658889
0.0352544508186708
0.0631609246007351
0.0465672956057127
0.0556903096384804
0.0497826314421801
0.055138214945055
0.0501438711106828
0.0532515930692068
0.0566892451913619
0.0642224509793271
0.0528523971907584
0.056544252648112
0.0643819739047696
0.0801130066567691
0.0679301466130759
0.0461369008229282
0.0626166826076366
0.0612950582487393
0.0839902718872589
0.0443136313454184
0.0829653660554767
0.064129644861354
0.0589211226902322
0.0766670684745292
0.0658995247198414
0.0699305520190374
0.0685880344430528
0.0818364809580954
0.0602678918238671
0.0798966593619199
0.0709968490826487
0.0834252164525045
0.0745102320033104
0.0929338122205566
0.0790571859344469
0.0848037859770044
0.0905864609902062
0.0937163471704296
0.0742262554360761
0.103551117575774
0.09107193174423
0.133372781505676
0.0809298441588637
0.114306606649994
0.102362644353634
0.0984636331919889
0.105019175088263
0.096267834249131
0.103054627846151
0.103796052118625
0.0993047922795028
0.103421724139174
0.11048811436185
0.111581387953985
0.120274662918419
0.117223240139246
0.116889240579142
0.116578568855752
0.141645898771608
0.123756971509639
0.130261004125928
0.121809950180274
0.150389856907631
0.135268771780337
0.155393972029003
0.131473294124684
0.140472037199867
0.137351630811224
0.141676978616572
0.136311831019973
0.143419794875773
0.149695928727223
0.144672380341274
0.168565613252818
0.1659330028007
0.16725067594178
0.165753684196332
0.164466933327653
0.17689905692846
0.161090904250545
0.177492661528236
0.19290889362619
0.176120191629493
0.166051970157642
0.190734276213752
0.16534676050618
0.191079024447058
0.190487232523974
0.176323539613064
0.198746961873273
0.184218277187088
0.195296512111945
0.190951068330184
0.215381770757737
0.206799085782626
0.207356198608449
0.212476269549047
0.21855499253784
0.21506823834514
0.226606799373862
0.222468173719924
0.223883423951802
0.234879705398783
0.231126492843558
0.246119551589866
0.222954546445135
0.256828308467313
0.239266153632603
0.253437490478407
0.252045290493095
0.24213633281121
0.254158801318449
0.237556173363169
0.255750718401903
0.249166976168096
0.264321296121296
0.265330311459077
0.273824938222165
0.268906543582261
0.276285761338036
0.279489012465154
0.286237588397061
0.288990573356194
0.287155541292263
0.293393146626637
0.289622082195422
0.308409537009895
0.307927634775497
0.322738866742849
0.307933965064245
0.340016959388006
0.322652673466639
0.293143308611343
0.322992592394056
0.324271473064725
0.328309260206237
0.310878331109876
0.344414674508652
0.340369106527652
0.349848616442042
0.34775157367673
0.353292003031821
0.362006522114683
0.349143635017609
0.36388475813863
0.373401244121785
0.37539973738857
0.374920827009421
0.397914385055717
0.390966017397865
0.389132817502427
0.392548004904559
0.398310290990678
0.389169313980667
0.393224626222054
0.399187602777374
0.398637779260096
0.409575979313496
0.426943807245566
0.407101801341497
0.430806790607737
0.412190969074837
0.446281176033761
0.451403487328921
0.441808104781634
0.457250189781311
0.47083184385748
0.459645571919451
0.471535771532598
0.466789222781564
0.4574074676601
0.451258318102642
0.475468312074368
0.471519825999841
0.473811430366235
0.494788685727261
0.48712365853193
0.49977319563852
0.51421254067538
0.50308095837167
0.507751758034236
0.516341604962794
0.511534684784002
0.500082125087464
0.5191751453657
0.520261641877064
0.534936032607471
0.505570294894809
0.523276989947429
0.514438907965379
0.575191333129385
0.567459479676449
0.563606066861622
0.552935591001973
0.575491934351848
0.539015564199071
0.584284419804088
0.566860047219637
0.615839041131006
0.564693510936259
0.592604504629504
0.561707891342139
0.602655711885633
0.606370766852591
0.621185654616064
0.629928867064503
0.60726973574817
0.615260644566987
0.635243968522058
0.620628215702734
0.644264482853439
0.611128903786211
0.650618532276372
0.649832084314305
0.667976126413604
0.634313364702866
0.676033406408197
0.635190010307096
0.649620730270446
0.671214984119718
0.68179958485683
0.691714765525294
0.708743446054545
0.676942941240129
0.689823444846365
0.698419831267087
0.705861005116417
0.690400968584082
0.754740135424346
0.688698756520224
0.72214327852753
0.735254727951781
0.720463130670523
0.698048133784606
0.732889761706424
0.748513302350486
0.767906560794858
0.700393597079485
0.746877933120488
0.76179515991114
0.766509771819219
0.747864057411635
0.752537676068002
0.788459961538527
0.760359297798234
0.731294043986994
0.774709901217774
0.808060174613435
0.845304445240191
0.804595133623741
0.849462120821816
0.802810126489715
0.869061504797661
0.791381938520688
0.849688846095254
0.835569417056738
0.832748280092213
0.79879111710701
0.833053261238819
0.825846491459592
0.869134033233553
0.851327444605293
0.845948983592829
0.829726532540038
0.900871650654557
0.869389133202589
0.898784473054267
0.856637862077249
0.904303219940477
0.838749987574176
0.894399871836331
0.839505997049981
0.932914187382506
0.857445348070414
0.881661890639773
0.875267985829737
0.929870103325767
0.874009220188748
0.91424449749809
0.874494811367958
0.899778204583508
0.923190546637114
0.964913200573984
0.912747201204964
0.907681774580434
0.916489042071668
0.978658058728487
0.954125931000238
0.998986925416397
0.910967679132982
0.964563467531233
0.941057614534817
0.987338721571378
0.917408641011425
0.970872735305224
0.927058569038622
0.980942326810115
0.965312821759388
1.03683305501541
0.903950928041395
1.04727586192873
0.985137382311418
1.03870533045605
0.939479590525161
1.05013721321998
0.994270959040706
1.03093039460532
0.956260192137341
1.06313885443962
0.960558834793975
1.01071404011599
0.996763996120945
1.09557195887191
1.06251889092779
1.04611516492907
1.01373686996385
1.07118710644756
1.03949326231294
1.0514516072795
1.08771413750363
0.981272779712258
1.02805329249229
1.09932734405058
1.03371856292904
1.08943619750236
1.00791656945433
1.14446914962812
1.04389782800173
1.1000748729221
1.07651915168092
1.18220692132802
1.06782454695388
1.16948803128241
1.07198629765192
1.13150386805475
1.04806574290829
1.10970588501055
1.04422129444875
1.1836660634659
1.03675405412833
1.0978445922472
1.01356168544573
1.12537844141318
1.06532210142487
1.09738289054071
1.11624362440542
1.13247900998703
1.06557099662754
1.13499727459901
1.08989804926685
1.1885426619522
1.12649076419882
1.1303277795199
1.13379292718147
1.13518679383522
1.10360532272054
1.07988291235581
1.12653589507107
1.17239845193715
1.07668628608134
1.15180703675319
1.11712573985291
1.18198366445288
1.09224588414453
1.17694588749026
1.21539196152207
1.11331369721096
1.04137953523207
1.20341095625909
1.0956328137712
1.18582140862796
1.07167349650893
1.19469482770861
1.1421634797089
1.19317800834298
1.05160176821373
1.14167284910628
1.15061942086445
1.27530545905849
1.03891227286237
1.20011427936376
1.16221364487045
1.25588881747049
1.13992838651873
1.24582396153926
1.0791849843761
1.10643507715599
1.12584097081858
1.24684752099305
1.1072526324291
1.17477656102314
1.11867489976229
1.16128487784307
1.20162333876854
1.13479743947404
1.09899974314277
1.20708234839083
1.15062210448159
1.245794089208
1.11865611817541
1.27378095337777
1.13835142082916
1.21684761769592
1.16436738396287
1.19763199571812
1.17256640939153
1.17791358532381
1.10663416880895
1.18784440811539
1.17771011768692
1.13942769861788
1.17076174251772
1.18146485190396
1.1131325338496
1.21173850933339
1.18369623275579
1.15984061582247
1.16602782012279
1.15594670770688
1.10573164711943
1.15584646477185
1.12808141335973
1.12502106949215
1.11921464808533
1.21537738397247
1.14642030898358
1.20800002866904
1.15003888563792
1.15027837162837
1.16660560920429
1.21179474351151
1.13597971682512
1.17695466183264
1.09606563479878
1.25833027873914
1.12525282045284
1.19952445691085
1.14277708676484
1.13093120890133
1.20168490460935
1.17931627564514
1.12709809976632
1.24008081771994
1.130955973993
1.16056560973953
1.16103837093984
1.1882981206374
1.13082592231761
1.19042262054845
1.16721416802438
1.25566472904162
1.1552114220242
1.21481993563695
1.07646306909224
1.16562640464922
1.15438870520927
1.21645752224038
1.13590850900277
1.20756230880176
1.1387297777463
1.09007948497252
1.10510243442906
1.15982396686875
1.10947637392398
1.2493096545691
1.09110340106739
1.1377700593203
1.17121848619199
1.1453054805251
1.0983465604711
1.17902585841108
1.1127360984379
1.15358081115055
1.12948343781161
1.13477021645431
1.08907635697178
1.15514268957191
1.11422998046933
1.15692066626569
1.152896798363
1.11082155129512
1.12336655413966
1.09713762204833
1.09522921815315
1.14718488458226
1.12294143295441
1.19441345060463
1.0721721304023
1.10105451616966
1.10674315061564
1.15828829646835
1.07281688010377
1.10832237413383
1.07669823179325
1.07604190939795
0.988475475860533
1.14751661793699
1.06901504545146
1.1316362484327
1.10258505791503
1.11738650980153
1.08783290463885
1.09717822746182
1.05363011301847
1.09555178207438
1.07350957427778
1.06586877339318
1.0623962234881
1.10077172306037
1.03012370210723
1.08311154377143
1.00223089118419
1.10561646980117
1.020602649336
1.02325519153827
1.01184398608565
1.09375347406554
1.00186414483719
1.0318697289651
0.996469348915492
1.01387285583197
0.986784790463177
1.02337329202356
1.0349676896384
1.05602350240791
0.982252390709102
0.997959091665952
0.96683525552278
1.00749287172816
0.987091557844297
0.991841930263058
0.987493482631981
0.999805568762474
0.968489716988676
1.00540053481556
0.935798652044758
0.978257113609652
0.954642496109237
0.950320073272185
0.916998910494911
1.00559979050699
0.96806752860853
0.94497135957487
0.922925847685803
0.945850897784844
0.922062101448512
0.944496232981986
0.909851863448712
0.970294515756511
0.905304064406285
0.933052601177791
0.916636193832026
0.943849618463321
0.901688557308033
0.91650919911935
0.91714747063777
0.918084920999783
0.899948421190852
0.889612305759285
0.879584639320488
0.881065035834034
0.86471418272061
0.880780592683734
0.886010634195393
0.870238044425685
0.883667751555874
0.853397899848398
0.831782391651942
0.865776310981802
0.829992310819504
0.859373392157717
0.813657972964364
0.853353193638722
0.830579070932217
0.864652628549822
0.811996561182795
0.84090441954546
0.807102133975728
0.825166091096966
0.810465400062454
0.833682400844118
0.76979239128354
0.808060271763498
0.757232962940295
0.810510167053708
0.798683969728754
0.809758198677806
0.769476123825616
0.769420125162306
0.753206529252213
0.767131371153765
0.780661282933818
0.772542027808681
0.742295230522368
0.758809151959496
0.73221659810954
0.755877365910917
0.736154723597705
0.771007715173533
0.723929045127561
0.730573704189763
0.734763134114115
0.725198108841775
0.72799414253609
0.726480669133146
0.706929457298908
0.709007342222903
0.707479282984653
0.719856697109484
0.690850024276976
0.705544801873672
0.682279267318591
0.692922073243614
0.693699682095014
0.688426247926935
0.677073350027724
0.695670238052891
0.673381963510048
0.68238043358303
0.666841488994356
0.660413409714883
0.646261980514249
0.653502681866644
0.650505091078204
0.657708115514134
0.641165012505292
0.654794835404713
0.654403994879587
0.657166742944438
0.619447804119864
0.64948318942791
0.626659984881711
0.631948455323721
0.628161053191326
0.627455715932231
0.616561146694663
0.624028616459388
0.609006560476358
0.6305047835137
0.608493939790571
0.608323078290308
0.60343869523368
0.616419154690083
0.588467179401944
0.605695815563033
0.585690434374417
0.60926105795798
0.587332751925258
0.591550919356052
0.571424759472237
0.585454135344029
0.583487927195979
0.564741684581421
0.557743237802476
0.570560296785956
0.568155883434077
0.566163353607893
0.560259259094012
0.563713515375402
0.552065677904846
0.559775956538759
0.537241997655652
0.560275608318646
0.544166553640784
0.55516414296766
0.531514638339578
0.544640028525145
0.529289212185421
0.538873697512058
0.515651851334068
0.529899111034477
0.51621056041046
0.530444160318999
0.508989940505259
0.532074314349931
0.515677177799177
0.525326112929284
0.511704839517286
0.51567110045168
0.496320599099247
0.507170328976555
0.491128994904437
0.5067761750142
0.487967911788135
0.498520112689513
0.483473683029596
0.493048774768844
0.477594253601128
0.488173667091023
0.477646617179526
0.478861197202794
0.465273899869438
0.472123980671871
0.479559470978483
0.473457249919393
0.464203422214864
0.479947132492418
0.459428432296978
0.467054521749841
0.456932727252353
0.460690334952656
0.44627332688891
0.452339700455163
0.444267852320129
0.459540290610068
0.43521710686697
0.455271852811123
0.440186653319271
0.438257643840785
0.438590237733864
0.450554445931533
0.433280744308715
0.428649329558083
0.421522141767588
0.432143508912801
0.421333042910433
0.423854006662851
0.409120901153499
0.4236118145907
0.42329930939929
0.419758286937292
0.416294811486738
0.420624451070225
0.405364352124688
0.41375304531576
0.40638004154821
0.412326592580543
0.410540255111696
0.417685479402309
0.403743898386245
0.41438031247388
0.399879247060802
0.404506760124021
0.38958969612048
0.399647964431651
0.398434290650945
0.397189739556082
0.394347946572112
0.400171722132294
0.387363640170399
0.396026036835346
0.39162716343756
0.388745036794939
0.392435910409942
0.394284251931521
0.387727712637454
0.388014467326696
0.385275012607841
0.402208374895134
0.379930746721338
0.402513779120835
0.391244728146332
0.388063739935966
0.394270183452222
0.398822694601108
0.395054746907821
0.402137429756178
0.390662906565989
0.399026823459374
0.390862749228353
0.399040019474623
0.400351791042578
0.40821590977595
0.403243398755888
0.409342747831612
0.398887808708765
0.412838590312328
0.411601570059661
0.410490574083259
0.403175484726397
0.418593324816365
0.41472448328216
0.422480442221393
0.403843444746284
0.41708397057364
0.414181949145994
0.421184589981884
0.414915481532619
0.431950874735313
0.418577670699281
0.432544150263233
0.434867913857664
0.435006443537183
0.4300895358503
0.447338287883078
0.438575639490614
0.446426171717601
0.441684977460325
0.449930846713268
0.443486601089506
0.45499560247179
0.446759723186981
0.45455080137816
0.456587845120024
0.461372327593754
0.458458852300142
0.46894140026129
0.471590313313875
0.485461930858972
0.471466639011483
0.478819168983708
0.478057554751951
0.497209819755972
0.488736687952934
0.490011424549284
0.491008220401037
0.503135655081936
0.500857669451645
0.50672477679608
0.491958241415482
0.511387518176435
0.51264489717576
0.512874161243649
0.512054481248763
0.521642604762599
0.515582572091149
0.521216296032059
0.518729239140492
0.520261950241069
0.510701477192863
0.532885885908995
0.512234283036699
0.520734159764563
0.512655900088476
0.525499857156847
0.510662848691072
0.524841754380978
0.509971496714656
0.52569333792656
0.510848460093937
0.51708738486701
0.507263905531233
0.51636944975289
0.512150222929576
0.519653876405766
0.511631980764728
0.517342948667038
0.508744351515307
0.519972791461496
0.511794574945521
0.520964886166913
0.526388344162638
0.523741783999569
0.510488962112786
0.520417497791695
0.50252388268229
0.515179533909367
0.522209738371606
0.507491343453935
0.503339358211041
0.519972314995595
0.509131718322157
0.523461826398969
0.508757684091343
0.513480771195969
0.517710873830004
0.528019020383186
0.517894047166328
0.527972140047703
0.511158762037691
0.527185589477759
0.509597171444126
0.518338877974624
0.51195847704833
0.518003301101919
0.509936453839207
0.51967158901382
0.513725805143087
0.510859052532845
0.495484023396217
0.51446017509127
0.50446458156424
0.519143422044706
0.508327054663599
0.517523863398077
0.506610327669986
0.504521235369545
0.502242671542665
0.501065902964133
0.491862960029564
0.485092481065531
0.476448965092908
0.490870032554705
0.487615283509216
0.493309530001864
0.47799939895781
0.48032559694732
0.464321223016166
0.464550616415645
0.457433230431792
0.46895034701723
0.457992678830062
0.45423471720688
0.449509654372421
0.457508731860051
0.442643488382117
0.435944430750445
0.430847856386618
0.443062161422652
0.438382694462469
0.425646757947977
0.429743016077159
0.437931594580117
0.422114538419839
0.424741419811442
0.422368036868063
0.413599293309402
0.407715191569813
0.415890726620543
0.414002009469749
0.403674707716106
0.40017232973003
0.407900077046912
0.398650806151467
0.400250329266205
0.388068552638926
0.390137304985991
0.384907772791507
0.387856946688348
0.385625937102626
0.388000220664856
0.380825434282671
0.384267330253495
0.373166402378869
0.37557706558937
0.376041414640709
0.375962794550258
0.367009642819863
0.366309380870081
0.366722851884465
0.369742686918621
0.361556738471995
0.366194712499547
0.362890453938059
0.363735224747469
0.361774272086193
0.358787649087195
0.351404749423667
0.355744152096789
0.352422577865452
0.355648750443181
0.352515496227994
0.355343407716573
0.343774393573091
0.349257896640845
0.346336971465807
0.352349832096376
0.340610607798984
0.342577582091181
0.338133804876674
0.346356153639979
0.336984468007927
0.342920044201951
0.341735281278674
0.338266502950571
0.332981628754629
0.334779136848998
0.330376203032064
0.337585990245151
0.330340457308083
0.332513256366934
0.32825870004215
0.332068494701714
0.328402654508113
0.333345963865842
0.3229915058004
0.32495608129059
0.328388897601568
0.329621204029539
0.322859197775605
0.326241117109435
0.317108480699512
0.320950129869138
0.31682698489659
0.31729575199993
0.315077432875968
0.316005019111241
0.313581928337873
0.317187087149329
0.311913338048275
0.312447154201862
0.309538294323014
0.313373365705846
0.31014263693477
0.309740510697882
0.310061654788355
0.307447818623396
0.308178119755579
0.307947034980295
0.304321237476279
0.305299876098247
0.307415823789829
0.306041186391177
0.299683464494847
0.306542929822036
0.298212028792336
0.304544048328899
0.298331555850266
0.298614283776621
0.300447342910269
0.297129199873594
0.298124441398301
0.301408105146913
0.295943572606265
0.303289356063355
0.296377136479321
0.29712184385594
0.294589131332538
0.295721323940905
0.297394849400814
0.296301667001482
0.288983412463789
0.291918300954531
0.289925362054726
0.290668100701544
0.292202205190476
0.296905049847449
0.288851272159476
0.289491931075315
0.293055118439768
0.289670618714904
0.287868352955576
0.285983513014814
0.283160327084952
0.292486490781335
0.288014727304007
0.28732204603568
0.286844524919171
0.290489331158502
0.28693058048282
0.287861661607334
0.283634309857787
0.285883268570113
0.284472263726619
0.285876505352587
0.284865316832096
0.286751492238606
0.287533764432357
0.287465732503349
0.283042991893105
0.281069929128656
0.278781527819317
0.285650906471944
0.281153842358108
0.281484807539624
0.276031939397537
0.28021063971991
0.276790311467901
0.280789708590683
0.276193348811797
0.274693594229718
0.275308766428965
0.278757208208424
0.276270025575324
0.274252929284636
0.274458202242857
0.274570528140614
0.273045005918531
0.275995218646829
0.271610136654314
0.272264035294209
0.270468330087458
0.267623298603748
0.270717305250936
0.273598914207331
0.267972147203486
0.264769662203716
0.265561979035629
0.268782145150786
0.264716691927978
0.266564924723399
0.263015214159514
0.26924306759569
0.266821243333537
0.261095375708648
0.261821789007542
0.263446517689749
0.262691581700226
0.26368128464092
0.265671787617216
0.261389879111269
0.25984732663218
0.259374410094446
0.256749449937006
0.260640949687877
0.257481145221592
0.262889929708498
0.255096603041861
0.254215609505381
0.255394777732519
0.254849535589168
0.25285866439908
0.255048776461367
0.255472877499809
0.253039402930633
0.25227062123634
0.252724001461752
0.244320470601961
0.248954458604173
0.24673169975928
0.246046738036405
0.245648960463708
0.243296493170152
0.241467890228647
0.245220975523812
0.245708574387266
0.244169650934751
0.238280388781773
0.242483358448218
0.240168075580538
0.239285557349696
0.237718973806682
0.237035307371604
0.235903295274853
0.238794370008975
0.238352963259265
0.237007827937143
0.233329623475744
0.234683952180803
0.233151824951153
0.233102066175692
0.2268530697472
0.232080750225864
0.23121219867244
0.231072465558268
0.224044345769202
0.223910669671962
0.225760367339186
0.223834523573443
0.223829089128953
0.224553778865503
0.21887179504632
0.223155248688521
0.222360361055812
0.22684521720789
0.220279097011432
0.217248413661571
0.219720657482197
0.217202967483002
0.216822293759479
0.219599342924786
0.215827422547618
0.216784344483992
0.213036059576339
0.212860370395017
0.214837143078135
0.211809424118947
0.214709710428158
0.213967022298299
0.215031675234026
0.211762088920657
0.205084970962017
0.208159633839246
0.21042927451619
0.206217565338197
0.20934143516715
0.207760903354487
0.204425071144077
0.208362607510309
0.202749363934961
0.205435250367061
0.203466131256216
0.204533958996954
0.202505925996523
0.202741198355958
0.202552694158283
0.203545841220943
0.20098632536973
0.201941814440129
0.199295259427273
0.195508851990354
0.200041524440873
0.198655028698535
0.194048491865903
0.194794924693274
0.193958440259908
0.192890443410713
0.196523886504251
0.196483525021014
0.192217953052111
0.194880311440546
0.193900098421047
0.19219677177178
0.195553227976666
0.19378179755364
0.191149657428762
0.189095893315813
0.188485508310007
0.190634763891817
0.186656731482104
0.189738576566097
0.189217090112461
0.184887061801378
0.187759052739124
0.185774804136951
0.181414214085625
0.188433533019324
0.185661326962391
0.183950646435856
0.187941528715168
0.187614221192992
0.183387740594507
0.182461298288358
0.181875477655321
0.18123945073969
0.183451281701156
0.181405094704489
0.181061111930942
0.181313656704887
0.180987183578931
0.182028527937298
0.181931569935143
0.182510134875591
0.183079073769211
0.179944671742842
0.18027159463974
0.182053952444507
0.178875743744548
0.178824564140907
0.177247694891926
0.1759874990295
0.180339739120701
0.177716330187307
0.176913041742886
0.179316999452029
0.178054518841879
0.175147747732142
0.176293776627983
0.17176767535519
0.175003545086093
0.174165515322402
0.174430694020062
0.171740348301114
0.173354901773037
0.172323944153917
0.171239225191134
0.172995282647632
0.172139199188751
0.170431701507368
0.167939296027626
0.168838561387153
0.171020528645455
0.174679218756822
0.168282004786069
0.16955324253608
0.17016355201781
0.170554077675976
0.166577802865986
0.169484667256834
0.168718634600668
0.166989429445691
0.165730464378641
0.163808185576127
0.168165228378974
0.161133889333824
0.162786669167537
0.169582675085055
0.168297721928793
0.165995411376477
0.164623608822828
0.162576614025078
0.167122959760647
0.164915877827128
0.163209749995036
0.160666674609767
0.162628671453809
0.162473407008451
0.164951745132062
0.161042222785272
0.159903114437771
0.160953077691285
0.159735292061844
0.160796332288918
0.159349166888387
0.160520872310346
0.158948297070247
0.157931391286141
0.161367941202235
0.156600261035625
0.156348810996429
0.154462587785936
0.163762055713728
0.159483110007706
0.158167143940767
0.157478489483857
0.159119296826241
0.153873541615598
0.156140580444525
0.153761721842069
0.154546573164997
0.155452300416648
0.152617576592799
0.150301829644559
0.153235959078293
0.151236104176561
0.154280843867564
0.150140569517401
0.151494577173776
0.149633839962965
0.149368244106126
0.150625963820827
0.147204179969476
0.147414300859116
0.149212315523473
0.147427972859458
0.148748476070455
0.143035725097645
0.145622767791458
0.142299332277647
0.143818694145306
0.141313871167926
0.143473660311234
0.143515735102279
0.145074250036893
0.142327990547252
0.141301547966932
0.138460786298748
0.142154616105248
0.143818706619041
0.137439240454027
0.13415658123139
0.138093242908606
0.137407364090434
0.135824025303764
0.135772040862875
0.13847166949236
0.137359108850895
0.135649598228897
0.133837201051449
0.132227164212697
0.132006027626404
0.134259911954233
0.133972421950681
0.136321105048372
0.128087595629595
0.134069707138225
0.127952869715887
0.130603591559158
0.128115266893853
0.130283119392956
0.130828299251005
0.129826029436414
0.127022529910281
0.127007754598638
0.128147200456102
0.130421848521015
0.129506060615142
0.129061378614412
0.124972839155011
0.124026296380225
0.124298716361524
0.123302990436216
0.119828848211293
0.123411213442901
0.118604270742723
0.121555367895289
0.122044653593747
0.121785704720804
0.119594438315256
0.123354961372748
0.118441749713834
0.125704448164959
0.117713449742218
0.117562112523083
0.117167297282575
0.118705306662679
0.115413793521919
0.118845580842045
0.117645353031022
0.116140955527114
0.113139370782673
0.1153177600434
0.114831043037568
0.115173220948078
0.111880155843508
0.114480060090368
0.113537062999572
0.111134859290923
0.110187183746809
0.117425677963807
0.113026221338653
0.112455841118127
0.11077159521644
0.111859962847058
0.109844434265484
0.112557816594718
0.109447700750376
0.112083543532232
0.108719204873672
0.112966395795852
0.110340101891925
0.10765661119259
0.106869788748597
0.107770108540882
0.104989190428301
0.112509902170771
0.106072349050138
0.106884571342989
0.106123006335907
0.107654208414295
0.106319871388553
0.108625868373263
0.103341294428315
0.106395231255396
0.0995412780567619
0.105614854571646
0.102745985946111
0.106754476782958
0.0983587079164296
0.102799268166643
0.0999563142590806
0.107219292714925
0.0967495394096894
0.105612531316523
0.0985732915728642
0.10670258215581
0.0997530905690164
0.103128342909092
0.0980364885840801
0.100166380227633
0.0888785559484404
0.102332974974326
0.0930187675307676
0.104716574951777
0.0973492853061425
0.101095663292205
0.0876387134870045
0.100301699453912
0.0876279018939632
0.10097729088482
0.0936961374444201
0.0987116298977935
0.0913844397182499
0.0975939652741896
0.0924067370482739
0.104001193201301
0.0852509751912395
0.0992833518267581
0.0919882058916454
0.100367377771982
0.0860432854895448
0.103211117824068
0.0865792792574728
0.103649025533322
0.0850553503440351
0.0975206230133139
0.0856251563384168
0.0967172285805898
0.0852356180057351
0.101797686417839
0.0877083580561832
0.104853986581772
0.0891040508875527
0.110269529872533
0.0851544739023649
0.0993308249120079
0.0798508290852714
0.0968302832001476
0.0824664165121949
0.100563131778752
0.0904786344275948
0.0915436709850742
0.0854616113286571
0.0901730013951101
0.0937264165668965
0.0903376504363414
0.098593117251452
0.0810494708325424
0.104201558044202
0.0790874786140087
0.112769834645189
0.0672478167217627
0.115094916775534
0.0661668335095367
0.110084669844096
0.0677975748226451
0.11245619216395
0.0682435647467022
0.103038272272359
0.0810019151131984
0.0956347821027318
0.0863876869535013
0.0927806415411028
0.0900409447883421
0.0889652377383889
0.0890919311626114
0.0881207074316849
0.0870016141867236
0.0915329418957919
0.0844292554633714
0.0923682352445796
0.0841209718801788
0.0906336905290251
0.0813093987869155
0.0912100602457658
0.0869317675711519
0.0882933405428612
0.0878015561153016
0.0882409261817261
0.0853911138909151
0.0889182251237197
0.088862428397813
0.0868535316951873
0.0831850392678724
0.0895166099771879
0.0861337407037421
0.0902329959026908
0.0870153331650241
0.0888719533784254
0.0864162415625136
0.0886647783932519
0.0850139675332233
0.0888179775701747
0.0859299779475875
0.0893165828554014
0.0852859385782378
0.0887669371007141
0.082862492875432
0.0887669952886989
0.0836915767972002
0.0907681013350067
0.0881293794886198
0.0874316277060324
0.0877029394807369
0.0877726529153866
0.085870247453846
0.0898276973216194
0.0881579717824587
0.0870355036128035
0.0871498280520756
0.0887217278179467
0.0848036652080901
0.0858132167692012
0.0837311982105236
0.0850887437640067
0.0840739005588351
0.0866821051566299
0.0850169789432618
0.0892086164351526
0.0868544888655425
0.087503592110874
0.085372326288073
0.0899323559379698
0.0836495280486048
0.0850629614375451
0.0873938588189326
0.0859359710970619
0.0848132769450143
0.0864454003738529
0.0852940381883573
0.0863259909937585
0.0873867343299749
0.0872892250191951
0.0861950358664107
0.0864543650849774
0.0858671476504037
0.0859272752636281
0.0869254096940895
0.0852881512786455
0.0856359197806226
0.0856983966212099
0.0865981430056251
0.0901019816694477
0.0872700285188418
0.086221394081139
0.0861218595344297
0.0873498630682676
0.0840576545753875
0.086399744371824
0.082909547657619
0.0865605271642479
0.0865966439635782
0.0865895698296172
0.0871575640034452
0.0852822183481001
0.0858849649447656
0.0873156195643962
0.089432347149064
0.0892927165946301
0.0885754866965108
0.0881339760097052
0.0883334105196383
0.0890020828833317
0.0865695415663156
0.0867763016296726
0.0865155469563021
0.0880821737906042
0.0866403273000706
0.086943721457468
0.087279199908293
0.0860950157483734
0.0880359181981846
0.0911187735582804
0.0900520859877855
0.088879572880183
0.0885145385886425
0.0865834253114559
0.0879059401365912
0.090940382683689
0.0884072800537751
0.0896794049442126
0.0897116991988244
0.0892593705972529
0.088220723762451
0.0914273016835234
0.0890846394587206
0.0885926374175691
0.0914205637995839
0.0893917415911346
0.0918457096507024
0.0892658488170998
0.0902740279627265
0.0885102826079835
0.0918980371386372
0.08902026798552
0.0904175977953097
0.0906293376673161
0.0923768287240601
0.0904438443195817
0.0916733346871195
0.0916897070873229
0.0902061867419692
0.0915540297762478
0.0889962363511826
0.0891089888913229
0.089120910118942
0.0897155148843926
0.0902780476967631
0.0904179643259014
0.0924368161692439
0.0915817480737331
0.0898442054981235
0.0919262362923206
0.093955026527824
0.0916364498095778
0.0924300782041048
0.0923302567207667
0.0931582436161939
0.0939325510907977
0.0926270149121997
0.0936971828742346
0.0914514651794259
0.0926505467149461
0.0936335587514234
0.0925883317840776
0.0919921002486854
0.091383434049852
0.0927927580024911
0.0963126819790539
0.0958634933523619
0.0918517990274497
0.0937279043939819
0.0931044183854025
0.0937653678812696
0.0930192409787517
0.0924461477988132
0.0926869069444451
0.0928327599883562
0.0950274840110076
0.0928916276681016
0.0907465411505789
0.0928910688413742
0.0907260395559869
0.0907129248923793
0.0925874770387199
0.0904140243524249
0.0911453303629239
0.0921995046569129
0.0923234241216481
0.0890366155267251
0.0894611441775379
0.0920893799736354
0.0891016528331592
0.0904189214886641
0.0901148251165103
0.0882657981410138
0.0906437797397793
0.089858982441394
0.0906823733714992
0.0909346435339136
0.0882666919308342
0.0892631873752804
0.0885013986793353
0.0876894846265801
0.0870168603225748
0.0883486253986518
0.0889742191412671
0.089176949629851
0.0888468809205209
0.0873126088901445
0.0870679726744426
0.089643663301697
0.0876288807984083
0.0879515505995547
0.0896449315433624
0.0851407056153367
0.0869017041330686
0.0883018388167032
0.087524199849619
0.0861825862096533
0.0863673093066051
0.0872064434764174
0.0884428298310519
0.085642618231881
0.0864275729797933
0.0877915474233518
0.0863396572073918
0.0839999290139507
0.0852708997779331
0.08541008175087
0.0851685089340627
0.0865879123497204
0.0835187966316125
0.0855449026181287
0.0840944342866531
0.0851187268303093
0.0867903516963903
0.086284224147927
0.0832964716853155
0.0850856104390244
0.0832579043410932
0.0863856246464219
0.0842437979546048
0.0863652774447717
0.0819786392290559
0.082262518036186
0.0868121253986541
0.0860884198100149
0.0841001621304162
0.0833541750545503
0.0843560946075055
0.0840086876272581
0.0838834838583615
0.0851151215009852
0.0851686211502225
0.0832046661813569
0.0814552391681538
0.0821032502790499
0.0821342486612114
0.082577368110652
0.0820031317445062
0.0837773523297906
0.081938309374482
0.0852826248446038
0.0827730186769585
0.0842905053933473
0.0839126772322246
0.0815465851383461
0.0835528270147614
0.0835486474644632
0.0824623595015502
0.0832525501559375
0.0810323242471289
0.0841881410750818
0.081794646944905
0.0837977249933214
0.081565798327207
0.0816819734011608
0.0827460712530408
0.0822447875497552
0.0810736556885001
0.0816872299177262
0.0813826396498341
0.0788622255511616
0.0796138526550498
0.0801392344727295
0.0798481882912607
0.0789176750361324
0.082223522196913
0.0823968384707677
0.0801729359095611
0.0801580920671684
0.0787683405034653
0.0792282742023326
0.0796096778404559
0.0808600261006118
0.079632290405837
0.0774601158527496
0.0790342312530932
0.0763719742100714
0.0765453664019818
0.0780693342374005
0.0786184051366741
0.0758647774122559
0.0753704369819447
0.0767893092898795
0.0747071762619022
0.0758638856799374
0.0775112540708142
0.0751768217757528
0.0735052207016902
0.0747404303862792
0.0752913605636664
0.074572362616822
0.0729361581979022
0.0784127373004975
0.0719705817971556
0.0744664435834749
0.0718984960164132
0.0732881088664653
0.0736676398900969
0.0740227711675809
0.0720982366834328
0.074072488474903
0.0724621445645331
0.0715070444081495
0.0691168909169953
0.0703258605896357
0.0692860037417874
0.0726923687296475
0.0686262954567088
0.0712224297071418
0.070854121397928
0.0693945186211964
0.0675945842181217
0.0694447471795161
0.0679566687311376
0.0706344085350279
0.0673798861201714
0.0729389744122336
0.0679611142457651
0.068575962520174
0.0685087512731393
0.0677510260134272
0.0673888685327836
0.0676879919208041
0.0687060697096526
0.0666306117993277
0.06773201459225
0.0677339960998293
0.06762171590616
0.0676766802042344
0.0677774179449318
0.0666413198796957
0.0653142729150673
0.0669657262964887
0.0654463172086963
0.06789411844328
0.0650231986251642
0.0652869050754876
0.0670985402057456
0.0668104648631047
0.0655325216064629
0.0657309729401795
0.0667625706349111
0.0652303674097795
0.0662652359028938
0.0632257112893264
0.0652191599361553
0.0649780504346974
0.0662495121717729
0.064004126786591
0.0654613771751314
0.0643003414717773
0.0663211787862834
0.0632839941864787
0.0642624387961068
0.0642729024415304
0.0668008694044689
0.0658446008625123
0.0659181493103747
0.0648535534886757
0.0616304009065271
0.0637011401262349
0.0639992685571503
0.0623112899449251
0.0616430183004927
0.0622670833603798
0.0634288690622458
0.063655183202592
0.0651104285150513
0.0620089086850126
0.062984247073359
0.0616007080912167
0.0620876582251901
0.0695987641715818
0.0586308612370835
0.0670379122541762
0.0595760833620455
0.063264571035675
0.0610728189690891
0.0631875316377722
0.0612411568780844
0.0638870164847358
0.0602094042289491
0.0614723035269163
0.0607280082389855
0.062707410854408
0.0591324623671548
0.0630707762122987
0.0629996344319678
0.0643753022075578
0.0583317595708852
0.0636411033546417
0.0591054034071656
0.0626580782766564
0.0638856037925491
0.0615521560940524
0.0581348639053903
0.0662838787797546
0.0548924399462368
0.0698576939272745
0.0574273224711877
0.0622416590873233
0.059576011051505
0.0617615534337196
0.0581853852010358
0.062472867770288
0.0595064289751871
0.0621526204994505
0.0664468023909998
0.0597318575882396
0.0640188031181229
0.0594545411885193
0.0611892408822761
0.0622373015447766
0.0614142705890222
0.0628153508264672
0.0610595499590748
0.0626489052558999
0.0588089380023754
0.0606936637522415
0.059707320889165
0.0633295011762699
0.0621179469376771
0.0635258284580299
0.0598213938426546
0.0595939808118506
0.0601489594342712
0.0592853886174902
0.0596376038022117
0.0630400862214327
0.0683610230275991
0.0539253325520959
0.0638971944344546
0.0575229237085172
0.0647577549473049
0.0575388054453325
0.0607398035398103
0.0615993183088072
0.0619865148911221
0.0601666746050757
0.0613509898830493
0.0613470995101235
0.0612090008065138
0.0587891429032864
0.0594407834013561
0.0636074813657688
0.0597338432953305
0.0595712412007231
0.0582816598887958
0.0648910873637831
0.0572993299917802
0.0683019045164228
0.0656963783049873
0.0585855943689515
0.0644008894139231
0.0588332767561701
0.0618948395966595
0.0591008600472723
0.0628358432478428
0.0588652386645721
0.0612824183496002
0.058482778692361
0.0627126527825824
0.0587501907665322
0.0628690884120718
0.0588809862568958
0.0631910560385042
0.0597860774067357
0.0634864238120341
0.057464097870584
0.065946746220152
0.0579442834269682
0.0660293723941485
0.0591648235095246
0.0661550646802724
0.0587875849688074
0.0671425509766598
0.0561968938431806
0.0752884330663519
0.0668968274293603
0.0590267814618067
0.0715071684073813
0.0595899529036986
0.0660772035490195
0.0588057373010625
0.0640810400992207
0.0653800483103434
0.0652344870419053
0.0649756567258359
0.0661846479763653
0.0614814725130839
0.0624514623626607
0.063329131851366
0.0650230914139125
0.0708092004390896
0.0616857477733427
0.0665150903548816
0.065658060333298
0.0591901633221867
0.0736734159323354
0.059505799008979
0.0703488904447512
0.0638510178695255
0.0662045095134812
0.0661038190328962
0.0673869190560661
0.0663573415961254
0.0691839769924159
0.0681433832828243
0.0636028735124759
0.0655616932585136
0.0630958785817956
0.0677096719593183
0.068126125917381
0.0680543122281827
0.0722241496426631
0.0646147648070044
0.0696028826448998
0.0704010940680068
0.0672512242772852
0.0692489399957492
0.0681412941992628
0.0706592937603219
0.0698153101499781
0.074891072158379
0.0692296263077908
0.0747368895938968
0.0718365775877242
0.0683486781608749
0.0721437027732359
0.0717476587955267
0.0726639699346252
0.0736112052152016
0.0681580574416508
0.0878862308992534
0.0632249270034259
0.0856400593760151
0.0646684674307728
0.0786853139057277
0.066642327786734
0.0793323586215961
0.0666310511263736
0.0801013711811008
0.0721506058436673
0.0768501080460924
0.075344100035648
0.0729459459006999
0.0794955100296532
0.0736575115621826
0.0785648063043511
0.0753683971363111
0.0782982891848774
0.075981538517424
0.0837590542221785
0.0745826319404147
0.0930964344961895
0.0770752950463302
0.0786589119198618
0.0843153579363135
0.0766210411827011
0.0940455555361158
0.0769839831507861
0.0844385595045489
0.0849948240034091
0.0807934738266616
0.086425071323027
0.0784197320109845
0.0935914886839494
0.0846152483530072
0.0817812980970348
0.0914811093742357
0.0814767203057824
0.0941841406876585
0.088271179110102
0.0870997451633773
0.0867019832165234
0.0926923258636279
0.0879812892727781
0.0930847409027402
0.102423804751436
0.0821072013710788
0.109225939216674
0.0892435272736213
0.104375084258492
0.0890813541518004
0.100569088339798
0.0937356130348057
0.106609599714397
0.0943843250596728
0.107074273677391
0.0980313221282781
0.116214946833675
0.0946950752157532
0.110287507000675
0.103746443153246
0.109526421477239
0.111562338862639
0.129009965808954
0.109490544692527
0.119436079724951
0.110280129568863
0.126448854776851
0.114981985596879
0.117859117951714
0.11952900973604
0.121356855774988
0.12558890640069
0.125486253496479
0.125100174958503
0.12754750796219
0.1234719638157
0.133214950627183
0.126604772610478
0.146970605165804
0.127318526031444
0.151711595787687
0.133027759042094
0.146491667514009
0.135629290111764
0.137146606902133
0.139650860107071
0.140256204455175
0.144886078348226
0.144502479285036
0.146456640785681
0.147712853347784
0.152617402491611
0.165634049806647
0.146758334048657
0.174163677844027
0.15166012194572
0.176396148392391
0.151831813737246
0.215750180008917
0.176226404769479
0.17814016597295
0.197860316419964
0.171544936698421
0.212221915200402
0.196845248654496
0.20546750308272
0.212280784080186
0.217691857949924
0.220511244921637
0.23410097763045
0.235029902095227
0.244360626580058
0.247572060978432
0.254273535459183
0.256997449127872
0.279725603711554
0.274484819955939
0.288022150593359
0.283513342688189
0.302021340679162
0.304644538975988
0.310438734857336
0.314079605621105
0.331209386521352
0.315973073844961
0.378552513789831
0.343104057787034
0.365544717332776
0.355632223376838
0.379741450325472
0.378087961196666
0.379485275606086
0.409070940045269
0.390971296193865
0.414862523648531
0.407092642980951
0.435158081892574
0.425024387311733
0.450051124636694
0.454176340280936
0.452421957809004
0.456903481025723
0.46445772948432
0.477718384240035
0.473865507421093
0.482974904773458
0.49006878289064
0.501308774975302
0.506740060254001
0.506635792154589
0.5207658158403
0.492153651709149
0.511476925184335
0.486251808343953
0.525959746356548
0.513935945739424
0.530030568187574
0.532323441130952
0.503124486488591
0.515102147390063
0.512742105183173
0.516225626981365
0.514422204474249
0.517933312446297
0.517451999881308
0.511179353947678
0.522832348431106
0.492027574152051
0.555134792589798
0.500698945059657
0.5217849414161
0.508287909734416
0.518022939755758
0.5013631528725
0.516429939745322
0.504582634578306
0.519705504197913
0.494210153892226
0.505357356483509
0.49971801168231
0.488950674351214
0.493870400573909
0.476627122401648
0.479082467795213
0.473004585943492
0.46522474714221
0.469400988988084
0.455188811095431
0.497151136192754
0.450917524024067
0.445471745799093
0.440951346765168
0.436677634565153
0.438289181696341
0.439688145594907
0.431269849766483
0.427598688135947
0.415909311781799
0.422075054958435
0.413653404108905
0.416546894512848
0.418340848416376
0.408750722800171
0.406529692950752
0.403809414680402
0.407783039250607
0.404844905137009
0.402989813741593
0.403910652476168
0.400109240241036
0.398364719229741
0.404792908141673
0.399768976946038
0.387735481351333
0.393390953721026
0.404308315332518
0.395792734079079
0.389454565940916
0.388008148396522
0.391313480084585
0.38696718125304
0.393409605449465
0.389501670442621
0.390145592509745
0.385856157206634
0.384232431600699
0.379838623688963
0.385475719680733
0.379568380253051
0.380300096162404
0.381389361425869
0.3755041361818
0.401495014745763
0.373190046257445
0.387814584695417
0.372860356362846
0.377385102052078
0.377717101844412
0.37412236378808
0.37729882431162
0.365415888965569
0.367803541035194
0.365472006050211
0.350770179513772
0.370078173419031
0.359634304119276
0.356244531956973
0.359245807737464
0.338051815868017
0.405429078872186
0.349624203197293
0.38528324442405
0.351868244656145
0.360937059568748
0.347270113492185
0.367028268214012
0.353112087809601
0.350963583126716
0.357608804087784
0.339492301056077
0.360369677196566
0.345205510466304
0.352027835026111
0.349171217560842
0.347503479072674
0.357374137782382
0.353092364183858
0.342449461291966
0.35017721347714
0.341149769738545
0.338868821655333
0.365185664359886
0.339799598458664
0.327783375030153
0.323904939943573
0.331731867599646
0.323469197842565
0.330087263702262
0.335838801468933
0.316285325123911
0.321964966696968
0.308279088704524
0.322251261164847
0.307323424230694
0.316853104095769
0.303660901209504
0.307615585251856
0.30828312631078
0.289809099301107
0.322419239164847
0.308530780782077
0.316199462123611
0.290623747740593
0.299233681240861
0.289065000175641
0.305620514999337
0.294472507278052
0.285139425060046
0.286496958344035
0.280785663931981
0.281258083489872
0.280810683630538
0.268276359823679
0.28792009020563
0.272349039753588
0.279435953956658
0.272163870520202
0.273791050748472
0.265843774601036
0.263559045219647
0.263162478646962
0.26292990576321
0.257096576720254
0.270181031772591
0.24743215865052
0.277243954441253
0.255144479107467
0.269362443048326
0.264612852467961
0.259645347330133
0.261561275845056
0.266809297689187
0.270726153323524
0.285165495311114
0.266623578155481
0.280563963253705
0.262302112489799
0.282736257473089
0.280651310970097
0.288144228308321
0.290941132469359
0.289730605691476
0.294698938574308
0.301486312844319
0.30247996380528
0.307757224693853
0.314100073049467
0.328649690586618
0.31952121392092
0.341688787075536
0.338609494744298
0.33715181462423
0.371929660105193
0.346955888457492
0.382379304745726
0.36744292907119
0.377988303078864
0.384289394577799
0.386194895653592
0.395167271069406
0.397239880182084
0.409907898094441
0.407968350277592
0.413337836585998
0.421497978623957
0.414658123005923
0.428691572962325
0.429831291213898
0.465793742403354
0.416238121065664
0.464086396369551
0.448316692976186
0.452179434314678
0.449189233829001
0.446256458760244
0.460448066028788
0.452208183807913
0.45918803425483
0.460890851638371
0.472886183671141
0.473346502444123
0.462482674076191
0.473258377810532
0.46961791673729
0.476288635640081
0.475702774332164
0.477362546333122
0.482726463100059
0.483909568222623
0.490685254343927
0.503287825612987
0.510937612079758
0.509673129883397
0.492020269900866
0.506143513217203
0.501927542445502
0.514894753551025
0.512962887002103
0.520840001790298
0.523786396556774
0.525846460927497
0.524518880880643
0.528272995182971
0.533864383293485
0.537084656847336
0.542021862122676
0.554623568032035
0.538490665841715
0.56121974034153
0.539557921475963
0.575869798076805
0.550853086739977
0.559904107461905
0.572530890167123
0.567727860711888
0.563110823110738
0.56283596857673
0.566085386147482
0.567891917197548
0.572220435368835
0.564371452956513
0.575104391283439
0.571786298754072
0.576185077782299
0.570762654468132
0.578323961199999
0.578318184654809
0.568719944282051
0.579919283350982
0.573739407227697
0.565455075181073
0.571568510219979
0.573779318098193
0.571572728284316
0.570136346489724
0.571623399595657
0.574797488359609
0.572030821788713
0.569067676356023
0.570234616748836
0.570252968374847
0.572097279420242
0.573125814504706
0.565080403602858
0.585855804403162
0.583233619787193
0.57390339345873
0.590525837178116
0.592717391636014
0.596338721897859
0.589738238087942
0.590734292874542
0.592831896987461
0.597682090311169
0.599585326179623
0.605933969366378
0.599201103284049
0.607848861882633
0.60391146645211
0.605014894001746
0.60334979085028
0.604243854022443
0.603539324864178
0.60038099125418
0.605294974431756
0.598936691729687
0.588522039580917
0.586893946736421
0.587413996331567
0.598028364538396
0.582788111552354
0.585715283276589
0.573148912014608
0.576284145455278
0.563832195637553
0.554027169466557
0.560071243843788
0.556174344912913
0.555714895632848
0.549315743820136
0.550987111893589
0.548919430291943
0.543334551820098
0.547185847539361
0.541244554501774
0.53857498461405
0.540056242114591
0.541167448113149
0.536118849218727
0.538504111538359
0.527379010740616
0.537931508707147
0.532493770065494
0.528819530111267
0.533281050386464
0.546719314418772
0.530238841823773
0.542436676715846
0.532467190690741
0.533652492155363
0.531337393467042
0.53254030811324
0.530588184826301
0.527872478378355
0.531638660683199
0.528985527565023
0.531359707810964
0.530072436348392
0.530872612724945
0.527273475537943
0.530247446907651
0.524747040656517
0.528806432163818
0.530387080155101
0.525916069084937
0.525078148679678
0.527507419465783
0.521125520106536
0.528412295902218
0.529905368806438
0.523496078271842
0.523742546838056
0.521894734708464
0.528538359185097
0.527232219846289
0.524751189340103
0.528304510768408
0.526998901087309
0.523269468494321
0.518995747874843
0.521983427451929
0.527105609470117
0.521892982115918
0.520283257869978
0.516581764671261
0.521202689999389
0.508770734246429
0.50607189226517
0.509506958255154
0.501500916896291
0.498666934472588
0.500554388859458
0.493086374875317
0.49100302581443
0.487975005365474
0.482157078783995
0.478186910308202
0.475080012764586
0.469816457878804
0.470649882572478
0.470006421848584
0.468393454082594
0.46765143303033
0.460580403563199
0.464109761293108
0.460168551180724
0.45967097613069
0.45275214380523
0.453372130380589
0.457958447971576
0.458523947850774
0.458250096564082
0.45518261578136
0.45759268928048
0.45935204370733
0.459914161928748
0.463920644461624
0.467005228590517
0.467081973750146
0.465749887162981
0.46514090143119
0.468794122169311
0.471466073211552
0.470117764067311
0.471045135862844
0.481180588602589
0.477138569810893
0.484611636556679
0.48019792672508
0.482786544968963
0.483560964487203
0.484658338454663
0.486184520133367
0.483452629280284
0.486890121754279
0.486057881062933
0.485679064603683
0.482280729722383
0.483102004514258
0.48215642558694
0.481521025966808
0.482362032604831
0.485125292599756
0.479355206705678
0.476868983851564
0.476550893279963
0.474430492443601
0.477142167222071
0.473388534373184
0.477381579010824
0.468141532116915
0.468451669998749
0.469245570990497
0.469187380284066
0.462725496717404
0.463392201028128
0.463453288051748
0.463098275650963
0.46044052033407
0.459473099056537
0.461772178894295
0.45782972711222
0.45549373128803
0.454053299714396
0.453699616947135
0.452449903566885
0.445393883227418
0.45005684075279
0.448403513744528
0.446478939329006
0.444980205828482
0.442976019193497
0.439827708059971
0.437762437638482
0.437635207136328
0.435336710315286
0.43034877837007
0.430698407595961
0.426875105278674
0.426322088371033
0.422801170503908
0.419241907611783
0.413468895077046
0.409631941018918
0.407815367112045
0.407661629955942
0.406359493345654
0.399888147140317
0.398628175494403
0.399137708904693
0.396866946761153
0.398865200596092
0.396037605575464
0.397786312254182
0.39412482710426
0.393536651322907
0.388965347153546
0.386065131337314
0.387931652838643
0.384782375209942
0.380450723776439
0.375521152877592
0.373236456360835
0.367555563465481
0.362430190355505
0.356742588874644
0.35256795930282
0.347012971110978
0.346327903711525
0.345034706556387
0.34213282902317
0.344570238747735
0.343422218755944
0.347445415276432
0.348993641613948
0.354635088516942
0.362884614129184
0.370443557345385
0.379853444949012
0.38954730678808
0.400213199699768
0.417127503788279
0.42975123622034
0.445606861461335
0.460662723188232
0.474395622668596
0.487408157647283
0.503523770004587
0.517082623137564
0.531543417487989
0.549343491975252
0.56794513207178
0.580225371753871
0.592736538268641
0.611583510451021
0.628298741311609
0.635351434698065
0.654720508707677
0.66586668762443
0.6764550610816
0.685758612257269
0.699198972201734
0.710978883112976
0.724196013743815
0.730165396940444
0.74481251076427
0.742222521508119
0.757081044651283
0.747706881240488
0.768709617048723
0.757080704096232
0.768114743628812
0.765094456315785
0.763918064494594
0.761923303282723
0.768693276634367
0.765249630149703
0.763602576987535
0.766886130240269
0.767694529675166
0.774857167797146
0.767294036929491
0.769793241938938
0.77133140110671
0.773920900000187
0.778080451265312
0.784680186518941
0.789401145670951
0.794476523971291
0.800048153481975
0.797810762653171
0.810287972861108
0.817229019945349
0.822421402387226
0.833472127711387
0.846671754586251
0.847355262463741
0.859957297806817
0.860117292987159
0.895054914342623
0.896153436342267
0.897787725043247
0.912112861725588
0.921896491978015
0.928329649111942
0.934582562707149
0.936172422401351
0.945477720774043
0.936896797163587
0.944951349969982
0.943324996756929
0.939704368995062
0.933151574006922
0.925994158514003
0.923056715764694
0.933459209095001
0.917908644976314
0.935606685880405
0.937549810574392
0.937342161965994
0.952376328476092
0.962816953897705
0.969244317677575
0.988884525265307
0.994342622217768
1.01217528927204
1.02055923662667
1.02970383185753
1.03392856314586
1.04936544827997
1.07416606330459
1.09704761993485
1.08679369171363
1.11310760817799
1.13924606427988
1.13776485613113
1.15745325781279
1.17335123735424
1.18209083995256
1.21659144946441
1.24644677973263
1.23788284532487
1.28202030618009
1.28518548024828
1.30610450599989
1.31355982789589
1.32405684952631
1.36824024982406
1.38613326768295
1.404245858092
1.42562521375913
1.44755765975977
1.4265400793934
1.47299842488814
1.49017350157428
1.49765625727357
1.54998495301206
1.49685510340055
1.46487342380444
1.47998005604749
1.55988671654347
1.48356632229695
1.48648328315803
1.47524694449946
1.51365907224629
1.52553058054402
1.49620904074572
1.49401958847557
1.53596067247611
1.47837500412358
1.50381147062581
1.53106113856747
1.55500091306309
1.52508607929986
1.54226769764037
1.52462502475178
1.55405701107716
1.58748964393224
1.6318171866734
1.56638588767824
1.6282505239019
1.67657061193687
1.72655098577519
1.65498892456855
1.78061527280503
1.72196892614853
1.72623976058459
1.66665309403039
1.74463214447188
1.76347130949283
1.90889657944438
1.76945304045599
1.75768789648622
1.76358750250469
1.72004293089625
1.71214573479415
1.87238476594807
1.8291313126034
2.0614514767628
1.88032651132921
1.94085487907068
1.7828865747331
2.00504873151732
1.84328509060968
1.9954367044178
1.84216003713676
1.99582982886805
1.96310624889106
2.10839287066639
1.88686547079838
1.89910587483405
1.87429460785287
1.93240269298048
1.80777578948905
2.14733208228158
1.96107149987942
1.82870808293064
2.01232812866236
1.83074310390675
1.84821783982345
1.80300901513865
1.7408396416358
1.67888296156329
1.6858297607442
1.64096489877787
1.58875403524499
1.59631027830373
1.50419522556028
1.60463187793806
1.53224161940741
1.52406073401804
1.55260867014884
1.53845269143323
1.4603422956107
1.49298913405363
1.46348185912653
1.50712930847203
1.46952411180029
1.45094048821927
1.43927838737924
1.42817729534528
1.40559974259611
1.41524890310116
1.32523107139053
1.35705044484901
1.32081280773767
1.29954916759672
1.27439539042502
1.27095606597823
1.22609844534642
1.21984998171669
1.16045281468765
1.13343649343472
1.05512495104535
1.04435906795825
1.00371947737115
0.970873270337117
0.909515356508593
0.880352702442304
0.852292065760408
0.82864282604315
0.783968678463516
0.763746667064275
0.722550782774719
0.6963163669701
0.677295895313323
0.643080459780459
0.633403208939785
0.61568720093768
0.594268396870762
0.587882503847644
0.565655763157261
0.561087872381734
0.549653110639576
0.543476269853047
0.541699336436627
0.532393624076392
0.526337602661175
0.524124801272416
0.517987254191036
0.523816516675578
0.520172502500174
0.518081411050295
0.519210543360095
0.52213776101913
0.517061504602899
0.532610673637767
0.529187560132381
0.53342771308618
0.521962668197095
0.52523380089201
0.527720456456239
0.52402510625115
0.514686937442221
0.522092907815049
0.507489360232719
0.509138145097477
0.503584055817625
0.500171617297995
0.494582912622106
0.488627521955022
0.488818606009334
0.494582151514577
0.490237102164846
0.494852521965725
0.489587167613576
0.498561996635807
0.499549228462603
0.501168185839524
0.500784577937514
0.509482552285501
0.507973935375809
0.510567412939265
0.513799485208253
0.515315504115511
0.515328486220104
0.525822894474367
0.517173639384777
0.520098450587255
0.522575494388313
0.521855155643659
0.520594714836856
0.517201239441688
0.514338631344039
0.519106977251421
0.512988637320218
0.518083395026867
0.520028060331211
0.524491393659944
0.526829476355365
0.533708659399552
0.539677980838612
0.539901229623943
0.543976989544824
0.566920920694967
0.569752477664363
0.568919399746218
0.591522437912982
0.604665977449414
0.611183510613561
0.635669388482187
0.639016782379032
0.643618024140696
0.66716778717425
0.671586930344047
0.663006297020772
0.670596875147985
0.659829196727341
0.664940101254448
0.640268979429921
0.654025066351704
0.632800634208188
0.634204775331207
0.607509467033861
0.609876504278513
0.588359147246602
0.61238931349231
0.601897734728497
0.599162195111939
0.602313115899781
0.613288129117752
0.597444560807772
0.606620391812442
0.598904529134552
0.605320850656092
0.597714728563005
0.595059444101882
0.581033341411731
0.5879551163129
0.580539630813267
0.590491494573401
0.563720524693222
0.57303204240535
0.565906511156163
0.574159911851357
0.557191492293865
0.568182294767985
0.560296904749939
0.553152563650837
0.542069051295278
0.550836945561142
0.542964438307444
0.55045326851463
0.534059085847517
0.558811124578251
0.523885378170394
0.541088465438707
0.540779993763789
0.526570057781159
0.520541602805613
0.521320697910231
0.512045282853803
0.520614042277569
0.505693543727632
0.519134175482543
0.520792150183669
0.507438927655465
0.511355445852027
0.506247925801321
0.491993347316262
0.497968002342484
0.501194661552231
0.504631552386587
0.488333684631543
0.493535837579364
0.496285927314722
0.493952631035395
0.488245497023485
0.479555938586383
0.482081430876469
0.49601418127875
0.473132620449049
0.479813989486307
0.474512420507224
0.490546094878962
0.472844150461545
0.481060092638077
0.477989729610549
0.482345395950235
0.478028101816
0.487669346842468
0.469805115516954
0.483652777943854
0.481846374862582
0.482279005701156
0.476213542830595
0.4939914793574
0.479609256011187
0.500137384497906
0.501793468107312
0.507618725624481
0.493370969061452
0.506180804761434
0.488690884179076
0.497633528307144
0.48669495694145
0.533487632747134
0.514591665482043
0.525921135147882
0.516457537386922
0.513260131613165
0.531090827615467
0.537097461401855
0.540205887477185
0.556172770836714
0.542573892944236
0.579090524570164
0.597446646352977
0.623434278892567
0.611570259088121
0.664150821085525
0.65174429816831
0.65823070053435
0.663622199525007
0.725684606312744
0.68844150490305
0.698915542030515
0.689812176391212
0.745189913605781
0.810826652448768
0.819316479200371
0.7484205320548
0.770607636306806
0.76176050505168
0.854908836146943
0.791471801054764
0.810231325623217
0.805461323545846
0.771729492131882
0.759419547050574
0.782239847380423
0.761358091669351
0.743099972003323
0.747559942357098
0.775415051834368
0.785750455675462
0.791473874537992
0.74273662490344
0.743397244977226
0.7648093412951
0.824970081834117
0.783454421763335
0.792528861771465
0.791419399269611
0.769002399164595
0.738071388428032
0.720157482475489
0.709348646279071
0.710855649883894
0.733965017707548
0.754298212073719
0.749184056833012
0.752019094660722
0.751948606177759
0.724893278045771
0.66665936913251
0.705696591957271
0.722274979437728
0.721556433451817
0.708153567700934
0.729201569224617
0.732315372436465
0.708957529803967
0.684875479284594
0.74090006196154
0.711961113211999
0.757653156368315
0.729121227914714
0.688042167183483
0.735778712385361
0.770621117250668
0.740681103242735
0.725768365104348
0.707601017247702
0.748326059439436
0.721138685025848
0.730479169543053
0.694941638335364
0.743117248432611
0.763935400584009
0.728498220554474
0.679319100090485
0.812877675468872
0.732600307019386
0.792335219861718
0.790925780199467
0.746454294686373
0.771214118836112
0.809997837313249
0.741138862486394
0.80676243445647
0.739268515142147
0.761051964570683
0.797076745392851
0.928798778465909
0.808840278043533
0.845194954998817
0.808008334748893
0.815293353470139
0.883520330446894
0.944791841528384
0.792074598795913
0.840740029654671
0.772107069633433
0.892084354415003
0.99163185988786
1.01061420792788
0.871747088002677
1.22021591730879
1.11929461635305
0.925614591036024
0.947359037034465
0.98234887961894
0.905691654262197
0.994482730209384
0.859242491914764
0.844052937738125
1.00922424030533
0.956352500541975
0.893559534479526
1.05054246963718
0.903955898427274
1.00460026781265
0.963385753069863
0.957301711431436
0.7663721282744
0.830895103200577
1.00957609611523
1.13188421929921
0.79142039947563
0.872718310782444
0.845023135901586
0.939331660828759
0.95095886191766
0.928541985643696
0.726131040740004
0.927284569854022
0.904516212199893
0.793460768565788
0.98233028590325
1.00001711408095
0.805847451482284
2.18903635474787
0.900896092481226
0.922083599598962
1.07860203057369
1.06963562134084
0.94865703026833
1.11102194055805
1.07268053164957
1.85071042149903
0.840507664586055
1.94841161391231
0.929992757877568
0.836222941803504
0.910444350754338
1.20480885085837
1.05150424003097
0.893016430845843
1.02172413739139
0.625837546300333
0.989856515574829
1.83153768530258
5
0.558078777185911
0.415133360597628
